-118.448435	30.500000
-115.778835	32.900000
-113.112170	23.300000
-110.446257	22.100000
-107.783276	37.400000
-105.118866	22.900000
-102.457386	35.400000
-99.794476	45.500000
-97.136674	28.000000
-94.477441	22.500000
-91.818958	25.100000
-89.163398	21.200000
-86.506410	19.800000
-83.854519	18.600000
-81.201199	41.800000
-78.550799	36.300000
-75.898969	34.200000
-73.252230	35.600000
-70.604061	38.700000
-67.956636	13.300000
-65.312124	33.000000
-62.666184	41.900000
-60.025325	34.000000
-57.383037	24.700000
-54.743657	40.400000
-52.102849	24.000000
-49.462781	35.900000
-46.827785	34.600000
-44.191360	39.700000
-41.557839	33.900000
-38.922889	42.900000
-36.293004	33.300000
-33.659527	49.800000
-31.031112	53.600000
-28.403430	43.900000
-25.774321	34.900000
-23.150268	63.400000
-20.522626	72.100000
-17.900037	75.400000
-15.278180	61.600000
-12.657053	128.600000
-10.036656	255.700000
-7.419147	742.800000
-4.800210	2291.200000
-2.184159	5823.100000
0.431164	7154.100000
3.045760	3743.100000
5.657473	505.000000
8.270615	108.200000
10.878723	82.400000
13.490413	56.700000
16.097072	69.600000
18.705159	64.700000
21.312522	47.400000
23.914860	73.900000
26.520776	35.100000
29.121670	55.200000
31.723992	45.100000
34.321297	51.600000
36.922177	50.200000
39.518043	36.700000
42.115336	52.400000
44.711910	39.100000
47.303475	39.900000
49.896468	61.200000
52.486600	63.200000
55.078160	34.600000
57.666860	38.100000
60.256987	72.300000
62.842116	48.700000
65.428671	67.500000
68.014513	32.500000
70.597501	69.300000
73.181915	66.000000
75.759201	57.100000
78.340053	68.100000
80.918056	67.500000
83.495349	73.800000
86.074068	79.400000
88.647806	77.800000
91.222970	85.100000
93.795291	94.400000
96.366904	93.000000
98.935677	96.400000
101.505877	105.900000
104.073239	122.000000
106.642026	119.400000
109.207977	160.300000
111.771093	160.300000
114.337765	235.300000
116.895216	314.100000
119.458352	399.500000
122.016529	572.400000
124.578259	857.000000
127.135034	1281.600000
129.693234	1924.500000
132.246482	2888.200000
134.799031	4143.400000
137.355131	5976.100000
139.906284	7883.500000
142.456738	10047.500000
145.006496	11562.900000
147.553434	12878.500000
150.099676	13564.400000
152.647344	13944.000000
155.194317	14148.100000
157.736353	14110.500000
160.277696	14051.200000
162.818346	13979.400000
165.360422	13898.600000
167.899687	13878.500000
170.436142	13754.300000
172.971907	13722.800000
175.509097	13694.800000
178.045595	13540.700000
180.579288	13610.700000
183.110178	13531.900000
185.640379	13378.700000
188.172005	13464.400000
190.700830	13478.400000
193.226856	13380.600000
195.752197	13333.500000
198.278962	13366.500000
200.802930	13229.200000
203.326214	13267.600000
205.848813	13226.900000
208.368619	13305.500000
210.887742	13147.400000
213.406182	13106.100000
215.926046	13192.600000
218.438909	13239.500000
220.955303	13260.900000
223.471015	13234.500000
225.981838	13145.100000
228.494085	13339.400000
231.003549	13321.100000
233.512335	13351.000000
236.020443	13354.500000
238.529974	13435.300000
241.034625	13345.800000
243.538601	13408.700000
246.044000	13533.900000
248.544524	13526.100000
251.048571	13580.300000
253.545648	13534.300000
256.046247	13613.000000
258.544075	13612.700000
261.041230	13523.800000
263.537712	13560.900000
266.029331	13532.200000
268.524470	13529.600000
271.016843	13561.300000
273.508545	13582.500000
275.997483	13549.600000
278.487846	13480.900000
280.975447	13469.600000
283.460288	13544.700000
285.948643	13497.200000
288.430059	13422.700000
290.914989	13427.300000
293.395074	13555.400000
295.878671	13446.400000
298.357425	13539.000000
300.837603	13651.800000
303.315028	13588.500000
305.791790	13577.200000
308.267889	13536.600000
310.741239	13465.300000
313.213927	13607.000000
315.685954	13475.300000
318.157320	13740.300000
320.625942	13762.700000
323.093904	13846.800000
325.563289	13655.600000
328.027850	13628.300000
330.495916	13629.200000
332.959162	13604.400000
335.421750	13537.500000
337.883682	13461.700000
340.344957	13420.700000
342.803498	13413.700000
345.263461	13301.800000
347.720691	13228.200000
350.177267	13285.900000
352.633189	13145.700000
355.086382	12866.600000
357.540996	12819.300000
359.990809	12793.800000
362.444119	12758.600000
364.892629	12561.800000
367.340489	12447.800000
369.789770	12361.100000
372.234258	12335.600000
374.680168	12119.700000
377.125429	11941.500000
379.567970	11928.100000
382.009864	11715.600000
384.451111	11645.600000
386.889642	11547.600000
389.329595	11421.000000
391.766834	11302.500000
394.201361	11198.500000
396.639376	11123.000000
399.072614	10996.900000
401.507274	10894.700000
403.937160	10812.200000
406.370532	10761.500000
408.799134	10724.200000
411.227095	10633.200000
413.656476	10529.700000
416.081092	10646.800000
418.507130	10536.300000
420.932527	10455.800000
423.357284	10445.100000
425.777283	10503.800000
428.198703	10479.500000
430.617426	10472.600000
433.037570	10453.700000
435.455019	10522.900000
437.873888	10370.500000
440.290064	10428.700000
442.701493	10443.400000
445.116398	10358.500000
447.528613	10382.700000
449.940194	10342.600000
452.351141	10294.200000
454.759402	10298.600000
457.167030	10268.600000
459.574027	10290.800000
461.980391	10276.300000
464.384073	10303.000000
466.787125	10201.400000
469.189547	10196.000000
471.591340	10139.700000
473.990454	10079.900000
476.390988	10120.500000
478.790893	10153.900000
481.186075	10046.300000
483.584724	10161.900000
485.978653	10004.700000
488.371956	9960.800000
490.764633	9924.500000
493.156685	9927.000000
495.550156	9918.500000
497.938914	9796.600000
500.325006	9908.200000
502.712518	9776.800000
505.099406	9681.900000
507.483631	9758.300000
509.869275	9654.600000
512.252256	9643.400000
514.632577	9539.100000
517.014317	9749.000000
519.393398	9684.600000
521.773898	9577.500000
524.151740	9571.900000
526.526927	9644.500000
528.901496	9572.500000
531.277484	9503.600000
533.650818	9438.200000
536.025570	9330.000000
538.395637	9187.200000
540.765088	9227.300000
543.135957	9154.800000
545.502146	9012.100000
547.869753	8962.100000
550.234714	8852.700000
552.599062	8726.000000
554.962798	8596.100000
557.327951	8566.900000
559.688431	8461.500000
562.050330	8405.000000
564.409589	8166.700000
566.766209	8113.800000
569.126274	8009.400000
571.479649	7909.200000
573.836468	7793.200000
576.190651	7667.300000
578.544227	7505.300000
580.897194	7362.000000
583.247530	7322.700000
585.599282	7279.500000
587.944358	7110.900000
590.294898	7016.400000
592.638765	6953.700000
594.988092	6880.600000
597.332772	6821.700000
599.674826	6753.200000
602.018298	6646.700000
604.359147	6667.900000
606.699394	6569.600000
609.037020	6553.000000
611.378081	6484.300000
613.714504	6493.900000
616.052345	6456.400000
618.387567	6482.900000
620.720174	6429.000000
623.054197	6531.300000
625.385607	6503.200000
627.716418	6428.500000
630.046631	6437.700000
632.376246	6462.600000
634.701239	6384.600000
637.031673	6443.400000
639.357485	6458.500000
641.680691	6466.700000
644.005312	6392.200000
646.327329	6420.900000
648.648751	6421.300000
650.967570	6483.700000
653.287805	6476.900000
655.607447	6481.800000
657.924488	6521.000000
660.240937	6568.100000
662.554788	6616.400000
664.870055	6646.100000
667.182725	6754.800000
669.496810	6724.600000
671.806295	6856.700000
674.117196	6952.900000
676.425504	6930.500000
678.733224	7068.900000
681.042359	7155.200000
683.346901	7194.400000
685.650856	7294.500000
687.954226	7324.700000
690.259010	7383.100000
692.559208	7375.100000
694.860820	7594.000000
697.161848	7528.200000
699.458293	7647.400000
701.756154	7704.900000
704.053431	7767.000000
706.350125	7798.700000
708.642243	7868.500000
710.937772	7952.400000
713.228728	8053.000000
715.521098	8094.300000
717.810892	8122.300000
720.100107	8172.600000
722.388741	8270.200000
724.674804	8284.100000
726.962280	8448.100000
729.247186	8448.400000
731.531513	8467.500000
733.813272	8592.500000
736.096445	8684.000000
738.379041	8668.100000
740.657082	8779.700000
742.936536	8836.200000
745.215415	8949.900000
747.493718	8950.100000
749.767472	9086.100000
752.042640	9208.300000
754.317234	9253.400000
756.589268	9235.700000
758.862716	9405.800000
761.133606	9475.400000
763.401940	9521.500000
765.671687	9599.200000
767.938880	9655.300000
770.205502	9738.600000
772.471555	9757.900000
774.735055	9846.000000
776.999969	9909.500000
779.264313	9900.400000
781.524128	10047.600000
783.785356	10056.200000
786.046015	10221.200000
788.304129	10173.600000
790.559698	10206.400000
792.818658	10297.600000
795.071119	10318.400000
797.328947	10287.200000
799.582255	10325.900000
801.833024	10442.200000
804.085205	10358.700000
806.334848	10509.600000
808.585902	10579.900000
810.832445	10559.200000
813.080400	10535.800000
815.325821	10677.200000
817.572653	10689.100000
819.818924	10688.900000
822.060691	10726.500000
824.305840	10806.500000
826.544517	10776.300000
828.786577	10937.100000
831.024138	10985.200000
833.263110	11109.500000
835.499556	11123.400000
837.737413	11127.200000
839.972745	11247.800000
842.205554	11396.200000
844.439774	11468.200000
846.671472	11575.400000
848.902615	11697.700000
851.133203	11921.600000
853.363236	12104.500000
855.592716	12108.500000
857.817714	12387.900000
860.046087	12589.500000
862.269981	12780.600000
864.495285	12951.300000
866.716114	13393.700000
868.940315	13410.500000
871.160043	13746.300000
873.381182	13864.200000
875.601770	14193.200000
877.819848	14479.000000
880.039337	14706.300000
882.254359	14883.200000
884.468833	15015.300000
886.682760	15296.600000
888.896139	15330.500000
891.108971	15452.200000
893.321257	15517.000000
895.531040	15644.000000
897.740278	15459.700000
899.948971	15622.800000
902.155165	15442.300000
904.362768	15422.000000
906.567874	15251.700000
908.772436	15109.400000
910.974502	14953.300000
913.177978	14646.600000
915.378960	14396.200000
917.579401	14021.500000
919.781249	13786.200000
921.976707	13378.500000
924.175524	13142.900000
926.369902	12790.700000
928.567638	12394.500000
930.760938	12096.600000
932.955647	11940.700000
935.147870	11592.300000
937.339555	11341.900000
939.530702	11104.100000
941.719366	11005.400000
943.907493	10909.500000
946.093140	10726.300000
948.282139	10817.400000
950.466715	10724.100000
952.650756	10664.500000
954.838147	10680.500000
957.017234	10682.100000
959.199672	10671.700000
961.381576	10593.900000
963.561006	10659.400000
965.737963	10600.400000
967.916327	10690.000000
970.096099	10642.500000
972.269522	10593.400000
974.446291	10511.700000
976.618653	10469.400000
978.792423	10366.500000
980.961789	10286.800000
983.134500	10169.000000
985.304744	10043.900000
987.474460	9760.800000
989.643647	9644.900000
991.808437	9551.800000
993.976568	9458.200000
996.140305	9199.000000
998.305448	9022.200000
1000.468133	8915.400000
1002.630291	8740.900000
1004.789993	8728.200000
1006.949171	8494.600000
1009.109755	8373.400000
1011.267884	8230.500000
1013.425489	8107.500000
1015.582571	7905.700000
1017.739130	7902.500000
1019.891309	7758.600000
1022.044894	7603.300000
1024.197958	7576.100000
1026.348574	7454.300000
1028.500595	7405.300000
1030.648243	7332.200000
1032.799223	7245.000000
1034.945832	7188.400000
1037.091923	7145.700000
1039.237494	7063.100000
1041.384471	7001.000000
1043.525159	6926.100000
1045.669177	6835.000000
1047.810754	6792.600000
1049.951815	6752.500000
1052.094280	6671.800000
1054.230466	6639.400000
1056.369978	6646.500000
1058.505134	6557.100000
1060.643615	6512.900000
1062.777742	6441.100000
1064.911356	6394.000000
1067.046375	6280.100000
1069.177044	6306.200000
1071.309118	6224.200000
1073.438763	6111.300000
1075.567896	6051.000000
1077.696517	5977.100000
1079.824627	5982.900000
1081.950311	5864.300000
1084.075485	5756.100000
1086.202063	5694.700000
1088.324304	5675.000000
1090.447948	5644.600000
1092.567259	5457.700000
1094.691798	5307.200000
1096.810092	5295.600000
1098.929791	5206.800000
1101.047071	5086.200000
1103.163845	4973.400000
1105.280112	4908.300000
1107.393964	4761.300000
1109.509219	4740.200000
1111.620152	4601.300000
1113.734396	4528.800000
1115.844320	4463.500000
1117.955648	4376.000000
1120.066471	4276.800000
1122.172979	4198.800000
1124.282795	4156.500000
1126.388297	4037.000000
1128.495202	4012.700000
1130.595892	3886.200000
1132.701794	3812.800000
1134.803387	3750.700000
1136.906383	3700.300000
1139.008878	3612.200000
1141.105166	3522.600000
1143.206662	3488.600000
1145.303855	3415.500000
1147.400549	3378.000000
1149.496745	3310.200000
1151.592444	3248.500000
1153.687645	3185.500000
1155.780449	3110.400000
1157.874655	3073.600000
1159.962670	3027.100000
1162.055883	3019.700000
1164.142908	2948.700000
1166.233232	2856.200000
1168.319269	2889.300000
1170.408603	2829.900000
1172.491756	2749.000000
1174.576311	2764.300000
1176.662268	2715.100000
1178.743943	2675.000000
1180.827020	2644.400000
1182.907711	2591.500000
1184.987910	2566.000000
1187.067618	2501.700000
1189.146835	2548.700000
1191.223670	2492.500000
1193.298124	2449.000000
1195.375870	2472.400000
1197.449345	2418.400000
1199.524221	2387.100000
1201.594830	2388.800000
1203.666841	2372.700000
1205.736475	2364.800000
1207.807510	2337.100000
1209.878057	2359.900000
1211.944343	2330.500000
1214.012030	2329.800000
1216.077345	2241.600000
1218.144060	2250.000000
1220.206519	2291.800000
1222.272263	2279.600000
1224.333754	2253.600000
1226.396644	2242.900000
1228.457167	2214.000000
1230.517206	2182.000000
1232.576763	2191.100000
1234.633954	2192.000000
1236.690664	2195.700000
1238.745011	2200.500000
1240.802638	2169.900000
1242.857903	2174.900000
1244.908927	2180.100000
1246.961351	2182.400000
1249.013295	2147.500000
1251.062881	2175.700000
1253.111988	2114.900000
1255.160617	2160.000000
1257.208767	2161.100000
1259.256439	2170.500000
1261.299880	2147.300000
1263.346596	2158.100000
1265.390959	2152.600000
1267.434846	2144.800000
1269.476382	2106.400000
1271.515567	2073.100000
1273.558026	2116.000000
1275.596262	2136.600000
1277.635897	2124.600000
1279.675057	2100.200000
1281.709998	2123.900000
1283.746339	2124.800000
1285.780334	2111.500000
1287.815728	2139.600000
1289.846908	2083.200000
1291.879487	2115.700000
1293.911593	2109.800000
1295.941359	2145.800000
1297.972523	2125.500000
1299.999479	2148.700000
1302.027833	2118.400000
1304.051983	2120.000000
1306.079397	2110.900000
1308.102609	2128.600000
1310.127219	2135.700000
1312.149495	2166.300000
1314.173168	2148.100000
1316.194508	2112.900000
1318.215380	2136.600000
1320.235786	2134.200000
1322.251997	2141.500000
1324.269606	2116.200000
1326.284888	2119.900000
1328.303427	2109.600000
1330.317778	2116.100000
1332.329803	2113.300000
1334.345085	2149.600000
1336.356182	2141.600000
1338.368676	2110.600000
1340.376987	2172.600000
1342.388554	2131.400000
1344.394081	2109.900000
1346.402864	2159.200000
1348.407469	2146.300000
1350.415328	2149.200000
1352.422725	2148.600000
1354.424091	2159.500000
1356.426854	2129.400000
1358.429156	2158.900000
1360.430999	2172.800000
1362.432382	2139.300000
1364.431452	2144.500000
1366.430063	2160.400000
1368.428216	2173.800000
1370.425911	2144.100000
1372.419442	2103.900000
1374.414370	2137.900000
1376.408841	2141.800000
1378.402855	2072.800000
1380.394561	2144.500000
1382.385813	2103.100000
1384.374759	2093.400000
1386.365100	2094.800000
1388.354986	2131.300000
1390.342569	2095.800000
1392.329697	2074.700000
1394.314525	2082.900000
1396.300746	2111.000000
1398.284668	2075.200000
1400.268137	2101.800000
1402.251154	2112.900000
1404.231872	2137.700000
1406.213986	2093.700000
1408.193802	2083.200000
1410.173168	2041.800000
1412.148394	2119.700000
1414.126860	2056.800000
1416.103031	2066.500000
1418.078754	2050.500000
1420.054027	2082.300000
1422.027009	2039.500000
1423.999543	2048.000000
1425.971630	2048.500000
1427.943268	2039.400000
1429.910778	2050.300000
1431.883363	2042.600000
1433.848141	2017.800000
1435.817991	2013.900000
1437.783718	2010.400000
1439.750837	2022.200000
1441.715673	2003.700000
1443.676390	2012.900000
1445.642174	1999.300000
1447.602003	1981.300000
1449.563225	1985.500000
1451.525840	1982.700000
1453.484340	1998.300000
1455.442398	1987.600000
1457.400013	1978.800000
1459.357187	2000.700000
1461.312085	1989.800000
1463.268375	2016.100000
1465.222391	1975.200000
1467.175967	2001.900000
1469.127270	1958.200000
1471.079965	1985.900000
1473.030389	1958.700000
1474.980373	1962.900000
1476.929919	2008.000000
1478.877196	1920.000000
1480.822206	1969.000000
1482.768607	1941.600000
1484.714572	1988.200000
1486.660098	1993.100000
1488.603360	1954.500000
1490.546185	1960.400000
1492.486747	1940.600000
1494.428700	1948.400000
1496.368392	1937.400000
1498.307648	1938.300000
1500.246469	1902.700000
1502.183031	1957.600000
1504.120984	1951.400000
1506.056679	1911.300000
1507.991939	1944.700000
1509.924944	1933.900000
1511.857516	1919.900000
1513.789656	1939.300000
1515.721364	1916.400000
1517.650818	1964.700000
1519.581663	1914.100000
1521.512077	1903.300000
1523.438417	1912.900000
1525.366149	1898.200000
1527.291630	1936.000000
1529.216682	1907.500000
1531.141305	1945.300000
1533.065499	1909.600000
1534.987446	1904.300000
1536.910782	1910.900000
1538.831873	1879.400000
1540.750719	1878.900000
1542.670955	1878.300000
1544.588947	1904.400000
1546.506513	1895.700000
1548.421837	1914.400000
1550.338551	1910.700000
1552.251210	1923.900000
1554.167073	1916.800000
1556.080696	1939.200000
1557.992082	1891.300000
1559.904856	1902.800000
1561.813581	1903.600000
1563.723696	1879.100000
1565.633387	1872.400000
1567.542654	1902.900000
1569.449688	1894.300000
1571.354489	1875.400000
1573.260679	1894.900000
1575.164637	1908.600000
1577.068175	1891.600000
1578.971291	1856.600000
1580.872179	1914.200000
1582.774454	1870.600000
1584.674502	1839.000000
1586.575937	1861.000000
1588.473339	1862.000000
1590.370322	1859.100000
1592.266887	1848.900000
1594.164840	1822.400000
1596.056958	1853.200000
1597.952269	1852.300000
1599.847163	1852.200000
1601.739835	1819.600000
1603.632091	1837.800000
1605.522126	1840.200000
1607.411747	1830.000000
1609.300951	1836.500000
1611.189741	1841.400000
1613.076314	1830.800000
1614.964273	1852.000000
1616.848216	1840.300000
1618.733547	1844.000000
1620.618463	1806.700000
1622.501166	1800.400000
1624.385256	1822.200000
1626.265335	1835.200000
1628.146800	1840.600000
1630.026055	1828.800000
1631.906696	1834.900000
1633.781533	1840.900000
1635.661352	1825.400000
1637.537165	1816.500000
1639.412568	1813.600000
1641.289358	1788.000000
1643.160350	1805.800000
1645.034524	1797.100000
1646.904700	1800.400000
1648.778056	1774.800000
1650.649209	1816.100000
1652.518160	1792.000000
1654.388497	1813.400000
1656.254840	1780.900000
1658.122569	1803.100000
1659.988100	1795.400000
1661.855015	1784.900000
1663.717942	1793.100000
1665.582254	1791.400000
1667.444370	1785.500000
1669.306082	1769.800000
1671.169178	1751.600000
1673.030080	1761.900000
1674.888788	1732.100000
1676.747093	1765.400000
1678.606783	1773.200000
1680.460706	1735.700000
1682.317801	1772.000000
1684.174494	1758.300000
1686.027211	1708.300000
1687.883098	1779.600000
1689.735012	1765.400000
1691.586525	1745.600000
1693.437637	1739.400000
1695.288349	1750.600000
1697.138660	1767.600000
1698.986787	1754.100000
1700.836297	1731.400000
1702.680059	1754.000000
1704.528770	1731.200000
1706.371736	1770.400000
1708.217867	1739.400000
1710.060037	1708.300000
1711.905371	1731.200000
1713.744965	1745.600000
1715.585943	1739.700000
1717.428304	1750.000000
1719.266709	1720.500000
1721.106497	1715.200000
1722.944110	1739.400000
1724.781327	1739.900000
1726.616371	1747.600000
1728.452798	1737.200000
1730.287053	1726.900000
1732.120913	1707.100000
1733.954380	1730.400000
1735.783900	1729.400000
1737.616579	1715.200000
1739.445314	1747.300000
1741.277207	1691.200000
1743.105157	1699.600000
1744.932715	1720.900000
1746.759881	1714.600000
1748.586656	1703.800000
1750.413040	1691.900000
1752.235487	1706.800000
1754.061088	1703.200000
1755.882755	1689.800000
1757.705804	1713.200000
1759.526692	1741.500000
1761.347190	1720.900000
1763.169070	1686.800000
1764.985250	1713.200000
1766.804582	1688.800000
1768.619987	1703.200000
1770.438542	1698.800000
1772.253172	1723.700000
1774.067416	1709.400000
1775.881272	1724.700000
1777.694742	1687.900000
1779.506059	1704.700000
1781.318757	1685.400000
1783.131068	1702.000000
1784.939462	1690.600000
1786.749237	1699.000000
1788.555096	1689.000000
1790.364101	1685.400000
1792.169193	1697.800000
1793.975666	1639.800000
1795.781755	1679.700000
1797.583934	1678.200000
1799.389256	1706.300000
1801.190670	1699.500000
1802.993464	1685.000000
1804.792352	1674.700000
1806.592621	1664.100000
1808.392508	1674.200000
1810.190254	1656.800000
1811.987618	1672.300000
1813.784603	1640.000000
1815.581207	1684.700000
1817.375672	1662.000000
1819.171516	1659.300000
1820.961706	1637.500000
1822.756792	1659.500000
1824.546225	1650.500000
1826.338795	1641.600000
1828.129230	1646.200000
1829.917531	1646.600000
1831.708967	1661.800000
1833.494757	1659.600000
1835.281927	1669.700000
1837.066965	1665.800000
1838.855137	1668.700000
1840.639423	1653.600000
1842.421580	1656.800000
1844.205115	1644.600000
1845.986522	1674.800000
1847.769308	1668.000000
1849.548214	1674.900000
1851.328498	1636.600000
1853.106656	1660.600000
1854.886193	1668.700000
1856.663605	1644.100000
1858.438893	1667.700000
1860.215560	1646.400000
1861.990103	1648.700000
1863.766025	1630.200000
1865.536326	1616.100000
1867.309755	1668.100000
1869.081064	1648.900000
1870.852003	1619.800000
1872.624318	1634.600000
1874.391020	1627.500000
1876.160848	1649.600000
1877.926812	1643.700000
1879.695900	1638.700000
1881.461126	1603.600000
1883.225983	1666.700000
1884.992218	1609.200000
1886.754594	1607.400000
1888.516603	1635.500000
1890.278244	1628.800000
1892.039519	1606.600000
1893.800426	1597.800000
1895.560967	1577.500000
1897.319398	1628.300000
1899.077464	1655.900000
1900.833421	1606.000000
1902.590756	1638.900000
1904.347724	1590.500000
1906.102587	1607.200000
1907.855344	1629.900000
1909.607738	1622.700000
1911.361507	1604.700000
1913.113173	1603.600000
1914.862737	1575.800000
1916.613677	1558.700000
1918.364253	1551.200000
1920.110990	1622.800000
1921.859104	1597.000000
1923.605118	1601.700000
1925.352508	1597.000000
1927.097799	1615.600000
1928.840993	1589.600000
1930.585563	1596.800000
1932.328036	1581.300000
1934.070149	1570.500000
1935.811902	1574.900000
1937.553296	1631.500000
1939.292596	1630.700000
1941.031536	1602.000000
1942.770119	1616.000000
1944.506609	1576.000000
1946.242742	1587.400000
1947.980249	1598.800000
1949.713934	1581.300000
1951.448994	1593.700000
1953.181966	1609.500000
1954.914581	1619.000000
1956.646839	1593.000000
1958.378741	1617.600000
1960.108557	1583.900000
1961.836289	1596.700000
1963.565394	1598.200000
1965.294145	1602.800000
1967.020812	1624.300000
1968.747125	1594.200000
1970.474811	1603.300000
1972.196961	1621.500000
1973.922212	1607.700000
1975.643657	1582.600000
1977.368201	1616.600000
1979.090666	1603.100000
1980.809327	1592.100000
1982.531087	1623.900000
1984.249045	1611.800000
1985.968376	1615.400000
1987.683908	1619.100000
1989.404261	1637.700000
1991.120814	1647.900000
1992.833571	1612.500000
1994.549425	1618.100000
1996.263205	1611.500000
1997.976636	1606.100000
1999.687996	1612.100000
2001.400729	1640.600000
2003.109670	1607.300000
2004.821705	1618.400000
2006.528230	1605.400000
2008.237848	1605.300000
2009.945398	1625.200000
2011.652601	1611.300000
2013.357738	1588.500000
2015.062528	1616.700000
2016.768690	1574.800000
2018.471070	1608.100000
2020.174822	1600.100000
2021.876510	1580.300000
2023.577854	1612.700000
2025.278852	1581.400000
2026.977790	1589.300000
2028.678098	1600.100000
2030.374632	1575.600000
2032.072537	1569.200000
2033.768383	1607.200000
2035.467315	1609.200000
2037.160761	1591.400000
2038.855579	1598.100000
2040.550053	1622.200000
2042.240759	1576.500000
2043.934549	1619.200000
2045.624572	1588.000000
2047.315966	1597.400000
2049.005307	1571.900000
2050.696018	1589.600000
2052.382966	1561.900000
2054.069575	1582.500000
2055.757554	1593.800000
2057.441773	1588.800000
2059.127362	1558.900000
2060.812612	1543.000000
2062.495814	1573.700000
2064.180385	1577.400000
2065.859494	1563.600000
2067.543388	1571.800000
2069.221822	1538.100000
2070.903332	1509.500000
2072.581092	1577.200000
2074.258514	1519.400000
2075.937306	1560.500000
2077.614056	1568.400000
2079.288764	1556.300000
2080.964841	1555.900000
2082.638878	1573.000000
2084.312579	1569.500000
2085.985945	1560.300000
2087.657273	1545.200000
2089.328266	1553.300000
2090.998925	1530.200000
2092.669249	1565.000000
2094.339240	1569.100000
2096.007195	1530.000000
2097.674817	1546.800000
2099.340404	1550.500000
2101.007361	1549.700000
2102.672283	1555.600000
2104.336874	1567.300000
2105.999433	1555.100000
2107.663360	1589.500000
2109.325257	1569.000000
2110.986822	1577.700000
2112.648056	1565.200000
2114.307262	1575.400000
2115.966137	1583.100000
2117.624683	1583.800000
2119.282899	1619.200000
2120.937391	1537.600000
2122.594948	1583.200000
2124.252176	1565.400000
2125.905682	1531.000000
2127.560556	1565.300000
2129.211712	1563.200000
2130.865929	1549.000000
2132.516430	1552.800000
2134.168297	1572.000000
2135.814756	1560.400000
2137.465970	1542.100000
2139.113470	1567.000000
2140.762337	1549.200000
2142.409186	1543.000000
2144.055708	1558.900000
2145.701905	1548.900000
2147.344394	1559.400000
2148.989941	1538.100000
2150.631781	1567.400000
2152.276678	1545.200000
2153.917870	1550.000000
2155.558738	1538.400000
2157.199282	1497.700000
2158.837814	1504.000000
2160.477712	1537.400000
2162.113910	1522.200000
2163.751475	1505.300000
2165.388716	1489.600000
2167.023948	1518.200000
2168.658859	1535.100000
2170.293448	1497.800000
2171.927715	1501.600000
2173.558289	1517.300000
2175.191915	1483.800000
2176.821849	1489.000000
2178.453148	1502.300000
2180.082442	1501.300000
2181.711417	1505.700000
2183.340073	1473.200000
2184.968409	1496.200000
2186.594742	1466.700000
2188.220757	1480.000000
2189.844771	1494.700000
2191.470149	1457.400000
2193.093528	1503.100000
2194.718270	1476.200000
2196.339332	1455.000000
2197.960077	1499.100000
2199.582187	1489.300000
2201.202299	1458.400000
2202.820414	1444.400000
2204.438214	1468.800000
2206.055699	1474.000000
2207.672868	1431.200000
2209.289722	1455.000000
2210.906261	1450.800000
2212.520806	1473.400000
2214.133359	1448.000000
2215.747276	1441.100000
2217.359202	1464.300000
2218.972491	1468.300000
2220.583790	1447.500000
2222.193099	1458.600000
2223.803772	1491.000000
2225.412456	1443.900000
2227.020828	1462.100000
2228.627212	1478.900000
2230.234960	1466.500000
2231.840721	1476.600000
2233.446171	1493.600000
2235.049636	1464.300000
2236.654464	1489.200000
2238.257309	1466.900000
2239.858170	1502.500000
2241.460393	1483.600000
2243.060635	1486.400000
2244.662239	1460.400000
2246.260191	1502.800000
2247.859505	1437.400000
2249.456839	1479.800000
2251.053864	1477.900000
2252.652252	1453.100000
2254.246991	1485.300000
2255.839753	1456.200000
2257.433878	1480.900000
2259.029364	1424.500000
2260.621206	1442.400000
2262.212741	1448.700000
2263.805637	1458.900000
2265.393224	1453.200000
2266.985508	1444.100000
2268.572484	1473.300000
2270.162489	1434.200000
2271.747189	1475.200000
2273.336583	1440.900000
2274.920674	1441.200000
2276.506127	1469.600000
2278.089610	1426.700000
2279.676120	1458.700000
2281.258996	1446.800000
2282.841568	1432.000000
2284.423837	1445.400000
2286.002477	1429.700000
2287.584140	1419.700000
2289.162175	1416.300000
2290.743233	1464.900000
2292.320665	1458.250000
2293.896132	1451.600000
2295.474622	1441.400000
2297.049488	1463.800000
2298.624053	1426.200000
2300.198318	1415.000000
2301.772282	1416.800000
2303.345946	1419.600000
2304.919309	1412.000000
2306.489054	1385.100000
2308.058500	1391.200000
2309.630965	1431.600000
2311.198154	1395.800000
2312.768362	1435.600000
2314.334955	1445.100000
2315.902908	1392.600000
2317.468905	1402.700000
2319.034605	1381.300000
2320.600008	1399.300000
2322.163456	1405.700000
2323.728264	1396.900000
2325.289464	1434.800000
2326.853678	1433.500000
2328.412631	1482.900000
2329.974597	1430.100000
2331.534613	1436.400000
2333.094333	1387.400000
2334.652104	1417.800000
2336.209580	1412.800000
2337.766762	1402.000000
2339.321997	1415.400000
2340.876937	1402.300000
2342.431584	1402.400000
2343.985937	1421.200000
2345.539996	1395.900000
2347.093761	1419.000000
2348.645583	1421.300000
2350.195461	1420.600000
2351.748347	1421.500000
2353.295991	1435.200000
2354.846642	1403.100000
2356.393702	1428.200000
2357.942121	1389.800000
2359.490247	1415.100000
2361.034785	1388.200000
2362.580681	1416.600000
2364.124639	1413.900000
2365.669954	1399.300000
2367.211684	1403.900000
2368.754771	1407.500000
2370.295923	1390.600000
2371.836785	1409.200000
2373.377358	1401.000000
2374.917641	1433.900000
2376.457636	1417.000000
2377.994053	1438.000000
2379.533471	1383.400000
2381.069312	1383.400000
2382.606509	1368.700000
2384.140131	1413.900000
2385.676754	1404.900000
2387.211445	1400.500000
2388.744207	1391.300000
2390.276682	1413.900000
2391.807230	1387.800000
2393.340775	1403.400000
2394.869109	1392.200000
2396.398799	1415.600000
2397.928204	1386.800000
2399.457323	1389.700000
2400.986158	1381.100000
2402.509787	1396.600000
2404.038053	1412.100000
2405.561115	1399.300000
2407.088811	1420.300000
2408.609668	1409.700000
2410.135158	1413.400000
2411.657087	1404.400000
2413.180372	1397.900000
2414.701736	1390.400000
2416.221180	1379.700000
2417.741979	1402.100000
2419.260859	1397.100000
2420.779457	1418.400000
2422.296138	1368.600000
2423.814173	1389.800000
2425.331927	1368.900000
2426.846130	1364.500000
2428.360052	1385.100000
2429.873694	1399.200000
2431.388691	1387.000000
2432.900139	1395.900000
2434.412942	1394.100000
2435.923832	1410.600000
2437.434442	1394.400000
2438.943141	1374.000000
2440.454827	1381.500000
2441.962968	1390.800000
2443.470832	1382.700000
2444.978418	1406.900000
2446.482463	1379.800000
2447.989494	1348.800000
2449.494616	1361.100000
2450.999461	1360.400000
2452.502399	1336.300000
2454.005060	1370.100000
2455.507445	1346.700000
2457.007925	1383.900000
2458.509758	1341.500000
2460.009687	1366.900000
2461.509340	1371.700000
2463.008717	1335.900000
2464.506192	1344.700000
2466.001765	1354.000000
2467.500319	1332.100000
2468.995343	1348.000000
2470.491721	1326.500000
2471.984571	1340.100000
2473.478775	1331.900000
2474.972705	1331.800000
2476.463112	1333.900000
2477.956495	1310.600000
2479.447981	1322.400000
2480.937570	1321.900000
2482.426887	1308.800000
2483.914309	1342.800000
2485.404706	1321.700000
2486.891584	1303.600000
2488.379814	1324.900000
2489.864528	1315.600000
2491.348971	1293.000000
2492.834766	1316.600000
2494.318668	1336.200000
2495.803922	1314.200000
2497.284042	1327.200000
2498.767134	1312.500000
2500.248336	1298.200000
2501.729269	1304.500000
2503.208313	1297.500000
2504.687088	1327.600000
2506.165595	1299.700000
2507.643834	1283.900000
2509.121804	1309.800000
2510.596270	1318.500000
2512.073704	1312.400000
2513.547635	1295.800000
2515.022916	1294.000000
2516.497931	1297.400000
2517.969444	1303.000000
2519.442307	1292.600000
2520.913288	1319.500000
2522.385619	1323.900000
2523.852837	1359.200000
2525.323020	1353.900000
2526.791323	1313.800000
2528.259361	1325.000000
2529.727134	1334.000000
2531.194642	1320.700000
2532.661885	1318.600000
2534.125636	1320.700000
2535.590737	1288.400000
2537.053961	1317.200000
2538.518535	1304.400000
2539.979619	1300.600000
2541.442053	1322.400000
2542.904224	1321.400000
2544.362909	1309.700000
2545.826166	1326.000000
2547.284326	1335.900000
2548.743835	1309.600000
2550.198251	1329.600000
2551.657236	1289.000000
2553.114350	1308.700000
2554.569593	1294.500000
2556.024575	1315.400000
2557.477687	1331.600000
2558.932148	1289.300000
2560.384740	1321.800000
2561.837072	1301.100000
2563.287536	1322.300000
2564.740956	1300.400000
2566.189294	1295.700000
2567.640588	1298.700000
2569.090015	1287.800000
2570.535970	1326.100000
2571.984881	1292.600000
2573.430320	1309.400000
2574.877108	1335.400000
2576.322032	1324.700000
2577.766699	1313.800000
2579.212713	1327.700000
2580.655260	1318.700000
2582.099155	1297.400000
2583.539585	1287.500000
2584.981362	1302.700000
2586.421280	1268.900000
2587.862545	1293.200000
2589.300349	1299.900000
2590.741102	1293.800000
2592.176792	1300.400000
2593.615432	1292.900000
2595.052215	1299.000000
2596.487141	1289.400000
2597.925016	1274.400000
2599.357832	1279.000000
2600.791996	1258.200000
2602.224306	1271.200000
2603.657962	1291.300000
2605.089765	1288.600000
2606.521315	1289.100000
2607.952611	1257.500000
2609.382055	1252.800000
2610.811248	1280.900000
2612.238589	1270.400000
2613.667277	1280.600000
2615.095712	1261.200000
2616.520700	1254.000000
2617.947035	1253.700000
2619.371521	1262.700000
2620.797353	1272.200000
2622.219741	1290.900000
2623.643475	1295.600000
2625.065362	1251.800000
2626.487000	1301.600000
2627.906792	1253.000000
2629.327930	1260.100000
2630.748818	1261.800000
2632.166268	1248.000000
2633.586657	1256.200000
2635.003609	1266.100000
2636.420313	1244.200000
2637.836768	1261.300000
2639.252975	1282.400000
2640.668933	1256.400000
2642.083051	1272.400000
2643.496922	1260.300000
2644.908953	1268.600000
2646.322329	1249.900000
2647.732275	1273.000000
2649.145156	1295.700000
2650.554610	1278.900000
2651.963817	1283.800000
2653.371187	1267.800000
2654.781493	1280.300000
2656.189962	1264.000000
2657.596596	1272.900000
2659.002985	1262.600000
2660.407540	1268.700000
2661.813439	1268.400000
2663.217505	1240.600000
2664.621326	1273.100000
2666.024904	1279.300000
2667.426649	1274.400000
2668.829738	1269.700000
2670.229409	1259.300000
2671.630424	1257.400000
2673.028023	1255.300000
2674.428552	1271.500000
2675.825666	1285.000000
2677.224123	1274.900000
2678.620752	1289.100000
2680.017139	1265.300000
2681.413285	1285.600000
2682.807604	1279.400000
2684.203266	1263.500000
2685.595518	1259.400000
2686.989114	1240.000000
2688.380885	1255.700000
2689.773998	1234.300000
2691.165288	1234.300000
2692.554755	1253.700000
2693.943982	1267.800000
2695.332970	1253.000000
2696.723300	1276.900000
2698.108645	1222.400000
2699.496914	1251.600000
2700.883363	1229.200000
2702.269573	1233.000000
2703.655545	1251.800000
2705.038117	1262.200000
2706.422032	1202.200000
2707.805709	1223.600000
2709.189148	1259.200000
2710.569191	1207.500000
2711.950576	1226.700000
2713.330145	1191.500000
2714.711056	1205.000000
2716.090151	1207.600000
2717.467433	1204.000000
2718.846056	1203.800000
2720.222866	1206.300000
2721.599440	1232.500000
2722.975778	1226.600000
2724.350304	1226.500000
2725.726171	1206.100000
2727.098651	1215.000000
2728.474047	1233.600000
2729.844483	1191.000000
2731.216260	1215.500000
2732.587802	1216.800000
2733.957536	1195.000000
2735.328611	1209.200000
2736.697877	1230.200000
2738.066911	1221.600000
2739.434137	1230.600000
2740.801131	1201.700000
2742.167892	1195.300000
2743.534420	1223.500000
2744.899143	1224.300000
2746.263635	1227.900000
2747.627894	1223.500000
2748.991921	1220.000000
2750.355717	1207.100000
2751.716139	1249.100000
2753.079472	1188.800000
2754.437862	1241.400000
2755.799162	1225.000000
2757.157091	1220.200000
2758.517930	1184.900000
2759.876968	1194.300000
2761.232638	1168.300000
2762.591216	1190.400000
2763.946428	1193.600000
2765.301410	1197.300000
2766.654595	1192.800000
2768.010687	1189.800000
2769.363415	1196.400000
2770.715914	1186.900000
2772.068185	1203.100000
2773.421795	1186.900000
2774.772043	1192.800000
2776.120498	1192.200000
2777.471857	1174.600000
2778.819857	1172.500000
2780.169196	1170.400000
2781.516742	1213.800000
2782.864061	1162.600000
2784.211154	1194.100000
2785.556456	1149.900000
2786.901532	1163.800000
2788.246382	1171.900000
2789.591005	1193.900000
2790.932277	1155.300000
2792.274887	1179.300000
2793.617271	1153.500000
2794.959431	1148.000000
2796.298241	1164.200000
2797.639950	1167.000000
2798.978312	1177.300000
2800.318011	1164.700000
2801.655924	1168.100000
2802.992053	1178.900000
2804.327958	1152.500000
2805.665201	1192.700000
2807.000660	1190.100000
2808.335896	1183.300000
2809.669349	1188.800000
2811.004140	1170.000000
2812.335589	1143.700000
2813.669934	1163.700000
2814.999381	1198.900000
2816.330165	1176.000000
2817.660727	1159.600000
2818.989510	1182.200000
2820.319629	1164.700000
2821.647970	1169.200000
2822.976090	1168.600000
2824.302432	1156.500000
2825.630111	1163.900000
2826.954457	1182.700000
2828.280138	1152.700000
2829.604044	1158.100000
2830.927731	1160.100000
2832.252753	1114.600000
2833.574445	1118.200000
2834.895919	1134.400000
2836.217174	1134.800000
2837.538210	1138.400000
2838.857474	1148.900000
2840.178073	1149.500000
2841.496900	1135.800000
2842.815509	1159.500000
2844.132347	1121.500000
2845.448968	1167.300000
2846.765372	1113.100000
2848.080007	1143.100000
2849.395976	1148.900000
2850.708625	1161.200000
2852.022610	1157.800000
2853.336377	1135.200000
2854.649929	1154.700000
2855.961713	1146.100000
2857.271731	1133.800000
2858.583084	1130.400000
2859.891122	1131.800000
2861.200495	1153.500000
2862.509652	1134.500000
2863.818594	1124.500000
2865.125773	1154.800000
2866.431188	1157.400000
2867.737938	1141.500000
2869.042925	1163.700000
2870.347699	1162.000000
2871.650711	1154.200000
2872.956605	1141.800000
2874.257643	1143.100000
2875.560016	1136.200000
2876.860629	1134.600000
2878.162576	1140.200000
2879.464310	1174.900000
2880.762739	1140.700000
2882.062503	1134.900000
2883.360508	1130.700000
2884.658302	1141.300000
2885.954340	1123.600000
2887.251711	1138.100000
2888.547326	1161.300000
2889.842730	1151.100000
2891.137924	1124.700000
2892.429819	1135.900000
2893.724591	1131.100000
2895.016066	1128.100000
2896.308874	1142.800000
2897.601472	1133.700000
2898.890776	1140.600000
2900.181412	1144.100000
2901.470297	1147.900000
2902.760515	1133.100000
2904.047440	1132.200000
2905.335699	1171.000000
2906.622207	1129.500000
2907.908508	1135.500000
2909.194600	1105.500000
2910.478944	1125.500000
2911.766160	1133.800000
2913.048548	1119.800000
2914.332269	1110.100000
2915.614244	1132.800000
2916.896012	1131.000000
2918.176034	1111.500000
2919.458926	1131.200000
2920.740073	1094.800000
2922.017938	1107.400000
2923.298672	1131.400000
2924.576125	1122.100000
2925.853372	1130.800000
2927.128878	1092.700000
2928.407251	1128.700000
2929.680809	1092.600000
2930.957235	1127.700000
2932.231920	1139.100000
2933.504865	1120.100000
2934.779140	1140.000000
2936.051676	1118.700000
2937.324008	1108.900000
2938.593066	1096.200000
2939.864990	1098.500000
2941.135176	1148.100000
2942.405159	1126.200000
2943.674938	1131.800000
2944.942980	1130.800000
2946.209287	1112.600000
2947.475391	1112.200000
2948.742825	1133.600000
2950.008525	1112.500000
2951.274022	1110.200000
2952.539317	1102.900000
2953.801347	1118.200000
2955.064708	1105.900000
2956.327866	1103.200000
2957.589293	1097.600000
2958.852049	1092.200000
2960.113074	1092.000000
2961.372367	1091.700000
2962.631461	1125.700000
2963.890354	1118.400000
2965.149047	1106.000000
2966.407540	1093.800000
2967.664304	1122.000000
2968.920868	1109.400000
2970.175705	1106.400000
2971.431871	1131.300000
2972.684781	1114.700000
2973.939021	1124.200000
2975.193062	1093.200000
2976.445377	1085.400000
2977.697494	1122.100000
2978.947886	1129.400000
2980.201133	1104.300000
2981.449603	1095.300000
2982.700927	1106.300000
2983.949003	1118.300000
2985.196881	1100.400000
2986.444562	1121.100000
2987.692047	1090.200000
2988.937810	1096.300000
2990.183376	1108.300000
2991.430270	1081.000000
2992.673920	1090.700000
2993.918898	1088.100000
2995.160633	1123.200000
2996.405218	1106.400000
2997.648085	1107.000000
2998.887711	1097.700000
3000.130187	1077.700000
3001.369424	1097.800000
3002.609988	1075.900000
3003.848835	1079.100000
3005.087488	1070.500000
3006.324425	1079.000000
3007.562689	1071.700000
3008.799239	1080.000000
3010.035594	1068.700000
3011.271756	1113.800000
3012.506205	1112.300000
3013.740460	1081.600000
3014.974522	1055.500000
3016.206872	1097.900000
3017.437510	1096.200000
3018.670994	1059.200000
3019.902766	1065.400000
3021.132828	1102.000000
3022.362698	1074.200000
3023.590858	1069.500000
3024.820344	1079.900000
3026.048122	1090.100000
3027.275708	1088.300000
3028.504620	1061.200000
3029.728790	1079.600000
3030.955803	1080.200000
3032.179592	1074.900000
3033.404708	1102.900000
3034.628117	1077.200000
3035.851337	1095.300000
3037.072851	1098.100000
3038.297206	1058.300000
3039.516826	1095.500000
3040.737771	1062.100000
3041.958528	1087.900000
3043.177581	1091.800000
3044.397960	1092.200000
3045.615122	1076.300000
3046.833609	1080.900000
3048.050394	1112.400000
3049.266992	1058.000000
3050.483401	1088.900000
3051.696598	1096.300000
3052.912632	1106.300000
3054.125454	1079.200000
3055.341113	1084.100000
3056.552049	1069.100000
3057.764310	1100.900000
3058.976385	1076.900000
3060.188273	1064.300000
3061.398463	1105.000000
3062.608467	1071.000000
3063.818286	1098.400000
3065.026408	1089.500000
3066.234344	1066.600000
3067.440586	1066.400000
3068.648151	1101.200000
3069.854023	1091.950000
3071.059709	1082.700000
3072.265210	1088.600000
3073.469018	1083.300000
3074.674150	1094.400000
3075.877590	1066.900000
3077.079337	1087.400000
3078.280901	1079.100000
3079.482281	1078.300000
3080.683477	1056.300000
3081.882983	1107.400000
3083.082305	1068.600000
3084.282951	1064.900000
3085.481907	1074.600000
3086.677669	1054.600000
3087.876260	1092.700000
3089.071657	1080.300000
3090.268377	1067.900000
3091.461905	1066.700000
3092.658261	1071.000000
3093.852931	1076.600000
3095.044410	1061.500000
3096.240220	1072.700000
3097.431337	1046.100000
3098.623776	1054.200000
3099.813028	1075.600000
3101.005106	1058.300000
3102.195499	1047.500000
3103.382707	1057.500000
3104.571238	1079.900000
3105.761091	1061.400000
3106.947759	1058.100000
3108.134248	1055.500000
3109.320557	1062.300000
3110.508188	1035.200000
3111.692638	1055.200000
3112.875407	1063.800000
3114.061000	1081.600000
3115.244912	1051.500000
3116.427146	1053.100000
3117.609201	1040.800000
3118.791079	1069.500000
3119.972778	1050.900000
3121.152799	1034.800000
3122.331144	1065.500000
3123.512310	1065.700000
3124.690300	1050.900000
3125.868113	1050.100000
3127.045749	1049.800000
3128.221710	1036.900000
3129.397494	1034.900000
3130.574600	1039.000000
3131.750031	1056.300000
3132.923789	1033.000000
3134.095875	1041.000000
3135.269281	1063.900000
3136.442512	1061.700000
3137.614070	1057.100000
3138.786950	1070.900000
3139.956662	1042.600000
3141.127695	1075.900000
3142.297057	1076.300000
3143.464750	1028.600000
3144.635258	1061.000000
3145.801107	1039.800000
3146.971266	1032.800000
3148.136767	1038.600000
3149.302095	1078.200000
3150.467249	1043.900000
3151.632229	1039.400000
3152.798530	1047.500000
3153.960177	1034.200000
3155.123145	1016.200000
3156.285939	1029.400000
3157.448561	1027.600000
3158.609518	997.500000
3159.770302	1025.200000
3160.930914	1001.600000
3162.089863	1014.700000
3163.248639	993.700000
3164.407244	1021.600000
3165.565677	999.500000
3166.723938	1017.800000
3167.880537	1026.200000
3169.035475	1041.800000
3170.191732	1009.500000
3171.346329	1017.700000
3172.500754	1021.200000
3173.653520	1008.400000
3174.806116	1020.200000
3175.958541	1023.300000
3177.110797	1037.200000
3178.262883	1031.300000
3179.411822	1034.100000
3180.563568	1020.200000
3181.713656	1044.700000
3182.862088	1014.400000
3184.010351	1010.300000
3185.158444	1031.800000
3186.306369	1028.400000
3187.452639	1042.600000
3188.598740	1012.900000
3189.743186	1032.000000
3190.887465	1051.200000
3192.031576	1027.500000
3193.177005	1035.400000
3194.319294	1043.300000
3195.461417	1012.300000
3196.603372	1000.900000
3197.745161	1007.400000
3198.886782	1060.900000
3200.025267	1010.300000
3201.165070	1042.100000
3202.306191	1034.600000
3203.444177	1043.300000
3204.580514	998.200000
3205.716685	1021.800000
3206.854174	1043.800000
3207.990013	1026.900000
3209.127170	1023.300000
3210.259714	1044.700000
3211.396540	1024.200000
3212.528754	1035.900000
3213.662286	1021.300000
3214.795652	1010.400000
3215.925891	1027.800000
3217.058928	1014.000000
3218.188839	1007.600000
3219.320067	1010.300000
3220.448169	965.600000
3221.579068	1002.700000
3222.708324	1017.900000
3223.835935	998.600000
3224.960425	997.600000
3226.089190	995.500000
3227.214833	973.700000
3228.340313	975.200000
3229.464152	996.700000
3230.590785	1008.400000
3231.712821	984.900000
3232.836173	988.900000
3233.959363	986.900000
3235.082391	982.500000
3236.203779	1006.300000
3237.325006	1010.400000
3238.444594	1003.400000
3239.564021	985.600000
3240.681810	993.900000
3241.802392	990.700000
3242.919859	983.000000
3244.037167	1001.500000
3245.154313	1020.400000
3246.269824	1018.300000
3247.386650	1030.800000
3248.500365	1023.600000
3249.616870	1008.500000
3250.731741	1020.600000
3251.843503	1012.300000
3252.955106	1031.200000
3254.068023	1006.600000
3255.180782	1017.100000
3256.290434	1003.100000
3257.401400	1001.400000
3258.512208	1003.300000
3259.621385	983.200000
3260.728930	1009.800000
3261.837790	1019.500000
3262.946491	1019.700000
3264.052090	1006.700000
3265.159003	1021.300000
3266.264288	1011.100000
3267.370886	1021.600000
3268.474384	1030.600000
3269.579196	1031.900000
3270.683851	1010.900000
3271.785407	999.500000
3272.886808	1019.200000
3273.989522	1006.800000
3275.092079	1019.000000
3276.191540	1040.500000
3277.293785	1009.900000
3278.392934	1022.200000
3279.490459	1017.200000
3280.587828	1013.100000
3281.687980	1034.400000
3282.785038	1013.600000
3283.881941	1052.900000
3284.978689	1004.000000
3286.070879	1017.200000
3287.167317	988.500000
3288.262134	976.700000
3289.356795	1007.600000
3290.449835	1010.600000
3291.542721	1002.900000
3292.633986	1011.700000
3293.726564	1008.400000
3294.817521	1023.500000
3295.906859	1002.700000
3296.996044	987.500000
3298.086542	996.100000
3299.173955	993.900000
3300.261216	1003.100000
3301.349789	1029.500000
3302.438209	1009.000000
3303.522082	1008.500000
3304.610197	985.800000
3305.695231	1001.000000
3306.778648	1026.600000
3307.863378	1027.600000
3308.946493	991.600000
3310.030919	1032.200000
3311.112267	991.800000
3312.194927	1004.700000
3313.275973	1012.600000
3314.356868	1032.500000
3315.436150	1006.000000
3316.515281	1018.900000
3317.595723	1033.600000
3318.673092	1025.400000
3319.751771	1007.400000
3320.828840	1017.300000
3321.905758	1027.800000
3322.981065	1020.600000
3324.056223	992.400000
3325.132692	1006.200000
3326.206091	1031.500000
3327.279341	1022.000000
3328.353902	1006.700000
3329.426853	1019.200000
3330.498197	1009.900000
3331.570851	1024.200000
3332.640438	1008.800000
3333.711336	1001.600000
3334.780627	1014.600000
3335.851229	1051.500000
3336.920224	1002.400000
3337.987613	992.100000
3339.053397	998.300000
3340.123407	1010.100000
3341.190354	984.100000
3342.254239	998.600000
3343.320892	997.900000
3344.385940	986.500000
3345.449385	975.000000
3346.512684	1007.400000
3347.575836	968.700000
3348.638842	988.200000
3349.701702	994.300000
3350.762960	999.600000
3351.821161	1011.100000
3352.883583	989.900000
3353.942948	1001.300000
3355.002168	978.700000
3356.062698	987.400000
3357.118718	985.900000
3358.177503	998.400000
3359.231780	1018.100000
3360.288820	1010.200000
3361.344263	976.100000
3362.401014	996.000000
3363.456168	1003.700000
3364.509724	1023.200000
3365.561683	994.500000
3366.616404	997.000000
3367.668076	996.600000
3368.719605	1001.800000
3369.772443	1004.300000
3370.822233	1021.600000
3371.873331	1027.600000
3372.921384	991.100000
3373.972197	1016.900000
3375.019964	1007.700000
3376.067589	1002.400000
3377.115071	999.700000
3378.160961	999.400000
3379.208159	1016.100000
3380.252315	1022.400000
3381.299229	1007.300000
3382.344551	996.500000
3383.386833	1020.900000
3384.428973	1015.500000
3385.472421	998.300000
3386.515729	1004.100000
3387.557446	1013.100000
3388.599022	1000.500000
3389.640458	1003.100000
3390.680304	1003.000000
3391.718563	996.900000
3392.758129	991.900000
3393.797554	997.200000
3394.835392	999.600000
3395.871643	993.400000
3396.907755	1014.300000
3397.945174	1007.500000
3398.979560	990.700000
3400.015253	998.000000
3401.050807	1006.700000
3402.083330	1008.300000
3403.118606	1028.900000
3404.150851	1021.300000
3405.182958	1012.600000
3406.213481	1013.500000
3407.245312	1023.800000
3408.277003	1001.200000
3409.305668	1019.000000
3410.334194	1008.200000
3411.364028	1005.000000
3412.393723	1015.000000
3413.420393	997.100000
3414.448370	983.800000
3415.473322	988.400000
3416.501024	986.400000
3417.525703	1004.300000
3418.551688	1005.900000
3419.576093	1025.300000
3420.600362	1006.700000
3421.623052	1001.900000
3422.645606	980.700000
3423.669466	1010.000000
3424.690306	988.400000
3425.711011	980.100000
3426.733021	986.800000
3427.752013	978.900000
3428.770870	988.400000
3429.791032	999.500000
3430.808178	997.200000
