-118.448435	45.000000
-115.778835	52.600000
-113.112170	36.200000
-110.446257	45.200000
-107.783276	47.100000
-105.118866	34.300000
-102.457386	31.000000
-99.794476	51.300000
-97.136674	37.100000
-94.477441	37.100000
-91.818958	33.100000
-89.163398	53.200000
-86.506410	33.900000
-83.854519	36.400000
-81.201199	49.500000
-78.550799	50.800000
-75.898969	44.200000
-73.252230	59.000000
-70.604061	50.800000
-67.956636	51.200000
-65.312124	47.200000
-62.666184	60.900000
-60.025325	43.600000
-57.383037	51.300000
-54.743657	33.800000
-52.102849	40.300000
-49.462781	29.900000
-46.827785	51.600000
-44.191360	44.400000
-41.557839	48.900000
-38.922889	42.400000
-36.293004	58.200000
-33.659527	58.600000
-31.031112	67.600000
-28.403430	63.800000
-25.774321	48.000000
-23.150268	62.900000
-20.522626	74.800000
-17.900037	74.200000
-15.278180	107.200000
-12.657053	132.200000
-10.036656	245.300000
-7.419147	728.400000
-4.800210	2134.800000
-2.184159	4965.400000
0.431164	6127.800000
3.045760	3221.700000
5.657473	535.200000
8.270615	93.000000
10.878723	98.500000
13.490413	56.900000
16.097072	85.700000
18.705159	74.000000
21.312522	74.300000
23.914860	73.300000
26.520776	60.100000
29.121670	76.400000
31.723992	88.500000
34.321297	62.300000
36.922177	63.500000
39.518043	55.400000
42.115336	72.000000
44.711910	65.800000
47.303475	58.400000
49.896468	70.000000
52.486600	94.700000
55.078160	72.500000
57.666860	78.300000
60.256987	76.900000
62.842116	71.900000
65.428671	75.000000
68.014513	70.700000
70.597501	77.500000
73.181915	113.800000
75.759201	81.700000
78.340053	109.900000
80.918056	88.800000
83.495349	99.600000
86.074068	104.700000
88.647806	116.900000
91.222970	116.800000
93.795291	147.600000
96.366904	124.900000
98.935677	132.800000
101.505877	151.700000
104.073239	180.100000
106.642026	174.000000
109.207977	229.800000
111.771093	247.300000
114.337765	340.800000
116.895216	421.400000
119.458352	578.100000
122.016529	799.900000
124.578259	1159.100000
127.135034	1776.200000
129.693234	2679.700000
132.246482	3968.200000
134.799031	5737.900000
137.355131	8180.000000
139.906284	10944.400000
142.456738	13701.600000
145.006496	15697.600000
147.553434	17452.800000
150.099676	18353.800000
152.647344	18882.400000
155.194317	19071.500000
157.736353	19053.900000
160.277696	18868.100000
162.818346	18940.800000
165.360422	18771.200000
167.899687	18813.000000
170.436142	18579.500000
172.971907	18654.800000
175.509097	18486.500000
178.045595	18427.100000
180.579288	18519.800000
183.110178	18354.100000
185.640379	18319.300000
188.172005	18110.700000
190.700830	18149.000000
193.226856	18197.700000
195.752197	18138.500000
198.278962	18064.500000
200.802930	18147.900000
203.326214	17961.200000
205.848813	18045.100000
208.368619	17968.400000
210.887742	17935.000000
213.406182	17879.700000
215.926046	17967.400000
218.438909	17930.500000
220.955303	17932.600000
223.471015	18041.300000
225.981838	17986.800000
228.494085	18104.600000
231.003549	18108.600000
233.512335	18151.200000
236.020443	18195.300000
238.529974	18299.000000
241.034625	18398.300000
243.538601	18299.300000
246.044000	18417.800000
248.544524	18375.000000
251.048571	18537.500000
253.545648	18500.500000
256.046247	18607.900000
258.544075	18563.100000
261.041230	18544.500000
263.537712	18597.100000
266.029331	18583.900000
268.524470	18518.200000
271.016843	18491.300000
273.508545	18532.500000
275.997483	18537.200000
278.487846	18531.300000
280.975447	18480.400000
283.460288	18513.800000
285.948643	18499.600000
288.430059	18468.800000
290.914989	18482.600000
293.395074	18625.000000
295.878671	18451.400000
298.357425	18570.200000
300.837603	18720.900000
303.315028	18643.900000
305.791790	18517.900000
308.267889	18542.900000
310.741239	18580.200000
313.213927	18572.800000
315.685954	18543.900000
318.157320	18744.800000
320.625942	18861.500000
323.093904	18934.700000
325.563289	18659.500000
328.027850	18651.400000
330.495916	18642.900000
332.959162	18558.800000
335.421750	18550.400000
337.883682	18534.400000
340.344957	18499.000000
342.803498	18450.600000
345.263461	18348.100000
347.720691	18266.000000
350.177267	18211.700000
352.633189	18052.600000
355.086382	17793.800000
357.540996	17802.700000
359.990809	17769.600000
362.444119	17644.800000
364.892629	17356.600000
367.340489	17269.500000
369.789770	17219.500000
372.234258	17051.400000
374.680168	16839.000000
377.125429	16565.000000
379.567970	16671.000000
382.009864	16531.500000
384.451111	16447.700000
386.889642	16260.900000
389.329595	16046.500000
391.766834	16043.300000
394.201361	15792.500000
396.639376	15743.600000
399.072614	15706.200000
401.507274	15481.600000
403.937160	15490.800000
406.370532	15381.300000
408.799134	15462.700000
411.227095	15146.800000
413.656476	15236.300000
416.081092	15171.800000
418.507130	15099.400000
420.932527	14968.900000
423.357284	15103.600000
425.777283	14983.800000
428.198703	15086.000000
430.617426	14993.700000
433.037570	14978.300000
435.455019	14924.700000
437.873888	14902.400000
440.290064	14836.900000
442.701493	14878.900000
445.116398	14852.400000
447.528613	14821.500000
449.940194	14819.700000
452.351141	14865.000000
454.759402	14755.900000
457.167030	14733.700000
459.574027	14761.700000
461.980391	14721.400000
464.384073	14706.800000
466.787125	14678.900000
469.189547	14671.300000
471.591340	14573.500000
473.990454	14558.000000
476.390988	14554.700000
478.790893	14485.000000
481.186075	14403.000000
483.584724	14452.700000
485.978653	14314.400000
488.371956	14340.300000
490.764633	14208.800000
493.156685	14333.800000
495.550156	14141.700000
497.938914	14144.000000
500.325006	14181.500000
502.712518	14000.800000
505.099406	13985.100000
507.483631	14031.800000
509.869275	14039.300000
512.252256	13939.500000
514.632577	13909.000000
517.014317	13966.900000
519.393398	13981.300000
521.773898	13920.100000
524.151740	13863.600000
526.526927	13899.100000
528.901496	13891.500000
531.277484	13839.900000
533.650818	13755.700000
536.025570	13672.000000
538.395637	13490.100000
540.765088	13583.100000
543.135957	13443.600000
545.502146	13198.800000
547.869753	13290.700000
550.234714	13012.400000
552.599062	12920.400000
554.962798	12773.300000
557.327951	12770.400000
559.688431	12526.700000
562.050330	12542.800000
564.409589	12218.600000
566.766209	12171.700000
569.126274	12029.800000
571.479649	11895.100000
573.836468	11854.900000
576.190651	11629.000000
578.544227	11459.800000
580.897194	11300.300000
583.247530	11187.700000
585.599282	11073.100000
587.944358	10910.300000
590.294898	10789.300000
592.638765	10732.200000
594.988092	10600.100000
597.332772	10566.900000
599.674826	10497.700000
602.018298	10406.000000
604.359147	10410.100000
606.699394	10342.000000
609.037020	10342.900000
611.378081	10179.100000
613.714504	10279.400000
616.052345	10235.800000
618.387567	10321.700000
620.720174	10269.600000
623.054197	10352.400000
625.385607	10277.800000
627.716418	10306.500000
630.046631	10289.100000
632.376246	10277.900000
634.701239	10278.300000
637.031673	10340.200000
639.357485	10237.400000
641.680691	10288.500000
644.005312	10228.900000
646.327329	10225.900000
648.648751	10168.400000
650.967570	10246.200000
653.287805	10316.500000
655.607447	10245.700000
657.924488	10357.900000
660.240937	10350.000000
662.554788	10424.400000
664.870055	10447.300000
667.182725	10594.100000
669.496810	10529.900000
671.806295	10715.600000
674.117196	10716.100000
676.425504	10727.700000
678.733224	10822.400000
681.042359	10965.300000
683.346901	11094.800000
685.650856	11079.400000
687.954226	11202.200000
690.259010	11288.900000
692.559208	11339.900000
694.860820	11484.300000
697.161848	11457.400000
699.458293	11554.500000
701.756154	11654.200000
704.053431	11661.600000
706.350125	11714.600000
708.642243	11794.300000
710.937772	11940.600000
713.228728	12061.900000
715.521098	12149.700000
717.810892	12111.900000
720.100107	12156.000000
722.388741	12259.900000
724.674804	12372.700000
726.962280	12469.200000
729.247186	12401.900000
731.531513	12639.200000
733.813272	12696.600000
736.096445	12772.400000
738.379041	12736.000000
740.657082	12978.700000
742.936536	12958.400000
745.215415	13084.700000
747.493718	13234.400000
749.767472	13384.200000
752.042640	13515.200000
754.317234	13561.000000
756.589268	13546.200000
758.862716	13766.100000
761.133606	13839.100000
763.401940	13895.100000
765.671687	13987.300000
767.938880	13974.500000
770.205502	14151.000000
772.471555	14320.400000
774.735055	14289.700000
776.999969	14377.600000
779.264313	14588.900000
781.524128	14568.900000
783.785356	14603.500000
786.046015	14752.300000
788.304129	14921.900000
790.559698	14906.900000
792.818658	14896.300000
795.071119	15021.700000
797.328947	15056.000000
799.582255	15038.400000
801.833024	15243.200000
804.085205	15135.200000
806.334848	15328.300000
808.585902	15396.500000
810.832445	15290.000000
813.080400	15408.500000
815.325821	15462.300000
817.572653	15397.200000
819.818924	15454.000000
822.060691	15600.500000
824.305840	15634.500000
826.544517	15681.400000
828.786577	15736.000000
831.024138	15836.000000
833.263110	15937.200000
835.499556	15921.600000
837.737413	15989.300000
839.972745	15998.200000
842.205554	16247.500000
844.439774	16223.200000
846.671472	16417.200000
848.902615	16544.700000
851.133203	16756.000000
853.363236	16921.400000
855.592716	17009.000000
857.817714	17266.500000
860.046087	17512.500000
862.269981	17692.400000
864.495285	18018.700000
866.716114	18349.800000
868.940315	18501.800000
871.160043	18761.400000
873.381182	18944.400000
875.601770	19390.800000
877.819848	19727.800000
880.039337	20011.300000
882.254359	20139.900000
884.468833	20367.200000
886.682760	20789.600000
888.896139	20870.200000
891.108971	20872.800000
893.321257	21021.300000
895.531040	21317.700000
897.740278	21133.400000
899.948971	21252.700000
902.155165	21161.800000
904.362768	21045.400000
906.567874	20839.100000
908.772436	20720.800000
910.974502	20595.200000
913.177978	20174.500000
915.378960	19843.500000
917.579401	19410.700000
919.781249	19164.300000
921.976707	18776.100000
924.175524	18368.000000
926.369902	18038.100000
928.567638	17532.100000
930.760938	17228.600000
932.955647	16890.200000
935.147870	16503.000000
937.339555	16354.900000
939.530702	15996.500000
941.719366	15848.100000
943.907493	15725.200000
946.093140	15465.000000
948.282139	15486.500000
950.466715	15426.300000
952.650756	15457.900000
954.838147	15320.600000
957.017234	15376.700000
959.199672	15362.000000
961.381576	15404.900000
963.561006	15492.900000
965.737963	15339.000000
967.916327	15438.200000
970.096099	15454.100000
972.269522	15278.900000
974.446291	15241.700000
976.618653	15110.600000
978.792423	15077.500000
980.961789	14838.500000
983.134500	14822.000000
985.304744	14607.300000
987.474460	14382.800000
989.643647	14171.900000
991.808437	14003.000000
993.976568	13832.900000
996.140305	13555.100000
998.305448	13456.100000
1000.468133	13341.800000
1002.630291	13058.300000
1004.789993	12942.100000
1006.949171	12637.500000
1009.109755	12475.000000
1011.267884	12286.800000
1013.425489	12250.100000
1015.582571	11896.500000
1017.739130	11863.900000
1019.891309	11759.900000
1022.044894	11485.200000
1024.197958	11469.700000
1026.348574	11307.900000
1028.500595	11158.000000
1030.648243	11104.500000
1032.799223	10987.600000
1034.945832	10873.600000
1037.091923	10758.700000
1039.237494	10696.800000
1041.384471	10578.700000
1043.525159	10579.500000
1045.669177	10375.700000
1047.810754	10388.800000
1049.951815	10222.800000
1052.094280	10195.700000
1054.230466	10165.700000
1056.369978	10152.800000
1058.505134	10021.700000
1060.643615	9995.900000
1062.777742	9864.900000
1064.911356	9793.600000
1067.046375	9662.000000
1069.177044	9726.400000
1071.309118	9632.600000
1073.438763	9570.100000
1075.567896	9415.400000
1077.696517	9320.900000
1079.824627	9289.300000
1081.950311	9220.100000
1084.075485	9112.200000
1086.202063	9049.100000
1088.324304	8887.700000
1090.447948	8890.300000
1092.567259	8757.700000
1094.691798	8646.400000
1096.810092	8590.900000
1098.929791	8545.700000
1101.047071	8413.900000
1103.163845	8254.300000
1105.280112	8210.400000
1107.393964	8089.700000
1109.509219	7927.500000
1111.620152	7901.400000
1113.734396	7786.100000
1115.844320	7724.200000
1117.955648	7552.000000
1120.066471	7484.600000
1122.172979	7353.800000
1124.282795	7348.400000
1126.388297	7194.800000
1128.495202	7169.000000
1130.595892	7036.300000
1132.701794	6942.300000
1134.803387	6865.400000
1136.906383	6878.600000
1139.008878	6748.400000
1141.105166	6612.200000
1143.206662	6533.800000
1145.303855	6537.500000
1147.400549	6368.100000
1149.496745	6369.700000
1151.592444	6359.100000
1153.687645	6229.300000
1155.780449	6160.400000
1157.874655	6116.300000
1159.962670	6003.400000
1162.055883	5940.400000
1164.142908	5926.800000
1166.233232	5843.200000
1168.319269	5817.200000
1170.408603	5743.100000
1172.491756	5732.800000
1174.576311	5678.900000
1176.662268	5569.900000
1178.743943	5579.400000
1180.827020	5499.600000
1182.907711	5522.000000
1184.987910	5381.100000
1187.067618	5395.300000
1189.146835	5387.400000
1191.223670	5325.800000
1193.298124	5315.100000
1195.375870	5289.000000
1197.449345	5234.600000
1199.524221	5285.700000
1201.594830	5184.500000
1203.666841	5131.900000
1205.736475	5269.900000
1207.807510	5120.700000
1209.878057	5127.900000
1211.944343	5127.700000
1214.012030	5129.800000
1216.077345	5052.400000
1218.144060	5014.400000
1220.206519	5070.800000
1222.272263	5050.000000
1224.333754	5054.700000
1226.396644	5046.300000
1228.457167	4966.200000
1230.517206	4970.700000
1232.576763	4995.600000
1234.633954	5051.400000
1236.690664	5016.800000
1238.745011	4989.400000
1240.802638	4972.300000
1242.857903	4965.200000
1244.908927	4969.100000
1246.961351	4970.300000
1249.013295	4917.800000
1251.062881	4899.800000
1253.111988	4968.500000
1255.160617	4905.800000
1257.208767	4953.100000
1259.256439	4945.100000
1261.299880	4959.800000
1263.346596	4878.100000
1265.390959	4958.300000
1267.434846	4899.000000
1269.476382	4895.800000
1271.515567	4879.500000
1273.558026	4857.500000
1275.596262	4925.000000
1277.635897	4904.400000
1279.675057	4858.200000
1281.709998	4899.200000
1283.746339	4875.400000
1285.780334	4922.200000
1287.815728	4880.600000
1289.846908	4859.400000
1291.879487	4925.200000
1293.911593	4892.900000
1295.941359	4889.100000
1297.972523	4914.700000
1299.999479	4889.200000
1302.027833	4934.000000
1304.051983	4919.200000
1306.079397	4913.100000
1308.102609	4866.400000
1310.127219	4908.100000
1312.149495	4910.800000
1314.173168	4902.000000
1316.194508	4903.800000
1318.215380	4928.800000
1320.235786	4939.400000
1322.251997	4909.400000
1324.269606	4827.500000
1326.284888	4892.100000
1328.303427	4908.800000
1330.317778	4906.100000
1332.329803	4902.800000
1334.345085	4991.900000
1336.356182	4977.800000
1338.368676	4855.800000
1340.376987	4947.500000
1342.388554	4889.400000
1344.394081	4871.700000
1346.402864	4913.200000
1348.407469	4915.500000
1350.415328	4924.200000
1352.422725	4963.400000
1354.424091	4889.200000
1356.426854	4905.100000
1358.429156	4972.900000
1360.430999	4957.500000
1362.432382	4983.100000
1364.431452	4916.200000
1366.430063	4936.900000
1368.428216	4902.500000
1370.425911	4912.800000
1372.419442	4888.000000
1374.414370	4942.500000
1376.408841	4900.900000
1378.402855	4906.800000
1380.394561	4956.700000
1382.385813	4926.500000
1384.374759	4899.000000
1386.365100	4893.500000
1388.354986	4875.900000
1390.342569	4902.200000
1392.329697	4886.100000
1394.314525	4954.400000
1396.300746	4927.200000
1398.284668	4865.000000
1400.268137	4905.900000
1402.251154	4900.800000
1404.231872	4916.300000
1406.213986	4862.900000
1408.193802	4900.100000
1410.173168	4847.900000
1412.148394	4870.000000
1414.126860	4889.900000
1416.103031	4887.100000
1418.078754	4870.900000
1420.054027	4831.500000
1422.027009	4822.900000
1423.999543	4873.800000
1425.971630	4844.500000
1427.943268	4843.600000
1429.910778	4866.300000
1431.883363	4823.400000
1433.848141	4854.100000
1435.817991	4808.600000
1437.783718	4766.400000
1439.750837	4763.000000
1441.715673	4742.400000
1443.676390	4734.900000
1445.642174	4748.100000
1447.602003	4737.300000
1449.563225	4744.300000
1451.525840	4755.300000
1453.484340	4725.700000
1455.442398	4702.700000
1457.400013	4761.700000
1459.357187	4694.200000
1461.312085	4698.200000
1463.268375	4685.600000
1465.222391	4656.500000
1467.175967	4686.300000
1469.127270	4657.100000
1471.079965	4696.900000
1473.030389	4618.000000
1474.980373	4606.900000
1476.929919	4659.600000
1478.877196	4632.900000
1480.822206	4621.900000
1482.768607	4641.500000
1484.714572	4568.500000
1486.660098	4637.700000
1488.603360	4566.800000
1490.546185	4625.100000
1492.486747	4622.700000
1494.428700	4576.200000
1496.368392	4628.900000
1498.307648	4512.000000
1500.246469	4559.900000
1502.183031	4568.700000
1504.120984	4575.000000
1506.056679	4515.900000
1507.991939	4571.400000
1509.924944	4489.500000
1511.857516	4515.600000
1513.789656	4566.000000
1515.721364	4551.200000
1517.650818	4527.600000
1519.581663	4501.000000
1521.512077	4489.900000
1523.438417	4529.100000
1525.366149	4506.900000
1527.291630	4529.100000
1529.216682	4488.600000
1531.141305	4510.000000
1533.065499	4455.200000
1534.987446	4508.900000
1536.910782	4462.800000
1538.831873	4438.100000
1540.750719	4472.300000
1542.670955	4537.400000
1544.588947	4434.400000
1546.506513	4468.900000
1548.421837	4505.400000
1550.338551	4528.800000
1552.251210	4446.500000
1554.167073	4471.400000
1556.080696	4479.800000
1557.992082	4443.200000
1559.904856	4462.800000
1561.813581	4458.100000
1563.723696	4482.700000
1565.633387	4436.200000
1567.542654	4436.700000
1569.449688	4411.100000
1571.354489	4446.700000
1573.260679	4435.600000
1575.164637	4427.300000
1577.068175	4396.400000
1578.971291	4436.800000
1580.872179	4500.200000
1582.774454	4443.000000
1584.674502	4424.300000
1586.575937	4449.300000
1588.473339	4389.300000
1590.370322	4435.200000
1592.266887	4391.500000
1594.164840	4380.200000
1596.056958	4415.100000
1597.952269	4388.200000
1599.847163	4465.800000
1601.739835	4415.200000
1603.632091	4419.000000
1605.522126	4405.900000
1607.411747	4390.700000
1609.300951	4370.000000
1611.189741	4367.100000
1613.076314	4351.100000
1614.964273	4435.400000
1616.848216	4400.600000
1618.733547	4376.200000
1620.618463	4386.400000
1622.501166	4391.200000
1624.385256	4379.600000
1626.265335	4362.200000
1628.146800	4372.700000
1630.026055	4369.400000
1631.906696	4343.900000
1633.781533	4440.500000
1635.661352	4384.700000
1637.537165	4366.200000
1639.412568	4374.500000
1641.289358	4309.300000
1643.160350	4325.100000
1645.034524	4370.500000
1646.904700	4330.100000
1648.778056	4325.600000
1650.649209	4346.800000
1652.518160	4384.500000
1654.388497	4322.000000
1656.254840	4282.500000
1658.122569	4282.300000
1659.988100	4305.600000
1661.855015	4298.400000
1663.717942	4265.300000
1665.582254	4260.400000
1667.444370	4326.300000
1669.306082	4296.100000
1671.169178	4245.100000
1673.030080	4258.300000
1674.888788	4252.100000
1676.747093	4240.500000
1678.606783	4302.200000
1680.460706	4237.200000
1682.317801	4222.700000
1684.174494	4180.900000
1686.027211	4254.100000
1687.883098	4231.400000
1689.735012	4236.600000
1691.586525	4196.500000
1693.437637	4175.300000
1695.288349	4195.800000
1697.138660	4206.200000
1698.986787	4260.200000
1700.836297	4236.900000
1702.680059	4153.100000
1704.528770	4208.500000
1706.371736	4190.400000
1708.217867	4169.600000
1710.060037	4112.600000
1711.905371	4207.600000
1713.744965	4180.600000
1715.585943	4135.500000
1717.428304	4189.200000
1719.266709	4143.000000
1721.106497	4112.100000
1722.944110	4157.700000
1724.781327	4117.700000
1726.616371	4126.800000
1728.452798	4139.500000
1730.287053	4150.000000
1732.120913	4096.000000
1733.954380	4151.000000
1735.783900	4129.400000
1737.616579	4118.600000
1739.445314	4065.700000
1741.277207	4119.600000
1743.105157	4070.900000
1744.932715	4117.000000
1746.759881	4087.100000
1748.586656	4106.000000
1750.413040	4075.300000
1752.235487	4127.100000
1754.061088	4064.000000
1755.882755	4121.600000
1757.705804	4104.000000
1759.526692	4104.500000
1761.347190	4138.000000
1763.169070	4059.600000
1764.985250	4092.900000
1766.804582	4062.600000
1768.619987	4087.200000
1770.438542	4058.600000
1772.253172	4083.800000
1774.067416	4101.200000
1775.881272	4061.000000
1777.694742	4094.700000
1779.506059	4069.900000
1781.318757	4062.500000
1783.131068	4029.700000
1784.939462	4060.600000
1786.749237	4023.100000
1788.555096	4046.800000
1790.364101	4049.500000
1792.169193	4062.900000
1793.975666	4037.600000
1795.781755	4044.400000
1797.583934	4010.500000
1799.389256	4049.800000
1801.190670	4037.800000
1802.993464	4058.300000
1804.792352	3999.400000
1806.592621	4079.700000
1808.392508	4016.800000
1810.190254	4056.400000
1811.987618	3998.800000
1813.784603	3954.900000
1815.581207	3984.000000
1817.375672	3996.400000
1819.171516	3975.900000
1820.961706	4011.800000
1822.756792	3942.800000
1824.546225	4024.400000
1826.338795	4006.000000
1828.129230	3914.000000
1829.917531	3971.900000
1831.708967	4018.700000
1833.494757	3945.800000
1835.281927	3979.600000
1837.066965	3965.000000
1838.855137	3959.100000
1840.639423	3951.400000
1842.421580	3948.700000
1844.205115	3940.400000
1845.986522	3960.600000
1847.769308	3970.500000
1849.548214	3980.900000
1851.328498	3953.300000
1853.106656	3919.000000
1854.886193	3955.200000
1856.663605	3979.100000
1858.438893	3942.400000
1860.215560	3945.100000
1861.990103	3972.600000
1863.766025	3910.000000
1865.536326	3912.600000
1867.309755	3991.100000
1869.081064	3917.500000
1870.852003	4020.200000
1872.624318	3891.800000
1874.391020	3943.000000
1876.160848	3951.300000
1877.926812	3915.600000
1879.695900	3971.000000
1881.461126	3943.800000
1883.225983	3897.700000
1884.992218	3893.700000
1886.754594	3874.600000
1888.516603	3903.800000
1890.278244	3924.300000
1892.039519	3888.400000
1893.800426	3872.500000
1895.560967	3890.700000
1897.319398	3861.000000
1899.077464	3868.800000
1900.833421	3840.900000
1902.590756	3866.700000
1904.347724	3868.700000
1906.102587	3850.800000
1907.855344	3830.900000
1909.607738	3833.300000
1911.361507	3808.100000
1913.113173	3840.000000
1914.862737	3844.500000
1916.613677	3824.500000
1918.364253	3816.800000
1920.110990	3867.200000
1921.859104	3812.500000
1923.605118	3839.200000
1925.352508	3873.000000
1927.097799	3855.200000
1928.840993	3859.400000
1930.585563	3828.700000
1932.328036	3814.300000
1934.070149	3809.500000
1935.811902	3820.000000
1937.553296	3869.800000
1939.292596	3842.400000
1941.031536	3826.000000
1942.770119	3833.700000
1944.506609	3800.600000
1946.242742	3805.450000
1947.980249	3810.300000
1949.713934	3823.100000
1951.448994	3854.800000
1953.181966	3830.000000
1954.914581	3819.100000
1956.646839	3820.600000
1958.378741	3857.200000
1960.108557	3796.800000
1961.836289	3835.900000
1963.565394	3793.800000
1965.294145	3837.000000
1967.020812	3777.800000
1968.747125	3864.800000
1970.474811	3859.700000
1972.196961	3831.800000
1973.922212	3817.300000
1975.643657	3808.000000
1977.368201	3807.500000
1979.090666	3821.100000
1980.809327	3824.900000
1982.531087	3860.100000
1984.249045	3784.200000
1985.968376	3822.300000
1987.683908	3824.500000
1989.404261	3836.100000
1991.120814	3793.500000
1992.833571	3807.300000
1994.549425	3793.800000
1996.263205	3816.300000
1997.976636	3813.300000
1999.687996	3807.200000
2001.400729	3842.000000
2003.109670	3807.900000
2004.821705	3844.100000
2006.528230	3798.100000
2008.237848	3820.300000
2009.945398	3764.100000
2011.652601	3766.700000
2013.357738	3768.200000
2015.062528	3782.500000
2016.768690	3794.500000
2018.471070	3775.300000
2020.174822	3827.900000
2021.876510	3703.300000
2023.577854	3798.100000
2025.278852	3760.000000
2026.977790	3796.400000
2028.678098	3754.400000
2030.374632	3767.100000
2032.072537	3850.700000
2033.768383	3812.500000
2035.467315	3763.000000
2037.160761	3765.700000
2038.855579	3789.300000
2040.550053	3809.900000
2042.240759	3779.300000
2043.934549	3801.800000
2045.624572	3771.400000
2047.315966	3764.300000
2049.005307	3784.200000
2050.696018	3750.200000
2052.382966	3752.200000
2054.069575	3722.500000
2055.757554	3730.100000
2057.441773	3705.300000
2059.127362	3678.400000
2060.812612	3691.300000
2062.495814	3714.300000
2064.180385	3718.200000
2065.859494	3675.500000
2067.543388	3695.200000
2069.221822	3683.100000
2070.903332	3667.800000
2072.581092	3652.700000
2074.258514	3706.100000
2075.937306	3651.600000
2077.614056	3713.000000
2079.288764	3677.400000
2080.964841	3712.600000
2082.638878	3666.500000
2084.312579	3655.100000
2085.985945	3635.000000
2087.657273	3695.500000
2089.328266	3681.300000
2090.998925	3641.600000
2092.669249	3676.100000
2094.339240	3666.400000
2096.007195	3616.500000
2097.674817	3648.300000
2099.340404	3643.400000
2101.007361	3679.700000
2102.672283	3660.200000
2104.336874	3691.800000
2105.999433	3663.300000
2107.663360	3710.600000
2109.325257	3666.900000
2110.986822	3720.300000
2112.648056	3676.600000
2114.307262	3682.800000
2115.966137	3696.900000
2117.624683	3729.700000
2119.282899	3673.700000
2120.937391	3687.400000
2122.594948	3633.600000
2124.252176	3717.500000
2125.905682	3642.200000
2127.560556	3692.500000
2129.211712	3690.600000
2130.865929	3696.600000
2132.516430	3667.100000
2134.168297	3700.700000
2135.814756	3614.600000
2137.465970	3668.900000
2139.113470	3705.700000
2140.762337	3692.300000
2142.409186	3637.200000
2144.055708	3678.300000
2145.701905	3686.900000
2147.344394	3651.500000
2148.989941	3659.800000
2150.631781	3639.200000
2152.276678	3632.800000
2153.917870	3607.000000
2155.558738	3582.900000
2157.199282	3621.400000
2158.837814	3564.500000
2160.477712	3548.500000
2162.113910	3569.400000
2163.751475	3570.200000
2165.388716	3568.100000
2167.023948	3610.700000
2168.658859	3558.200000
2170.293448	3575.600000
2171.927715	3552.000000
2173.558289	3546.500000
2175.191915	3535.600000
2176.821849	3587.200000
2178.453148	3535.500000
2180.082442	3589.700000
2181.711417	3555.800000
2183.340073	3549.800000
2184.968409	3490.300000
2186.594742	3562.600000
2188.220757	3499.300000
2189.844771	3518.700000
2191.470149	3529.100000
2193.093528	3508.100000
2194.718270	3481.300000
2196.339332	3500.500000
2197.960077	3497.600000
2199.582187	3505.200000
2201.202299	3484.400000
2202.820414	3468.200000
2204.438214	3481.600000
2206.055699	3464.800000
2207.672868	3435.700000
2209.289722	3450.800000
2210.906261	3464.600000
2212.520806	3496.700000
2214.133359	3455.400000
2215.747276	3503.800000
2217.359202	3447.400000
2218.972491	3467.400000
2220.583790	3436.600000
2222.193099	3444.900000
2223.803772	3437.100000
2225.412456	3462.700000
2227.020828	3460.300000
2228.627212	3435.900000
2230.234960	3493.000000
2231.840721	3482.700000
2233.446171	3431.500000
2235.049636	3460.000000
2236.654464	3493.700000
2238.257309	3472.300000
2239.858170	3489.800000
2241.460393	3408.500000
2243.060635	3471.700000
2244.662239	3456.500000
2246.260191	3435.400000
2247.859505	3486.100000
2249.456839	3433.000000
2251.053864	3482.500000
2252.652252	3469.100000
2254.246991	3459.100000
2255.839753	3440.600000
2257.433878	3443.400000
2259.029364	3441.100000
2260.621206	3455.400000
2262.212741	3430.400000
2263.805637	3440.100000
2265.393224	3436.300000
2266.985508	3443.500000
2268.572484	3441.600000
2270.162489	3451.100000
2271.747189	3396.600000
2273.336583	3382.500000
2274.920674	3403.800000
2276.506127	3389.100000
2278.089610	3412.200000
2279.676120	3381.000000
2281.258996	3344.700000
2282.841568	3421.500000
2284.423837	3361.500000
2286.002477	3391.600000
2287.584140	3298.400000
2289.162175	3372.400000
2290.743233	3371.900000
2292.320665	3352.350000
2293.896132	3332.800000
2295.474622	3389.500000
2297.049488	3345.600000
2298.624053	3342.100000
2300.198318	3325.900000
2301.772282	3295.200000
2303.345946	3302.700000
2304.919309	3315.900000
2306.489054	3287.900000
2308.058500	3277.200000
2309.630965	3317.700000
2311.198154	3293.600000
2312.768362	3292.900000
2314.334955	3312.700000
2315.902908	3333.800000
2317.468905	3298.200000
2319.034605	3301.100000
2320.600008	3314.400000
2322.163456	3304.300000
2323.728264	3345.000000
2325.289464	3277.900000
2326.853678	3315.500000
2328.412631	3328.200000
2329.974597	3376.900000
2331.534613	3312.000000
2333.094333	3322.400000
2334.652104	3339.800000
2336.209580	3318.100000
2337.766762	3315.400000
2339.321997	3263.900000
2340.876937	3312.900000
2342.431584	3285.800000
2343.985937	3320.600000
2345.539996	3314.000000
2347.093761	3276.500000
2348.645583	3299.700000
2350.195461	3299.200000
2351.748347	3287.000000
2353.295991	3293.600000
2354.846642	3275.100000
2356.393702	3289.100000
2357.942121	3261.600000
2359.490247	3281.300000
2361.034785	3260.500000
2362.580681	3268.600000
2364.124639	3233.500000
2365.669954	3206.500000
2367.211684	3260.700000
2368.754771	3227.900000
2370.295923	3272.800000
2371.836785	3275.200000
2373.377358	3285.400000
2374.917641	3279.000000
2376.457636	3295.500000
2377.994053	3253.700000
2379.533471	3287.800000
2381.069312	3246.700000
2382.606509	3214.400000
2384.140131	3259.400000
2385.676754	3289.600000
2387.211445	3246.500000
2388.744207	3268.200000
2390.276682	3251.900000
2391.807230	3239.500000
2393.340775	3216.800000
2394.869109	3243.900000
2396.398799	3249.200000
2397.928204	3228.100000
2399.457323	3150.800000
2400.986158	3239.400000
2402.509787	3255.400000
2404.038053	3240.000000
2405.561115	3227.300000
2407.088811	3228.400000
2408.609668	3200.400000
2410.135158	3236.200000
2411.657087	3206.900000
2413.180372	3216.700000
2414.701736	3219.400000
2416.221180	3211.200000
2417.741979	3222.400000
2419.260859	3217.600000
2420.779457	3201.900000
2422.296138	3214.500000
2423.814173	3206.100000
2425.331927	3196.100000
2426.846130	3202.000000
2428.360052	3172.900000
2429.873694	3175.100000
2431.388691	3146.600000
2432.900139	3192.300000
2434.412942	3202.500000
2435.923832	3159.700000
2437.434442	3163.900000
2438.943141	3190.300000
2440.454827	3181.300000
2441.962968	3166.400000
2443.470832	3138.400000
2444.978418	3124.100000
2446.482463	3164.800000
2447.989494	3101.000000
2449.494616	3145.200000
2450.999461	3134.500000
2452.502399	3125.500000
2454.005060	3082.100000
2455.507445	3064.200000
2457.007925	3076.700000
2458.509758	3083.100000
2460.009687	3113.500000
2461.509340	3119.100000
2463.008717	3083.200000
2464.506192	3062.300000
2466.001765	3075.400000
2467.500319	3046.300000
2468.995343	3038.300000
2470.491721	3040.900000
2471.984571	3058.000000
2473.478775	3068.500000
2474.972705	3058.900000
2476.463112	3035.800000
2477.956495	3016.400000
2479.447981	3030.500000
2480.937570	3023.000000
2482.426887	3056.200000
2483.914309	3034.900000
2485.404706	3063.000000
2486.891584	3031.500000
2488.379814	3076.000000
2489.864528	3032.200000
2491.348971	3025.700000
2492.834766	3107.900000
2494.318668	3011.100000
2495.803922	3014.700000
2497.284042	3047.100000
2498.767134	3003.300000
2500.248336	3035.600000
2501.729269	3042.600000
2503.208313	3092.200000
2504.687088	2990.500000
2506.165595	2992.700000
2507.643834	3002.000000
2509.121804	3037.500000
2510.596270	3045.100000
2512.073704	3017.700000
2513.547635	3042.400000
2515.022916	3058.500000
2516.497931	3011.800000
2517.969444	3022.500000
2519.442307	3044.100000
2520.913288	3084.200000
2522.385619	3036.800000
2523.852837	3066.700000
2525.323020	3049.300000
2526.791323	3059.200000
2528.259361	3048.200000
2529.727134	3040.500000
2531.194642	3010.200000
2532.661885	3015.000000
2534.125636	3025.300000
2535.590737	3042.600000
2537.053961	3033.900000
2538.518535	3052.800000
2539.979619	3059.000000
2541.442053	3072.300000
2542.904224	3030.000000
2544.362909	3054.400000
2545.826166	3028.900000
2547.284326	3137.900000
2548.743835	2981.100000
2550.198251	3044.600000
2551.657236	3033.600000
2553.114350	3061.300000
2554.569593	3034.900000
2556.024575	3020.100000
2557.477687	3052.500000
2558.932148	2994.100000
2560.384740	3007.500000
2561.837072	3017.100000
2563.287536	3052.600000
2564.740956	3032.700000
2566.189294	2999.400000
2567.640588	3006.700000
2569.090015	2981.500000
2570.535970	2991.600000
2571.984881	2977.000000
2573.430320	3011.300000
2574.877108	2993.400000
2576.322032	2998.900000
2577.766699	3009.200000
2579.212713	2993.400000
2580.655260	2958.500000
2582.099155	2948.600000
2583.539585	2945.700000
2584.981362	2950.300000
2586.421280	2955.100000
2587.862545	2985.600000
2589.300349	2928.000000
2590.741102	2910.100000
2592.176792	2916.600000
2593.615432	2969.700000
2595.052215	2946.300000
2596.487141	2972.500000
2597.925016	2947.900000
2599.357832	2952.200000
2600.791996	2947.000000
2602.224306	2912.900000
2603.657962	2959.300000
2605.089765	2987.300000
2606.521315	2945.200000
2607.952611	2903.000000
2609.382055	2953.300000
2610.811248	2906.700000
2612.238589	2887.200000
2613.667277	2920.300000
2615.095712	2897.900000
2616.520700	2915.900000
2617.947035	2914.300000
2619.371521	2883.400000
2620.797353	2910.700000
2622.219741	2932.700000
2623.643475	2917.600000
2625.065362	2968.200000
2626.487000	2907.600000
2627.906792	2889.000000
2629.327930	2882.000000
2630.748818	2906.600000
2632.166268	2859.900000
2633.586657	2859.900000
2635.003609	2903.500000
2636.420313	2856.800000
2637.836768	2880.900000
2639.252975	2872.800000
2640.668933	2886.600000
2642.083051	2894.800000
2643.496922	2876.800000
2644.908953	2842.100000
2646.322329	2869.600000
2647.732275	2880.200000
2649.145156	2817.000000
2650.554610	2872.800000
2651.963817	2860.200000
2653.371187	2893.100000
2654.781493	2899.400000
2656.189962	2866.800000
2657.596596	2892.300000
2659.002985	2877.100000
2660.407540	2864.800000
2661.813439	2853.500000
2663.217505	2853.100000
2664.621326	2872.400000
2666.024904	2836.300000
2667.426649	2912.000000
2668.829738	2845.200000
2670.229409	2870.000000
2671.630424	2822.400000
2673.028023	2866.800000
2674.428552	2854.400000
2675.825666	2881.200000
2677.224123	2821.600000
2678.620752	2879.500000
2680.017139	2837.500000
2681.413285	2859.100000
2682.807604	2819.600000
2684.203266	2802.200000
2685.595518	2847.400000
2686.989114	2833.700000
2688.380885	2874.200000
2689.773998	2834.800000
2691.165288	2827.800000
2692.554755	2833.100000
2693.943982	2799.000000
2695.332970	2788.100000
2696.723300	2840.200000
2698.108645	2806.600000
2699.496914	2794.200000
2700.883363	2825.400000
2702.269573	2794.000000
2703.655545	2808.300000
2705.038117	2820.800000
2706.422032	2751.500000
2707.805709	2743.400000
2709.189148	2778.400000
2710.569191	2789.500000
2711.950576	2784.600000
2713.330145	2780.100000
2714.711056	2746.800000
2716.090151	2795.100000
2717.467433	2755.200000
2718.846056	2746.200000
2720.222866	2755.700000
2721.599440	2743.700000
2722.975778	2805.000000
2724.350304	2737.800000
2725.726171	2725.000000
2727.098651	2788.700000
2728.474047	2788.100000
2729.844483	2747.300000
2731.216260	2773.500000
2732.587802	2755.400000
2733.957536	2741.600000
2735.328611	2745.200000
2736.697877	2797.400000
2738.066911	2756.900000
2739.434137	2759.300000
2740.801131	2765.000000
2742.167892	2797.300000
2743.534420	2721.100000
2744.899143	2759.200000
2746.263635	2734.900000
2747.627894	2722.400000
2748.991921	2756.400000
2750.355717	2711.100000
2751.716139	2746.700000
2753.079472	2758.900000
2754.437862	2710.900000
2755.799162	2729.800000
2757.157091	2728.700000
2758.517930	2690.800000
2759.876968	2688.100000
2761.232638	2653.300000
2762.591216	2692.500000
2763.946428	2672.400000
2765.301410	2689.500000
2766.654595	2661.100000
2768.010687	2677.900000
2769.363415	2674.000000
2770.715914	2677.800000
2772.068185	2692.300000
2773.421795	2660.800000
2774.772043	2673.300000
2776.120498	2632.600000
2777.471857	2623.600000
2778.819857	2659.200000
2780.169196	2660.100000
2781.516742	2685.900000
2782.864061	2692.200000
2784.211154	2680.600000
2785.556456	2613.400000
2786.901532	2642.000000
2788.246382	2611.400000
2789.591005	2604.900000
2790.932277	2623.700000
2792.274887	2630.500000
2793.617271	2638.200000
2794.959431	2623.000000
2796.298241	2631.500000
2797.639950	2622.900000
2798.978312	2664.800000
2800.318011	2631.300000
2801.655924	2651.100000
2802.992053	2612.000000
2804.327958	2644.000000
2805.665201	2587.300000
2807.000660	2634.500000
2808.335896	2641.100000
2809.669349	2637.400000
2811.004140	2581.500000
2812.335589	2604.700000
2813.669934	2644.900000
2814.999381	2651.200000
2816.330165	2626.600000
2817.660727	2636.100000
2818.989510	2609.700000
2820.319629	2625.200000
2821.647970	2660.700000
2822.976090	2648.600000
2824.302432	2595.300000
2825.630111	2591.900000
2826.954457	2614.900000
2828.280138	2613.900000
2829.604044	2613.200000
2830.927731	2596.900000
2832.252753	2554.200000
2833.574445	2607.400000
2834.895919	2593.800000
2836.217174	2565.000000
2837.538210	2578.700000
2838.857474	2561.400000
2840.178073	2546.000000
2841.496900	2575.700000
2842.815509	2542.900000
2844.132347	2510.200000
2845.448968	2567.500000
2846.765372	2538.100000
2848.080007	2567.300000
2849.395976	2565.700000
2850.708625	2545.600000
2852.022610	2530.600000
2853.336377	2538.900000
2854.649929	2547.100000
2855.961713	2524.700000
2857.271731	2529.100000
2858.583084	2542.300000
2859.891122	2546.300000
2861.200495	2546.700000
2862.509652	2556.700000
2863.818594	2524.900000
2865.125773	2573.300000
2866.431188	2574.900000
2867.737938	2550.300000
2869.042925	2566.800000
2870.347699	2574.700000
2871.650711	2569.300000
2872.956605	2563.100000
2874.257643	2562.600000
2875.560016	2557.500000
2876.860629	2575.100000
2878.162576	2578.100000
2879.464310	2517.900000
2880.762739	2556.800000
2882.062503	2566.000000
2883.360508	2551.000000
2884.658302	2532.900000
2885.954340	2550.900000
2887.251711	2563.600000
2888.547326	2534.900000
2889.842730	2553.800000
2891.137924	2557.700000
2892.429819	2501.200000
2893.724591	2523.900000
2895.016066	2522.600000
2896.308874	2542.300000
2897.601472	2500.700000
2898.890776	2521.700000
2900.181412	2523.800000
2901.470297	2543.200000
2902.760515	2482.500000
2904.047440	2485.700000
2905.335699	2533.800000
2906.622207	2494.600000
2907.908508	2462.200000
2909.194600	2484.400000
2910.478944	2529.300000
2911.766160	2487.800000
2913.048548	2531.700000
2914.332269	2483.400000
2915.614244	2524.800000
2916.896012	2542.300000
2918.176034	2491.900000
2919.458926	2539.600000
2920.740073	2459.300000
2922.017938	2513.200000
2923.298672	2485.100000
2924.576125	2505.600000
2925.853372	2447.600000
2927.128878	2487.600000
2928.407251	2480.300000
2929.680809	2454.800000
2930.957235	2488.400000
2932.231920	2472.800000
2933.504865	2422.000000
2934.779140	2497.000000
2936.051676	2438.900000
2937.324008	2463.500000
2938.593066	2429.500000
2939.864990	2446.700000
2941.135176	2448.100000
2942.405159	2457.400000
2943.674938	2476.800000
2944.942980	2437.500000
2946.209287	2456.300000
2947.475391	2447.700000
2948.742825	2463.600000
2950.008525	2450.600000
2951.274022	2419.500000
2952.539317	2407.800000
2953.801347	2422.200000
2955.064708	2405.800000
2956.327866	2419.700000
2957.589293	2434.700000
2958.852049	2419.200000
2960.113074	2424.400000
2961.372367	2403.400000
2962.631461	2418.100000
2963.890354	2423.900000
2965.149047	2403.600000
2966.407540	2413.900000
2967.664304	2389.900000
2968.920868	2405.200000
2970.175705	2398.200000
2971.431871	2416.500000
2972.684781	2427.500000
2973.939021	2402.100000
2975.193062	2387.000000
2976.445377	2388.300000
2977.697494	2423.800000
2978.947886	2382.600000
2980.201133	2383.300000
2981.449603	2417.000000
2982.700927	2423.000000
2983.949003	2400.300000
2985.196881	2415.400000
2986.444562	2392.200000
2987.692047	2396.200000
2988.937810	2381.900000
2990.183376	2394.400000
2991.430270	2365.900000
2992.673920	2398.900000
2993.918898	2368.200000
2995.160633	2419.700000
2996.405218	2377.800000
2997.648085	2397.200000
2998.887711	2376.000000
3000.130187	2373.800000
3001.369424	2369.500000
3002.609988	2366.800000
3003.848835	2356.600000
3005.087488	2363.200000
3006.324425	2376.600000
3007.562689	2380.900000
3008.799239	2375.600000
3010.035594	2343.700000
3011.271756	2346.000000
3012.506205	2346.500000
3013.740460	2356.600000
3014.974522	2354.800000
3016.206872	2347.500000
3017.437510	2378.700000
3018.670994	2357.100000
3019.902766	2343.900000
3021.132828	2350.400000
3022.362698	2348.700000
3023.590858	2299.500000
3024.820344	2367.100000
3026.048122	2352.500000
3027.275708	2368.500000
3028.504620	2347.500000
3029.728790	2354.900000
3030.955803	2350.000000
3032.179592	2352.600000
3033.404708	2366.000000
3034.628117	2326.000000
3035.851337	2347.000000
3037.072851	2333.400000
3038.297206	2334.700000
3039.516826	2327.200000
3040.737771	2333.900000
3041.958528	2332.900000
3043.177581	2322.600000
3044.397960	2320.200000
3045.615122	2304.100000
3046.833609	2330.900000
3048.050394	2312.300000
3049.266992	2320.700000
3050.483401	2334.000000
3051.696598	2333.200000
3052.912632	2319.000000
3054.125454	2320.300000
3055.341113	2316.800000
3056.552049	2272.300000
3057.764310	2296.300000
3058.976385	2308.000000
3060.188273	2272.900000
3061.398463	2280.900000
3062.608467	2285.400000
3063.818286	2304.700000
3065.026408	2307.500000
3066.234344	2303.300000
3067.440586	2331.100000
3068.648151	2314.100000
3069.854023	2316.550000
3071.059709	2319.000000
3072.265210	2289.600000
3073.469018	2319.800000
3074.674150	2296.500000
3075.877590	2301.500000
3077.079337	2286.500000
3078.280901	2284.800000
3079.482281	2308.300000
3080.683477	2298.200000
3081.882983	2249.400000
3083.082305	2275.000000
3084.282951	2277.400000
3085.481907	2291.100000
3086.677669	2281.800000
3087.876260	2281.700000
3089.071657	2274.000000
3090.268377	2283.300000
3091.461905	2257.000000
3092.658261	2275.600000
3093.852931	2268.400000
3095.044410	2267.700000
3096.240220	2287.700000
3097.431337	2246.000000
3098.623776	2246.700000
3099.813028	2279.300000
3101.005106	2205.900000
3102.195499	2249.200000
3103.382707	2267.500000
3104.571238	2221.000000
3105.761091	2228.800000
3106.947759	2264.600000
3108.134248	2220.200000
3109.320557	2225.600000
3110.508188	2187.800000
3111.692638	2230.400000
3112.875407	2209.200000
3114.061000	2244.000000
3115.244912	2222.100000
3116.427146	2219.800000
3117.609201	2197.100000
3118.791079	2248.100000
3119.972778	2255.100000
3121.152799	2206.600000
3122.331144	2206.500000
3123.512310	2243.300000
3124.690300	2191.200000
3125.868113	2169.500000
3127.045749	2203.500000
3128.221710	2211.000000
3129.397494	2225.400000
3130.574600	2259.800000
3131.750031	2224.000000
3132.923789	2199.600000
3134.095875	2207.400000
3135.269281	2198.300000
3136.442512	2214.000000
3137.614070	2205.900000
3138.786950	2228.600000
3139.956662	2201.700000
3141.127695	2206.300000
3142.297057	2233.500000
3143.464750	2230.500000
3144.635258	2200.500000
3145.801107	2182.700000
3146.971266	2221.200000
3148.136767	2209.200000
3149.302095	2177.100000
3150.467249	2254.000000
3151.632229	2200.900000
3152.798530	2187.600000
3153.960177	2207.700000
3155.123145	2143.900000
3156.285939	2153.200000
3157.448561	2133.000000
3158.609518	2162.500000
3159.770302	2142.000000
3160.930914	2110.000000
3162.089863	2138.200000
3163.248639	2151.200000
3164.407244	2150.500000
3165.565677	2118.200000
3166.723938	2119.200000
3167.880537	2120.400000
3169.035475	2104.800000
3170.191732	2126.500000
3171.346329	2102.800000
3172.500754	2124.200000
3173.653520	2106.100000
3174.806116	2114.900000
3175.958541	2086.200000
3177.110797	2128.800000
3178.262883	2108.500000
3179.411822	2133.400000
3180.563568	2112.000000
3181.713656	2156.300000
3182.862088	2137.900000
3184.010351	2128.700000
3185.158444	2137.200000
3186.306369	2149.100000
3187.452639	2153.900000
3188.598740	2162.900000
3189.743186	2160.700000
3190.887465	2161.500000
3192.031576	2152.000000
3193.177005	2140.800000
3194.319294	2178.200000
3195.461417	2104.200000
3196.603372	2159.200000
3197.745161	2159.100000
3198.886782	2133.000000
3200.025267	2136.200000
3201.165070	2131.000000
3202.306191	2114.600000
3203.444177	2145.000000
3204.580514	2101.100000
3205.716685	2090.800000
3206.854174	2130.500000
3207.990013	2114.700000
3209.127170	2130.800000
3210.259714	2136.300000
3211.396540	2142.900000
3212.528754	2092.200000
3213.662286	2131.600000
3214.795652	2065.000000
3215.925891	2141.700000
3217.058928	2069.300000
3218.188839	2065.400000
3219.320067	2102.300000
3220.448169	2037.700000
3221.579068	2037.400000
3222.708324	2069.600000
3223.835935	2034.800000
3224.960425	2071.100000
3226.089190	2067.900000
3227.214833	2027.300000
3228.340313	2050.400000
3229.464152	2061.400000
3230.590785	2070.200000
3231.712821	2033.800000
3232.836173	2024.000000
3233.959363	2073.700000
3235.082391	2020.600000
3236.203779	2045.900000
3237.325006	2069.000000
3238.444594	2044.600000
3239.564021	2021.100000
3240.681810	2056.000000
3241.802392	2052.500000
3242.919859	2073.700000
3244.037167	2070.000000
3245.154313	2068.300000
3246.269824	2043.400000
3247.386650	2092.600000
3248.500365	2068.500000
3249.616870	2099.800000
3250.731741	2084.900000
3251.843503	2075.400000
3252.955106	2092.700000
3254.068023	2105.200000
3255.180782	2077.100000
3256.290434	2091.300000
3257.401400	2095.400000
3258.512208	2095.000000
3259.621385	2044.200000
3260.728930	2061.400000
3261.837790	2075.700000
3262.946491	2090.900000
3264.052090	2125.000000
3265.159003	2115.700000
3266.264288	2052.100000
3267.370886	2124.300000
3268.474384	2079.000000
3269.579196	2073.500000
3270.683851	2060.300000
3271.785407	2074.300000
3272.886808	2069.800000
3273.989522	2115.100000
3275.092079	2083.100000
3276.191540	2107.200000
3277.293785	2088.500000
3278.392934	2076.600000
3279.490459	2075.900000
3280.587828	2094.300000
3281.687980	2090.000000
3282.785038	2104.200000
3283.881941	2050.700000
3284.978689	2087.100000
3286.070879	2043.900000
3287.167317	2061.400000
3288.262134	2032.800000
3289.356795	2074.300000
3290.449835	2020.200000
3291.542721	2041.200000
3292.633986	2029.100000
3293.726564	2057.100000
3294.817521	2027.200000
3295.906859	2065.000000
3296.996044	2023.700000
3298.086542	2033.300000
3299.173955	2060.200000
3300.261216	2061.700000
3301.349789	2037.200000
3302.438209	2035.800000
3303.522082	2012.100000
3304.610197	2049.900000
3305.695231	2023.200000
3306.778648	2067.000000
3307.863378	2067.600000
3308.946493	2039.000000
3310.030919	2057.100000
3311.112267	2063.200000
3312.194927	2048.900000
3313.275973	2055.300000
3314.356868	2037.800000
3315.436150	2070.300000
3316.515281	2029.600000
3317.595723	2075.200000
3318.673092	2041.800000
3319.751771	2054.800000
3320.828840	2043.600000
3321.905758	2028.400000
3322.981065	2046.800000
3324.056223	2037.100000
3325.132692	2035.300000
3326.206091	2063.500000
3327.279341	2044.000000
3328.353902	2053.000000
3329.426853	2057.800000
3330.498197	2078.400000
3331.570851	2028.500000
3332.640438	2025.500000
3333.711336	2077.700000
3334.780627	2053.100000
3335.851229	2051.500000
3336.920224	2027.900000
3337.987613	2043.600000
3339.053397	1990.300000
3340.123407	2003.300000
3341.190354	2030.900000
3342.254239	2029.900000
3343.320892	2016.900000
3344.385940	1951.400000
3345.449385	2019.500000
3346.512684	2016.000000
3347.575836	1989.600000
3348.638842	2006.300000
3349.701702	1976.000000
3350.762960	1991.500000
3351.821161	1999.800000
3352.883583	1987.900000
3353.942948	1995.700000
3355.002168	1964.700000
3356.062698	2028.000000
3357.118718	1989.500000
3358.177503	2001.300000
3359.231780	1983.600000
3360.288820	2004.100000
3361.344263	2007.900000
3362.401014	2018.700000
3363.456168	1970.200000
3364.509724	2001.600000
3365.561683	1971.200000
3366.616404	2022.900000
3367.668076	2004.100000
3368.719605	2018.100000
3369.772443	2007.100000
3370.822233	2000.300000
3371.873331	1975.000000
3372.921384	2024.100000
3373.972197	1986.500000
3375.019964	2005.000000
3376.067589	2005.100000
3377.115071	1975.900000
3378.160961	1998.300000
3379.208159	2042.800000
3380.252315	2004.400000
3381.299229	2006.700000
3382.344551	1973.200000
3383.386833	2033.300000
3384.428973	2004.800000
3385.472421	1956.200000
3386.515729	1990.100000
3387.557446	1992.000000
3388.599022	1994.900000
3389.640458	1993.200000
3390.680304	2002.500000
3391.718563	2001.600000
3392.758129	1967.400000
3393.797554	1987.500000
3394.835392	1960.100000
3395.871643	1979.700000
3396.907755	1993.000000
3397.945174	1992.100000
3398.979560	1955.600000
3400.015253	2003.100000
3401.050807	1961.900000
3402.083330	1966.400000
3403.118606	1986.700000
3404.150851	1986.700000
3405.182958	1988.200000
3406.213481	1979.800000
3407.245312	1986.700000
3408.277003	1976.900000
3409.305668	1982.000000
3410.334194	1999.900000
3411.364028	1949.900000
3412.393723	1990.200000
3413.420393	1957.500000
3414.448370	1969.600000
3415.473322	1988.000000
3416.501024	1951.100000
3417.525703	1970.500000
3418.551688	1967.000000
3419.576093	1969.900000
3420.600362	1967.700000
3421.623052	1964.500000
3422.645606	1962.400000
3423.669466	1966.400000
3424.690306	1988.900000
3425.711011	1964.800000
3426.733021	1951.100000
3427.752013	1942.600000
3428.770870	1955.800000
3429.791032	1948.000000
3430.808178	1952.200000
