-118.448435	-0.200000
-115.778835	28.100000
-113.112170	1.300000
-110.446257	22.400000
-107.783276	11.400000
-105.118866	21.400000
-102.457386	11.500000
-99.794476	17.500000
-97.136674	15.300000
-94.477441	6.600000
-91.818958	15.400000
-89.163398	-3.200000
-86.506410	24.400000
-83.854519	39.000000
-81.201199	-0.600000
-78.550799	26.400000
-75.898969	2.300000
-73.252230	28.300000
-70.604061	29.900000
-67.956636	22.400000
-65.312124	34.300000
-62.666184	15.900000
-60.025325	29.300000
-57.383037	31.900000
-54.743657	18.600000
-52.102849	18.100000
-49.462781	15.000000
-46.827785	19.600000
-44.191360	14.600000
-41.557839	20.600000
-38.922889	22.400000
-36.293004	15.800000
-33.659527	36.000000
-31.031112	33.600000
-28.403430	25.300000
-25.774321	29.900000
-23.150268	21.300000
-20.522626	35.900000
-17.900037	39.200000
-15.278180	32.000000
-12.657053	65.000000
-10.036656	122.200000
-7.419147	359.100000
-4.800210	1081.900000
-2.184159	2655.600000
0.431164	3172.300000
3.045760	1682.000000
5.657473	266.700000
8.270615	62.800000
10.878723	44.500000
13.490413	46.400000
16.097072	30.300000
18.705159	32.700000
21.312522	35.300000
23.914860	20.700000
26.520776	40.100000
29.121670	32.200000
31.723992	29.800000
34.321297	46.800000
36.922177	15.300000
39.518043	32.000000
42.115336	36.000000
44.711910	24.800000
47.303475	15.900000
49.896468	42.200000
52.486600	28.200000
55.078160	43.500000
57.666860	45.300000
60.256987	48.400000
62.842116	39.800000
65.428671	48.200000
68.014513	55.200000
70.597501	38.600000
73.181915	51.400000
75.759201	51.700000
78.340053	63.000000
80.918056	49.700000
83.495349	42.900000
86.074068	50.000000
88.647806	59.000000
91.222970	46.400000
93.795291	49.000000
96.366904	45.100000
98.935677	47.300000
101.505877	68.600000
104.073239	83.200000
106.642026	98.500000
109.207977	114.900000
111.771093	127.700000
114.337765	147.200000
116.895216	188.700000
119.458352	294.400000
122.016529	391.600000
124.578259	590.900000
127.135034	889.500000
129.693234	1295.300000
132.246482	1932.200000
134.799031	2815.700000
137.355131	3993.000000
139.906284	5273.900000
142.456738	6629.500000
145.006496	7638.400000
147.553434	8467.400000
150.099676	8824.500000
152.647344	9144.800000
155.194317	9233.400000
157.736353	9192.100000
160.277696	9160.800000
162.818346	9167.300000
165.360422	9083.200000
167.899687	9126.800000
170.436142	9044.200000
172.971907	9080.300000
175.509097	8941.000000
178.045595	8864.700000
180.579288	8967.900000
183.110178	8826.000000
185.640379	8832.600000
188.172005	8857.400000
190.700830	8879.300000
193.226856	8789.200000
195.752197	8762.800000
198.278962	8740.900000
200.802930	8797.300000
203.326214	8777.600000
205.848813	8749.700000
208.368619	8687.300000
210.887742	8679.700000
213.406182	8630.100000
215.926046	8696.500000
218.438909	8705.400000
220.955303	8690.400000
223.471015	8729.500000
225.981838	8742.800000
228.494085	8724.000000
231.003549	8800.300000
233.512335	8735.200000
236.020443	8880.100000
238.529974	8830.700000
241.034625	8865.600000
243.538601	8795.800000
246.044000	8845.200000
248.544524	8942.500000
251.048571	8939.300000
253.545648	8963.300000
256.046247	9004.400000
258.544075	8991.100000
261.041230	8916.100000
263.537712	9007.500000
266.029331	9012.000000
268.524470	9028.300000
271.016843	8984.500000
273.508545	8983.400000
275.997483	8935.400000
278.487846	9001.700000
280.975447	8951.500000
283.460288	8947.700000
285.948643	8951.700000
288.430059	8924.300000
290.914989	8978.800000
293.395074	8947.100000
295.878671	8965.500000
298.357425	8946.600000
300.837603	8993.400000
303.315028	8977.200000
305.791790	9031.000000
308.267889	9071.800000
310.741239	8975.200000
313.213927	8945.900000
315.685954	8930.100000
318.157320	9109.600000
320.625942	9083.800000
323.093904	9140.500000
325.563289	9056.500000
328.027850	9155.100000
330.495916	9038.200000
332.959162	8971.700000
335.421750	9080.600000
337.883682	8941.200000
340.344957	8978.900000
342.803498	8954.700000
345.263461	8837.000000
347.720691	8879.500000
350.177267	8756.500000
352.633189	8775.100000
355.086382	8555.200000
357.540996	8636.600000
359.990809	8588.500000
362.444119	8518.100000
364.892629	8394.900000
367.340489	8436.200000
369.789770	8324.600000
372.234258	8268.300000
374.680168	8161.000000
377.125429	8064.900000
379.567970	8050.600000
382.009864	7952.000000
384.451111	7898.600000
386.889642	7954.300000
389.329595	7716.200000
391.766834	7716.300000
394.201361	7632.300000
396.639376	7637.200000
399.072614	7531.900000
401.507274	7474.300000
403.937160	7457.700000
406.370532	7421.600000
408.799134	7412.600000
411.227095	7327.200000
413.656476	7319.300000
416.081092	7296.800000
418.507130	7278.800000
420.932527	7264.000000
423.357284	7214.800000
425.777283	7251.300000
428.198703	7281.900000
430.617426	7238.200000
433.037570	7206.800000
435.455019	7205.700000
437.873888	7226.600000
440.290064	7214.000000
442.701493	7145.500000
445.116398	7139.800000
447.528613	7105.500000
449.940194	7146.100000
452.351141	7164.700000
454.759402	7146.500000
457.167030	7131.400000
459.574027	7105.000000
461.980391	7109.600000
464.384073	7061.600000
466.787125	7117.000000
469.189547	7080.700000
471.591340	6980.300000
473.990454	7022.400000
476.390988	7078.700000
478.790893	6997.600000
481.186075	6962.400000
483.584724	6993.300000
485.978653	6925.000000
488.371956	6874.100000
490.764633	6891.100000
493.156685	6869.900000
495.550156	6793.900000
497.938914	6819.300000
500.325006	6797.800000
502.712518	6747.900000
505.099406	6778.000000
507.483631	6755.500000
509.869275	6742.800000
512.252256	6668.200000
514.632577	6694.200000
517.014317	6769.700000
519.393398	6650.700000
521.773898	6692.400000
524.151740	6653.400000
526.526927	6711.300000
528.901496	6635.100000
531.277484	6650.200000
533.650818	6619.700000
536.025570	6576.700000
538.395637	6508.900000
540.765088	6557.600000
543.135957	6446.300000
545.502146	6431.200000
547.869753	6384.500000
550.234714	6221.700000
552.599062	6194.800000
554.962798	6191.700000
557.327951	6101.400000
559.688431	6078.400000
562.050330	6018.400000
564.409589	5901.900000
566.766209	5786.600000
569.126274	5805.000000
571.479649	5678.400000
573.836468	5652.700000
576.190651	5540.600000
578.544227	5539.900000
580.897194	5447.600000
583.247530	5336.500000
585.599282	5344.100000
587.944358	5229.500000
590.294898	5180.400000
592.638765	5141.200000
594.988092	5124.900000
597.332772	5079.600000
599.674826	5048.000000
602.018298	4996.700000
604.359147	5038.300000
606.699394	4932.700000
609.037020	5021.400000
611.378081	4938.900000
613.714504	4928.400000
616.052345	4884.600000
618.387567	4911.300000
620.720174	4933.700000
623.054197	4977.800000
625.385607	4921.400000
627.716418	4953.300000
630.046631	4920.800000
632.376246	4962.600000
634.701239	4889.800000
637.031673	4928.700000
639.357485	4914.600000
641.680691	4962.400000
644.005312	4903.600000
646.327329	4882.900000
648.648751	4840.900000
650.967570	4903.500000
653.287805	4888.100000
655.607447	4904.200000
657.924488	4906.800000
660.240937	4973.800000
662.554788	4927.900000
664.870055	4983.000000
667.182725	5061.300000
669.496810	4992.100000
671.806295	5138.800000
674.117196	5172.500000
676.425504	5139.000000
678.733224	5217.700000
681.042359	5268.100000
683.346901	5311.700000
685.650856	5270.400000
687.954226	5355.800000
690.259010	5365.900000
692.559208	5443.500000
694.860820	5487.400000
697.161848	5495.600000
699.458293	5529.800000
701.756154	5593.400000
704.053431	5613.900000
706.350125	5695.200000
708.642243	5678.000000
710.937772	5692.400000
713.228728	5798.800000
715.521098	5825.100000
717.810892	5782.200000
720.100107	5857.100000
722.388741	5884.100000
724.674804	5907.900000
726.962280	6014.800000
729.247186	5973.000000
731.531513	5990.700000
733.813272	6077.400000
736.096445	6073.600000
738.379041	6128.600000
740.657082	6161.500000
742.936536	6263.400000
745.215415	6352.900000
747.493718	6307.400000
749.767472	6425.000000
752.042640	6450.500000
754.317234	6502.000000
756.589268	6538.500000
758.862716	6556.700000
761.133606	6658.600000
763.401940	6627.100000
765.671687	6729.000000
767.938880	6765.500000
770.205502	6796.200000
772.471555	6886.300000
774.735055	6851.200000
776.999969	6919.200000
779.264313	6971.400000
781.524128	7030.700000
783.785356	7092.100000
786.046015	7140.500000
788.304129	7188.600000
790.559698	7185.200000
792.818658	7216.100000
795.071119	7170.200000
797.328947	7267.800000
799.582255	7313.100000
801.833024	7297.700000
804.085205	7253.900000
806.334848	7412.000000
808.585902	7419.700000
810.832445	7378.900000
813.080400	7436.900000
815.325821	7437.200000
817.572653	7430.400000
819.818924	7418.000000
822.060691	7440.200000
824.305840	7588.600000
826.544517	7551.100000
828.786577	7571.200000
831.024138	7590.000000
833.263110	7712.400000
835.499556	7673.000000
837.737413	7727.600000
839.972745	7752.000000
842.205554	7825.500000
844.439774	7867.700000
846.671472	7884.100000
848.902615	7980.700000
851.133203	8060.200000
853.363236	8177.600000
855.592716	8230.400000
857.817714	8346.900000
860.046087	8463.300000
862.269981	8586.200000
864.495285	8676.000000
866.716114	8814.000000
868.940315	8895.800000
871.160043	9071.500000
873.381182	9203.100000
875.601770	9361.200000
877.819848	9569.100000
880.039337	9678.300000
882.254359	9752.600000
884.468833	9876.700000
886.682760	10042.100000
888.896139	10071.100000
891.108971	10141.200000
893.321257	10255.800000
895.531040	10266.200000
897.740278	10266.700000
899.948971	10295.200000
902.155165	10239.400000
904.362768	10196.000000
906.567874	10134.200000
908.772436	9997.000000
910.974502	9936.700000
913.177978	9738.400000
915.378960	9625.400000
917.579401	9433.700000
919.781249	9340.200000
921.976707	9057.800000
924.175524	8865.700000
926.369902	8706.100000
928.567638	8449.100000
930.760938	8312.500000
932.955647	8127.100000
935.147870	7992.100000
937.339555	7878.800000
939.530702	7705.600000
941.719366	7615.000000
943.907493	7553.200000
946.093140	7484.800000
948.282139	7467.300000
950.466715	7417.100000
952.650756	7428.200000
954.838147	7377.300000
957.017234	7466.100000
959.199672	7390.000000
961.381576	7372.100000
963.561006	7450.500000
965.737963	7485.700000
967.916327	7437.300000
970.096099	7443.300000
972.269522	7315.700000
974.446291	7385.400000
976.618653	7315.600000
978.792423	7209.100000
980.961789	7168.300000
983.134500	7071.500000
985.304744	7022.600000
987.474460	6897.400000
989.643647	6780.000000
991.808437	6752.100000
993.976568	6674.900000
996.140305	6532.400000
998.305448	6382.600000
1000.468133	6399.500000
1002.630291	6239.100000
1004.789993	6250.900000
1006.949171	6068.700000
1009.109755	5965.700000
1011.267884	5901.900000
1013.425489	5861.200000
1015.582571	5706.300000
1017.739130	5626.900000
1019.891309	5624.700000
1022.044894	5473.600000
1024.197958	5470.400000
1026.348574	5384.300000
1028.500595	5350.400000
1030.648243	5306.400000
1032.799223	5216.600000
1034.945832	5214.800000
1037.091923	5176.400000
1039.237494	5136.000000
1041.384471	5050.400000
1043.525159	4996.900000
1045.669177	4982.400000
1047.810754	4965.500000
1049.951815	4917.000000
1052.094280	4842.000000
1054.230466	4841.300000
1056.369978	4826.300000
1058.505134	4824.100000
1060.643615	4741.800000
1062.777742	4685.700000
1064.911356	4669.700000
1067.046375	4615.400000
1069.177044	4615.000000
1071.309118	4604.200000
1073.438763	4540.500000
1075.567896	4554.900000
1077.696517	4460.100000
1079.824627	4445.000000
1081.950311	4395.700000
1084.075485	4340.300000
1086.202063	4251.100000
1088.324304	4267.500000
1090.447948	4273.600000
1092.567259	4186.100000
1094.691798	4141.400000
1096.810092	4139.400000
1098.929791	4016.900000
1101.047071	3975.100000
1103.163845	3905.600000
1105.280112	3924.000000
1107.393964	3872.200000
1109.509219	3781.700000
1111.620152	3715.700000
1113.734396	3662.700000
1115.844320	3629.400000
1117.955648	3598.000000
1120.066471	3587.400000
1122.172979	3450.200000
1124.282795	3483.200000
1126.388297	3385.400000
1128.495202	3379.100000
1130.595892	3294.700000
1132.701794	3287.800000
1134.803387	3208.100000
1136.906383	3249.800000
1139.008878	3189.700000
1141.105166	3099.800000
1143.206662	3085.500000
1145.303855	3057.300000
1147.400549	2985.200000
1149.496745	2945.700000
1151.592444	2942.200000
1153.687645	2948.600000
1155.780449	2869.200000
1157.874655	2868.200000
1159.962670	2835.800000
1162.055883	2819.000000
1164.142908	2786.200000
1166.233232	2747.000000
1168.319269	2707.900000
1170.408603	2708.900000
1172.491756	2638.300000
1174.576311	2616.600000
1176.662268	2628.200000
1178.743943	2598.900000
1180.827020	2542.100000
1182.907711	2558.200000
1184.987910	2513.800000
1187.067618	2521.600000
1189.146835	2525.600000
1191.223670	2476.900000
1193.298124	2469.700000
1195.375870	2446.500000
1197.449345	2423.000000
1199.524221	2446.900000
1201.594830	2407.600000
1203.666841	2381.100000
1205.736475	2405.100000
1207.807510	2404.100000
1209.878057	2406.700000
1211.944343	2378.300000
1214.012030	2393.200000
1216.077345	2326.000000
1218.144060	2350.600000
1220.206519	2362.600000
1222.272263	2358.400000
1224.333754	2346.100000
1226.396644	2334.600000
1228.457167	2297.500000
1230.517206	2275.000000
1232.576763	2320.600000
1234.633954	2343.100000
1236.690664	2333.600000
1238.745011	2291.000000
1240.802638	2321.000000
1242.857903	2321.800000
1244.908927	2315.900000
1246.961351	2265.600000
1249.013295	2278.600000
1251.062881	2314.700000
1253.111988	2286.000000
1255.160617	2285.500000
1257.208767	2316.700000
1259.256439	2325.400000
1261.299880	2267.800000
1263.346596	2282.200000
1265.390959	2250.100000
1267.434846	2316.900000
1269.476382	2243.200000
1271.515567	2249.700000
1273.558026	2262.400000
1275.596262	2228.400000
1277.635897	2276.700000
1279.675057	2266.700000
1281.709998	2256.700000
1283.746339	2249.700000
1285.780334	2259.000000
1287.815728	2266.700000
1289.846908	2280.200000
1291.879487	2256.100000
1293.911593	2290.500000
1295.941359	2264.700000
1297.972523	2268.700000
1299.999479	2276.000000
1302.027833	2254.300000
1304.051983	2297.300000
1306.079397	2272.200000
1308.102609	2269.200000
1310.127219	2273.000000
1312.149495	2296.200000
1314.173168	2278.700000
1316.194508	2243.500000
1318.215380	2240.200000
1320.235786	2258.900000
1322.251997	2303.100000
1324.269606	2244.200000
1326.284888	2262.200000
1328.303427	2254.700000
1330.317778	2301.600000
1332.329803	2301.500000
1334.345085	2257.800000
1336.356182	2267.400000
1338.368676	2244.500000
1340.376987	2293.000000
1342.388554	2281.300000
1344.394081	2275.400000
1346.402864	2300.100000
1348.407469	2286.100000
1350.415328	2270.700000
1352.422725	2308.600000
1354.424091	2281.400000
1356.426854	2274.100000
1358.429156	2305.800000
1360.430999	2290.800000
1362.432382	2263.100000
1364.431452	2263.900000
1366.430063	2286.900000
1368.428216	2273.900000
1370.425911	2290.200000
1372.419442	2271.300000
1374.414370	2292.300000
1376.408841	2275.000000
1378.402855	2268.200000
1380.394561	2264.300000
1382.385813	2269.100000
1384.374759	2251.100000
1386.365100	2266.600000
1388.354986	2280.800000
1390.342569	2264.800000
1392.329697	2255.900000
1394.314525	2264.400000
1396.300746	2286.800000
1398.284668	2267.800000
1400.268137	2254.300000
1402.251154	2270.100000
1404.231872	2303.300000
1406.213986	2257.300000
1408.193802	2269.000000
1410.173168	2259.200000
1412.148394	2283.100000
1414.126860	2267.600000
1416.103031	2244.700000
1418.078754	2256.500000
1420.054027	2266.300000
1422.027009	2265.800000
1423.999543	2255.900000
1425.971630	2229.600000
1427.943268	2231.800000
1429.910778	2254.200000
1431.883363	2257.400000
1433.848141	2231.200000
1435.817991	2238.800000
1437.783718	2195.500000
1439.750837	2209.100000
1441.715673	2206.000000
1443.676390	2226.000000
1445.642174	2152.800000
1447.602003	2205.000000
1449.563225	2202.100000
1451.525840	2206.600000
1453.484340	2176.200000
1455.442398	2173.100000
1457.400013	2176.900000
1459.357187	2153.000000
1461.312085	2173.500000
1463.268375	2196.000000
1465.222391	2181.400000
1467.175967	2176.700000
1469.127270	2187.800000
1471.079965	2165.300000
1473.030389	2158.200000
1474.980373	2169.300000
1476.929919	2157.500000
1478.877196	2140.100000
1480.822206	2161.600000
1482.768607	2184.600000
1484.714572	2117.700000
1486.660098	2129.600000
1488.603360	2126.400000
1490.546185	2144.900000
1492.486747	2108.400000
1494.428700	2107.900000
1496.368392	2136.700000
1498.307648	2131.500000
1500.246469	2097.400000
1502.183031	2079.900000
1504.120984	2117.300000
1506.056679	2088.600000
1507.991939	2110.900000
1509.924944	2082.500000
1511.857516	2114.700000
1513.789656	2102.800000
1515.721364	2084.600000
1517.650818	2096.200000
1519.581663	2100.300000
1521.512077	2058.600000
1523.438417	2107.600000
1525.366149	2066.400000
1527.291630	2080.700000
1529.216682	2088.300000
1531.141305	2086.100000
1533.065499	2074.900000
1534.987446	2077.900000
1536.910782	2063.000000
1538.831873	2076.300000
1540.750719	2054.400000
1542.670955	2118.800000
1544.588947	2101.500000
1546.506513	2048.700000
1548.421837	2064.900000
1550.338551	2046.500000
1552.251210	2074.500000
1554.167073	2054.400000
1556.080696	2064.600000
1557.992082	2042.400000
1559.904856	2040.000000
1561.813581	2061.000000
1563.723696	2039.100000
1565.633387	2049.500000
1567.542654	2024.000000
1569.449688	2056.200000
1571.354489	2049.600000
1573.260679	2020.200000
1575.164637	2044.100000
1577.068175	2071.700000
1578.971291	2032.800000
1580.872179	2057.900000
1582.774454	2071.600000
1584.674502	2018.700000
1586.575937	2029.300000
1588.473339	2052.000000
1590.370322	2047.600000
1592.266887	2019.300000
1594.164840	2045.300000
1596.056958	2063.800000
1597.952269	2041.800000
1599.847163	2044.800000
1601.739835	2006.900000
1603.632091	2048.900000
1605.522126	2039.000000
1607.411747	2020.200000
1609.300951	2014.700000
1611.189741	2027.800000
1613.076314	2045.400000
1614.964273	2027.700000
1616.848216	2026.800000
1618.733547	1999.800000
1620.618463	2019.100000
1622.501166	2021.500000
1624.385256	1991.000000
1626.265335	2001.600000
1628.146800	2023.900000
1630.026055	1991.700000
1631.906696	2035.000000
1633.781533	1977.500000
1635.661352	1981.200000
1637.537165	2017.700000
1639.412568	2035.800000
1641.289358	2020.800000
1643.160350	2020.600000
1645.034524	2039.400000
1646.904700	2018.100000
1648.778056	1999.000000
1650.649209	2026.500000
1652.518160	2010.300000
1654.388497	2024.300000
1656.254840	2027.700000
1658.122569	1979.100000
1659.988100	1979.700000
1661.855015	1974.300000
1663.717942	1960.600000
1665.582254	2000.300000
1667.444370	1973.800000
1669.306082	1961.300000
1671.169178	1957.200000
1673.030080	1966.100000
1674.888788	2007.500000
1676.747093	1964.200000
1678.606783	1946.400000
1680.460706	1955.400000
1682.317801	1975.500000
1684.174494	1918.600000
1686.027211	1939.500000
1687.883098	1943.600000
1689.735012	1970.300000
1691.586525	1936.800000
1693.437637	1958.900000
1695.288349	1955.200000
1697.138660	1934.300000
1698.986787	1941.300000
1700.836297	1956.100000
1702.680059	1964.900000
1704.528770	1928.800000
1706.371736	1960.500000
1708.217867	1942.400000
1710.060037	1908.400000
1711.905371	1913.600000
1713.744965	1933.800000
1715.585943	1894.500000
1717.428304	1945.700000
1719.266709	1894.000000
1721.106497	1933.600000
1722.944110	1930.800000
1724.781327	1919.100000
1726.616371	1922.000000
1728.452798	1898.800000
1730.287053	1903.000000
1732.120913	1909.000000
1733.954380	1915.800000
1735.783900	1890.600000
1737.616579	1893.000000
1739.445314	1911.300000
1741.277207	1890.400000
1743.105157	1896.700000
1744.932715	1900.600000
1746.759881	1875.100000
1748.586656	1930.200000
1750.413040	1928.500000
1752.235487	1903.200000
1754.061088	1848.100000
1755.882755	1898.200000
1757.705804	1875.600000
1759.526692	1883.100000
1761.347190	1929.400000
1763.169070	1919.800000
1764.985250	1864.800000
1766.804582	1889.100000
1768.619987	1862.700000
1770.438542	1905.600000
1772.253172	1873.100000
1774.067416	1889.900000
1775.881272	1880.100000
1777.694742	1908.300000
1779.506059	1868.000000
1781.318757	1902.500000
1783.131068	1895.800000
1784.939462	1870.600000
1786.749237	1856.600000
1788.555096	1871.200000
1790.364101	1865.000000
1792.169193	1859.600000
1793.975666	1858.000000
1795.781755	1865.400000
1797.583934	1862.300000
1799.389256	1880.900000
1801.190670	1856.500000
1802.993464	1902.500000
1804.792352	1920.000000
1806.592621	1822.800000
1808.392508	1834.600000
1810.190254	1861.300000
1811.987618	1856.500000
1813.784603	1852.900000
1815.581207	1849.000000
1817.375672	1806.300000
1819.171516	1835.200000
1820.961706	1832.100000
1822.756792	1851.600000
1824.546225	1870.500000
1826.338795	1844.400000
1828.129230	1836.900000
1829.917531	1832.900000
1831.708967	1837.700000
1833.494757	1808.900000
1835.281927	1821.500000
1837.066965	1889.600000
1838.855137	1800.200000
1840.639423	1815.000000
1842.421580	1841.500000
1844.205115	1797.800000
1845.986522	1810.600000
1847.769308	1823.600000
1849.548214	1822.000000
1851.328498	1822.600000
1853.106656	1830.600000
1854.886193	1818.800000
1856.663605	1847.500000
1858.438893	1839.400000
1860.215560	1846.600000
1861.990103	1845.200000
1863.766025	1831.600000
1865.536326	1813.000000
1867.309755	1801.000000
1869.081064	1822.700000
1870.852003	1812.200000
1872.624318	1798.900000
1874.391020	1843.900000
1876.160848	1842.400000
1877.926812	1827.800000
1879.695900	1805.600000
1881.461126	1834.800000
1883.225983	1784.900000
1884.992218	1808.100000
1886.754594	1828.600000
1888.516603	1803.500000
1890.278244	1773.900000
1892.039519	1812.700000
1893.800426	1801.100000
1895.560967	1791.800000
1897.319398	1785.500000
1899.077464	1792.300000
1900.833421	1791.600000
1902.590756	1787.900000
1904.347724	1814.700000
1906.102587	1793.500000
1907.855344	1780.400000
1909.607738	1787.300000
1911.361507	1769.400000
1913.113173	1776.300000
1914.862737	1750.700000
1916.613677	1791.600000
1918.364253	1748.200000
1920.110990	1752.300000
1921.859104	1769.800000
1923.605118	1763.200000
1925.352508	1776.500000
1927.097799	1784.100000
1928.840993	1788.900000
1930.585563	1742.600000
1932.328036	1774.900000
1934.070149	1766.000000
1935.811902	1779.700000
1937.553296	1746.900000
1939.292596	1766.300000
1941.031536	1743.300000
1942.770119	1759.100000
1944.506609	1754.000000
1946.242742	1769.350000
1947.980249	1784.700000
1949.713934	1777.600000
1951.448994	1752.000000
1953.181966	1775.500000
1954.914581	1759.900000
1956.646839	1789.200000
1958.378741	1753.900000
1960.108557	1772.500000
1961.836289	1739.100000
1963.565394	1769.500000
1965.294145	1737.200000
1967.020812	1790.400000
1968.747125	1770.800000
1970.474811	1771.300000
1972.196961	1751.800000
1973.922212	1765.800000
1975.643657	1765.100000
1977.368201	1787.800000
1979.090666	1748.100000
1980.809327	1773.900000
1982.531087	1786.000000
1984.249045	1754.800000
1985.968376	1752.700000
1987.683908	1767.900000
1989.404261	1769.700000
1991.120814	1767.900000
1992.833571	1762.200000
1994.549425	1764.100000
1996.263205	1761.300000
1997.976636	1761.900000
1999.687996	1748.600000
2001.400729	1774.700000
2003.109670	1746.800000
2004.821705	1796.400000
2006.528230	1741.800000
2008.237848	1756.800000
2009.945398	1771.100000
2011.652601	1780.900000
2013.357738	1744.300000
2015.062528	1759.900000
2016.768690	1758.600000
2018.471070	1750.700000
2020.174822	1794.500000
2021.876510	1759.600000
2023.577854	1754.500000
2025.278852	1731.400000
2026.977790	1757.800000
2028.678098	1746.900000
2030.374632	1714.800000
2032.072537	1753.900000
2033.768383	1716.300000
2035.467315	1760.200000
2037.160761	1730.800000
2038.855579	1715.300000
2040.550053	1738.800000
2042.240759	1749.300000
2043.934549	1720.400000
2045.624572	1747.700000
2047.315966	1747.200000
2049.005307	1784.600000
2050.696018	1737.400000
2052.382966	1739.900000
2054.069575	1726.000000
2055.757554	1714.100000
2057.441773	1731.900000
2059.127362	1707.500000
2060.812612	1726.900000
2062.495814	1697.400000
2064.180385	1751.900000
2065.859494	1700.100000
2067.543388	1685.300000
2069.221822	1709.200000
2070.903332	1678.100000
2072.581092	1717.900000
2074.258514	1704.600000
2075.937306	1665.900000
2077.614056	1708.900000
2079.288764	1721.400000
2080.964841	1684.200000
2082.638878	1696.200000
2084.312579	1692.400000
2085.985945	1674.300000
2087.657273	1680.000000
2089.328266	1674.400000
2090.998925	1687.900000
2092.669249	1717.200000
2094.339240	1695.500000
2096.007195	1683.600000
2097.674817	1669.700000
2099.340404	1664.600000
2101.007361	1717.300000
2102.672283	1698.900000
2104.336874	1714.200000
2105.999433	1684.000000
2107.663360	1717.700000
2109.325257	1697.900000
2110.986822	1675.300000
2112.648056	1684.300000
2114.307262	1713.700000
2115.966137	1682.100000
2117.624683	1721.800000
2119.282899	1715.800000
2120.937391	1708.100000
2122.594948	1726.600000
2124.252176	1703.700000
2125.905682	1708.500000
2127.560556	1700.500000
2129.211712	1696.300000
2130.865929	1691.600000
2132.516430	1673.800000
2134.168297	1723.400000
2135.814756	1676.800000
2137.465970	1687.000000
2139.113470	1680.100000
2140.762337	1714.900000
2142.409186	1691.800000
2144.055708	1690.900000
2145.701905	1710.000000
2147.344394	1665.400000
2148.989941	1717.500000
2150.631781	1677.100000
2152.276678	1674.100000
2153.917870	1645.800000
2155.558738	1673.000000
2157.199282	1677.500000
2158.837814	1668.300000
2160.477712	1663.800000
2162.113910	1661.900000
2163.751475	1663.400000
2165.388716	1650.500000
2167.023948	1659.000000
2168.658859	1653.800000
2170.293448	1610.800000
2171.927715	1671.700000
2173.558289	1640.900000
2175.191915	1627.200000
2176.821849	1668.400000
2178.453148	1616.100000
2180.082442	1613.500000
2181.711417	1654.600000
2183.340073	1624.500000
2184.968409	1633.700000
2186.594742	1623.800000
2188.220757	1620.000000
2189.844771	1621.600000
2191.470149	1638.400000
2193.093528	1639.300000
2194.718270	1615.600000
2196.339332	1624.900000
2197.960077	1612.500000
2199.582187	1644.600000
2201.202299	1607.200000
2202.820414	1614.800000
2204.438214	1627.700000
2206.055699	1580.400000
2207.672868	1604.200000
2209.289722	1590.000000
2210.906261	1624.300000
2212.520806	1613.600000
2214.133359	1604.700000
2215.747276	1596.200000
2217.359202	1588.500000
2218.972491	1604.700000
2220.583790	1645.500000
2222.193099	1611.500000
2223.803772	1631.000000
2225.412456	1616.600000
2227.020828	1631.100000
2228.627212	1596.400000
2230.234960	1597.700000
2231.840721	1606.200000
2233.446171	1600.900000
2235.049636	1602.500000
2236.654464	1598.400000
2238.257309	1572.200000
2239.858170	1607.200000
2241.460393	1632.900000
2243.060635	1622.500000
2244.662239	1597.400000
2246.260191	1595.600000
2247.859505	1585.700000
2249.456839	1629.800000
2251.053864	1596.800000
2252.652252	1626.400000
2254.246991	1603.100000
2255.839753	1589.600000
2257.433878	1600.100000
2259.029364	1600.200000
2260.621206	1603.000000
2262.212741	1607.500000
2263.805637	1586.100000
2265.393224	1628.600000
2266.985508	1583.000000
2268.572484	1616.200000
2270.162489	1615.500000
2271.747189	1600.900000
2273.336583	1579.600000
2274.920674	1588.000000
2276.506127	1577.000000
2278.089610	1613.600000
2279.676120	1578.100000
2281.258996	1567.400000
2282.841568	1576.300000
2284.423837	1571.100000
2286.002477	1574.300000
2287.584140	1547.200000
2289.162175	1554.800000
2290.743233	1565.500000
2292.320665	1570.750000
2293.896132	1576.000000
2295.474622	1521.900000
2297.049488	1576.700000
2298.624053	1575.400000
2300.198318	1572.500000
2301.772282	1548.200000
2303.345946	1525.200000
2304.919309	1514.400000
2306.489054	1523.400000
2308.058500	1546.700000
2309.630965	1537.600000
2311.198154	1544.200000
2312.768362	1525.900000
2314.334955	1554.600000
2315.902908	1533.300000
2317.468905	1536.800000
2319.034605	1516.500000
2320.600008	1567.000000
2322.163456	1536.600000
2323.728264	1548.600000
2325.289464	1580.700000
2326.853678	1572.900000
2328.412631	1537.900000
2329.974597	1565.300000
2331.534613	1549.800000
2333.094333	1496.500000
2334.652104	1541.300000
2336.209580	1530.600000
2337.766762	1545.100000
2339.321997	1541.400000
2340.876937	1542.700000
2342.431584	1531.600000
2343.985937	1543.500000
2345.539996	1537.100000
2347.093761	1519.500000
2348.645583	1505.100000
2350.195461	1500.800000
2351.748347	1485.400000
2353.295991	1528.000000
2354.846642	1508.000000
2356.393702	1497.700000
2357.942121	1491.600000
2359.490247	1528.200000
2361.034785	1515.200000
2362.580681	1521.400000
2364.124639	1505.900000
2365.669954	1521.000000
2367.211684	1503.900000
2368.754771	1502.700000
2370.295923	1516.300000
2371.836785	1513.700000
2373.377358	1527.400000
2374.917641	1525.800000
2376.457636	1510.400000
2377.994053	1537.800000
2379.533471	1504.500000
2381.069312	1496.000000
2382.606509	1482.700000
2384.140131	1503.600000
2385.676754	1538.800000
2387.211445	1487.200000
2388.744207	1476.500000
2390.276682	1532.200000
2391.807230	1518.300000
2393.340775	1509.100000
2394.869109	1460.000000
2396.398799	1496.500000
2397.928204	1485.600000
2399.457323	1514.700000
2400.986158	1518.000000
2402.509787	1523.100000
2404.038053	1474.000000
2405.561115	1506.900000
2407.088811	1485.000000
2408.609668	1497.200000
2410.135158	1488.800000
2411.657087	1484.500000
2413.180372	1453.600000
2414.701736	1494.300000
2416.221180	1471.400000
2417.741979	1500.800000
2419.260859	1504.700000
2420.779457	1494.600000
2422.296138	1465.200000
2423.814173	1498.300000
2425.331927	1466.200000
2426.846130	1487.100000
2428.360052	1467.100000
2429.873694	1470.100000
2431.388691	1494.200000
2432.900139	1462.600000
2434.412942	1484.000000
2435.923832	1465.800000
2437.434442	1489.200000
2438.943141	1484.400000
2440.454827	1475.400000
2441.962968	1483.100000
2443.470832	1458.000000
2444.978418	1487.200000
2446.482463	1490.300000
2447.989494	1468.600000
2449.494616	1493.000000
2450.999461	1438.500000
2452.502399	1459.500000
2454.005060	1448.300000
2455.507445	1433.300000
2457.007925	1450.300000
2458.509758	1458.300000
2460.009687	1445.400000
2461.509340	1413.300000
2463.008717	1447.000000
2464.506192	1393.000000
2466.001765	1455.800000
2467.500319	1421.400000
2468.995343	1398.500000
2470.491721	1412.500000
2471.984571	1435.300000
2473.478775	1436.100000
2474.972705	1426.000000
2476.463112	1416.300000
2477.956495	1391.500000
2479.447981	1404.700000
2480.937570	1392.500000
2482.426887	1414.100000
2483.914309	1400.700000
2485.404706	1375.800000
2486.891584	1399.800000
2488.379814	1424.500000
2489.864528	1428.900000
2491.348971	1419.100000
2492.834766	1420.800000
2494.318668	1435.900000
2495.803922	1433.600000
2497.284042	1405.100000
2498.767134	1415.400000
2500.248336	1425.500000
2501.729269	1435.000000
2503.208313	1423.200000
2504.687088	1415.800000
2506.165595	1407.500000
2507.643834	1412.400000
2509.121804	1419.700000
2510.596270	1407.900000
2512.073704	1406.200000
2513.547635	1393.500000
2515.022916	1429.100000
2516.497931	1392.300000
2517.969444	1418.800000
2519.442307	1411.000000
2520.913288	1417.700000
2522.385619	1410.800000
2523.852837	1449.200000
2525.323020	1412.600000
2526.791323	1407.700000
2528.259361	1423.200000
2529.727134	1406.800000
2531.194642	1421.200000
2532.661885	1417.600000
2534.125636	1395.400000
2535.590737	1429.500000
2537.053961	1423.600000
2538.518535	1417.800000
2539.979619	1415.700000
2541.442053	1421.400000
2542.904224	1434.100000
2544.362909	1431.900000
2545.826166	1421.300000
2547.284326	1427.100000
2548.743835	1424.600000
2550.198251	1404.000000
2551.657236	1419.000000
2553.114350	1431.500000
2554.569593	1420.100000
2556.024575	1403.900000
2557.477687	1400.600000
2558.932148	1429.200000
2560.384740	1410.100000
2561.837072	1384.300000
2563.287536	1401.400000
2564.740956	1409.300000
2566.189294	1401.500000
2567.640588	1372.600000
2569.090015	1412.700000
2570.535970	1392.500000
2571.984881	1418.900000
2573.430320	1390.500000
2574.877108	1387.000000
2576.322032	1376.100000
2577.766699	1407.000000
2579.212713	1404.100000
2580.655260	1365.400000
2582.099155	1394.800000
2583.539585	1395.600000
2584.981362	1367.200000
2586.421280	1373.400000
2587.862545	1387.600000
2589.300349	1389.400000
2590.741102	1394.600000
2592.176792	1353.100000
2593.615432	1411.000000
2595.052215	1361.300000
2596.487141	1370.100000
2597.925016	1376.100000
2599.357832	1362.300000
2600.791996	1372.900000
2602.224306	1354.500000
2603.657962	1358.400000
2605.089765	1372.100000
2606.521315	1366.000000
2607.952611	1362.500000
2609.382055	1364.200000
2610.811248	1328.000000
2612.238589	1380.000000
2613.667277	1352.300000
2615.095712	1356.800000
2616.520700	1355.700000
2617.947035	1339.900000
2619.371521	1344.700000
2620.797353	1355.100000
2622.219741	1357.900000
2623.643475	1350.000000
2625.065362	1386.900000
2626.487000	1346.600000
2627.906792	1345.700000
2629.327930	1349.000000
2630.748818	1380.900000
2632.166268	1352.100000
2633.586657	1354.100000
2635.003609	1336.200000
2636.420313	1322.900000
2637.836768	1352.400000
2639.252975	1352.600000
2640.668933	1326.600000
2642.083051	1325.100000
2643.496922	1368.400000
2644.908953	1330.600000
2646.322329	1332.700000
2647.732275	1345.800000
2649.145156	1331.100000
2650.554610	1337.400000
2651.963817	1336.700000
2653.371187	1339.700000
2654.781493	1356.400000
2656.189962	1352.100000
2657.596596	1342.400000
2659.002985	1321.200000
2660.407540	1315.200000
2661.813439	1324.600000
2663.217505	1361.900000
2664.621326	1363.000000
2666.024904	1339.000000
2667.426649	1331.700000
2668.829738	1346.200000
2670.229409	1336.100000
2671.630424	1355.200000
2673.028023	1317.000000
2674.428552	1355.700000
2675.825666	1349.700000
2677.224123	1328.300000
2678.620752	1336.900000
2680.017139	1356.800000
2681.413285	1355.200000
2682.807604	1364.800000
2684.203266	1294.100000
2685.595518	1334.300000
2686.989114	1324.500000
2688.380885	1347.200000
2689.773998	1327.500000
2691.165288	1302.200000
2692.554755	1306.900000
2693.943982	1341.200000
2695.332970	1286.700000
2696.723300	1293.100000
2698.108645	1329.100000
2699.496914	1323.700000
2700.883363	1303.400000
2702.269573	1274.200000
2703.655545	1298.300000
2705.038117	1310.900000
2706.422032	1321.200000
2707.805709	1291.600000
2709.189148	1277.100000
2710.569191	1281.800000
2711.950576	1298.600000
2713.330145	1301.600000
2714.711056	1308.600000
2716.090151	1296.600000
2717.467433	1314.600000
2718.846056	1316.000000
2720.222866	1281.100000
2721.599440	1264.600000
2722.975778	1301.200000
2724.350304	1289.400000
2725.726171	1302.400000
2727.098651	1290.100000
2728.474047	1287.800000
2729.844483	1304.500000
2731.216260	1279.000000
2732.587802	1314.200000
2733.957536	1290.500000
2735.328611	1288.800000
2736.697877	1303.300000
2738.066911	1280.400000
2739.434137	1259.100000
2740.801131	1263.500000
2742.167892	1283.500000
2743.534420	1271.000000
2744.899143	1341.900000
2746.263635	1255.300000
2747.627894	1259.300000
2748.991921	1271.900000
2750.355717	1270.400000
2751.716139	1289.700000
2753.079472	1280.500000
2754.437862	1273.200000
2755.799162	1243.100000
2757.157091	1260.800000
2758.517930	1238.100000
2759.876968	1265.800000
2761.232638	1246.800000
2762.591216	1259.500000
2763.946428	1248.900000
2765.301410	1256.700000
2766.654595	1276.800000
2768.010687	1281.400000
2769.363415	1228.400000
2770.715914	1278.500000
2772.068185	1260.200000
2773.421795	1237.800000
2774.772043	1234.100000
2776.120498	1250.100000
2777.471857	1243.400000
2778.819857	1236.500000
2780.169196	1228.600000
2781.516742	1234.500000
2782.864061	1228.300000
2784.211154	1255.300000
2785.556456	1203.500000
2786.901532	1236.200000
2788.246382	1225.600000
2789.591005	1232.800000
2790.932277	1259.100000
2792.274887	1229.900000
2793.617271	1220.600000
2794.959431	1235.200000
2796.298241	1237.000000
2797.639950	1231.600000
2798.978312	1238.000000
2800.318011	1213.000000
2801.655924	1209.900000
2802.992053	1219.500000
2804.327958	1253.900000
2805.665201	1203.200000
2807.000660	1228.900000
2808.335896	1241.700000
2809.669349	1232.800000
2811.004140	1229.000000
2812.335589	1216.500000
2813.669934	1233.400000
2814.999381	1213.700000
2816.330165	1249.000000
2817.660727	1219.200000
2818.989510	1229.000000
2820.319629	1242.200000
2821.647970	1228.000000
2822.976090	1249.700000
2824.302432	1195.600000
2825.630111	1248.000000
2826.954457	1224.500000
2828.280138	1246.500000
2829.604044	1232.300000
2830.927731	1228.800000
2832.252753	1193.800000
2833.574445	1202.000000
2834.895919	1232.800000
2836.217174	1200.900000
2837.538210	1197.100000
2838.857474	1189.700000
2840.178073	1261.400000
2841.496900	1185.700000
2842.815509	1215.900000
2844.132347	1197.600000
2845.448968	1225.600000
2846.765372	1208.100000
2848.080007	1198.800000
2849.395976	1186.500000
2850.708625	1210.100000
2852.022610	1197.800000
2853.336377	1194.900000
2854.649929	1207.700000
2855.961713	1192.900000
2857.271731	1199.800000
2858.583084	1196.600000
2859.891122	1220.400000
2861.200495	1160.800000
2862.509652	1227.200000
2863.818594	1184.500000
2865.125773	1203.000000
2866.431188	1218.800000
2867.737938	1201.800000
2869.042925	1206.200000
2870.347699	1227.500000
2871.650711	1211.700000
2872.956605	1234.700000
2874.257643	1212.400000
2875.560016	1186.500000
2876.860629	1223.300000
2878.162576	1185.200000
2879.464310	1224.100000
2880.762739	1225.700000
2882.062503	1219.700000
2883.360508	1180.300000
2884.658302	1194.200000
2885.954340	1201.400000
2887.251711	1196.600000
2888.547326	1202.200000
2889.842730	1163.300000
2891.137924	1202.500000
2892.429819	1176.000000
2893.724591	1179.900000
2895.016066	1187.100000
2896.308874	1182.200000
2897.601472	1186.700000
2898.890776	1198.200000
2900.181412	1175.000000
2901.470297	1178.400000
2902.760515	1162.200000
2904.047440	1185.300000
2905.335699	1182.100000
2906.622207	1180.700000
2907.908508	1185.300000
2909.194600	1171.500000
2910.478944	1181.800000
2911.766160	1194.900000
2913.048548	1186.600000
2914.332269	1183.400000
2915.614244	1170.600000
2916.896012	1165.900000
2918.176034	1151.600000
2919.458926	1211.600000
2920.740073	1183.100000
2922.017938	1191.900000
2923.298672	1187.900000
2924.576125	1178.100000
2925.853372	1179.700000
2927.128878	1174.400000
2928.407251	1191.500000
2929.680809	1175.400000
2930.957235	1154.300000
2932.231920	1161.200000
2933.504865	1169.200000
2934.779140	1183.000000
2936.051676	1181.500000
2937.324008	1149.300000
2938.593066	1155.000000
2939.864990	1155.700000
2941.135176	1170.600000
2942.405159	1163.900000
2943.674938	1151.000000
2944.942980	1154.800000
2946.209287	1169.300000
2947.475391	1170.300000
2948.742825	1123.900000
2950.008525	1164.600000
2951.274022	1160.000000
2952.539317	1152.500000
2953.801347	1175.900000
2955.064708	1148.800000
2956.327866	1140.900000
2957.589293	1150.000000
2958.852049	1151.600000
2960.113074	1130.000000
2961.372367	1145.500000
2962.631461	1133.000000
2963.890354	1146.800000
2965.149047	1114.600000
2966.407540	1161.300000
2967.664304	1134.100000
2968.920868	1140.400000
2970.175705	1137.000000
2971.431871	1149.200000
2972.684781	1152.100000
2973.939021	1150.100000
2975.193062	1107.800000
2976.445377	1133.800000
2977.697494	1136.400000
2978.947886	1137.000000
2980.201133	1127.300000
2981.449603	1126.400000
2982.700927	1140.300000
2983.949003	1147.700000
2985.196881	1130.000000
2986.444562	1111.500000
2987.692047	1116.800000
2988.937810	1124.000000
2990.183376	1128.700000
2991.430270	1136.700000
2992.673920	1127.200000
2993.918898	1120.200000
2995.160633	1150.600000
2996.405218	1147.100000
2997.648085	1135.000000
2998.887711	1126.200000
3000.130187	1144.200000
3001.369424	1111.200000
3002.609988	1120.900000
3003.848835	1112.000000
3005.087488	1124.000000
3006.324425	1119.500000
3007.562689	1097.800000
3008.799239	1140.300000
3010.035594	1108.800000
3011.271756	1136.100000
3012.506205	1099.700000
3013.740460	1124.900000
3014.974522	1106.200000
3016.206872	1102.900000
3017.437510	1111.900000
3018.670994	1119.000000
3019.902766	1143.500000
3021.132828	1105.200000
3022.362698	1155.000000
3023.590858	1119.600000
3024.820344	1103.900000
3026.048122	1103.500000
3027.275708	1128.600000
3028.504620	1104.300000
3029.728790	1113.800000
3030.955803	1110.700000
3032.179592	1123.500000
3033.404708	1123.100000
3034.628117	1085.300000
3035.851337	1108.400000
3037.072851	1093.400000
3038.297206	1108.000000
3039.516826	1108.700000
3040.737771	1108.800000
3041.958528	1121.200000
3043.177581	1096.700000
3044.397960	1097.500000
3045.615122	1090.500000
3046.833609	1101.700000
3048.050394	1109.800000
3049.266992	1083.100000
3050.483401	1092.400000
3051.696598	1100.600000
3052.912632	1110.600000
3054.125454	1106.300000
3055.341113	1092.500000
3056.552049	1133.200000
3057.764310	1099.600000
3058.976385	1107.100000
3060.188273	1065.200000
3061.398463	1091.100000
3062.608467	1084.600000
3063.818286	1092.200000
3065.026408	1107.200000
3066.234344	1100.400000
3067.440586	1083.900000
3068.648151	1099.700000
3069.854023	1098.450000
3071.059709	1097.200000
3072.265210	1107.800000
3073.469018	1102.500000
3074.674150	1100.200000
3075.877590	1095.300000
3077.079337	1114.600000
3078.280901	1090.900000
3079.482281	1099.600000
3080.683477	1062.000000
3081.882983	1092.400000
3083.082305	1067.300000
3084.282951	1097.600000
3085.481907	1066.500000
3086.677669	1081.300000
3087.876260	1098.800000
3089.071657	1106.800000
3090.268377	1107.300000
3091.461905	1063.600000
3092.658261	1097.700000
3093.852931	1064.800000
3095.044410	1075.800000
3096.240220	1089.800000
3097.431337	1077.000000
3098.623776	1063.400000
3099.813028	1072.300000
3101.005106	1065.900000
3102.195499	1068.600000
3103.382707	1075.600000
3104.571238	1071.800000
3105.761091	1080.800000
3106.947759	1066.700000
3108.134248	1059.000000
3109.320557	1047.400000
3110.508188	1058.100000
3111.692638	1046.600000
3112.875407	1065.900000
3114.061000	1043.500000
3115.244912	1058.000000
3116.427146	1068.300000
3117.609201	1064.500000
3118.791079	1080.000000
3119.972778	1069.800000
3121.152799	1056.700000
3122.331144	1053.000000
3123.512310	1055.900000
3124.690300	1080.700000
3125.868113	1088.200000
3127.045749	1059.600000
3128.221710	1028.700000
3129.397494	1052.600000
3130.574600	1067.000000
3131.750031	1053.100000
3132.923789	1037.000000
3134.095875	1055.100000
3135.269281	1035.100000
3136.442512	1061.500000
3137.614070	1045.700000
3138.786950	1060.200000
3139.956662	1044.900000
3141.127695	1058.300000
3142.297057	1056.900000
3143.464750	1075.100000
3144.635258	1053.100000
3145.801107	1062.800000
3146.971266	1050.500000
3148.136767	1050.900000
3149.302095	1055.800000
3150.467249	1060.700000
3151.632229	1058.300000
3152.798530	1032.800000
3153.960177	1027.900000
3155.123145	1052.300000
3156.285939	1041.100000
3157.448561	1013.900000
3158.609518	1032.100000
3159.770302	1029.600000
3160.930914	1022.100000
3162.089863	1026.600000
3163.248639	1023.500000
3164.407244	1012.000000
3165.565677	985.500000
3166.723938	1004.700000
3167.880537	1015.400000
3169.035475	1037.500000
3170.191732	1013.700000
3171.346329	1017.400000
3172.500754	1006.300000
3173.653520	1018.100000
3174.806116	1021.900000
3175.958541	1032.500000
3177.110797	1010.300000
3178.262883	1026.700000
3179.411822	1016.300000
3180.563568	1019.700000
3181.713656	1000.200000
3182.862088	1021.700000
3184.010351	1023.700000
3185.158444	1018.000000
3186.306369	1030.500000
3187.452639	1022.400000
3188.598740	1001.400000
3189.743186	1021.800000
3190.887465	1024.800000
3192.031576	1039.900000
3193.177005	1050.700000
3194.319294	1000.500000
3195.461417	1022.300000
3196.603372	1027.700000
3197.745161	990.500000
3198.886782	1015.700000
3200.025267	1027.600000
3201.165070	994.500000
3202.306191	1002.500000
3203.444177	1001.100000
3204.580514	1014.500000
3205.716685	1046.300000
3206.854174	1030.800000
3207.990013	1022.300000
3209.127170	1008.900000
3210.259714	1025.300000
3211.396540	1022.700000
3212.528754	996.400000
3213.662286	1006.700000
3214.795652	983.400000
3215.925891	1009.300000
3217.058928	1004.400000
3218.188839	991.000000
3219.320067	986.800000
3220.448169	999.700000
3221.579068	977.100000
3222.708324	961.100000
3223.835935	983.100000
3224.960425	956.800000
3226.089190	983.700000
3227.214833	956.900000
3228.340313	976.400000
3229.464152	965.500000
3230.590785	1004.700000
3231.712821	982.600000
3232.836173	966.300000
3233.959363	994.900000
3235.082391	979.200000
3236.203779	991.100000
3237.325006	968.800000
3238.444594	971.300000
3239.564021	988.000000
3240.681810	1004.200000
3241.802392	981.600000
3242.919859	980.900000
3244.037167	975.000000
3245.154313	995.400000
3246.269824	978.800000
3247.386650	997.400000
3248.500365	999.300000
3249.616870	969.200000
3250.731741	1027.300000
3251.843503	1019.500000
3252.955106	1008.300000
3254.068023	985.700000
3255.180782	1009.500000
3256.290434	988.100000
3257.401400	997.900000
3258.512208	1006.700000
3259.621385	991.300000
3260.728930	995.500000
3261.837790	1004.200000
3262.946491	1004.400000
3264.052090	1004.600000
3265.159003	1004.700000
3266.264288	1019.400000
3267.370886	1006.800000
3268.474384	991.300000
3269.579196	995.300000
3270.683851	1022.400000
3271.785407	1013.700000
3272.886808	1001.200000
3273.989522	1008.700000
3275.092079	981.400000
3276.191540	993.300000
3277.293785	981.000000
3278.392934	1023.700000
3279.490459	1005.500000
3280.587828	995.500000
3281.687980	995.100000
3282.785038	1020.100000
3283.881941	1000.100000
3284.978689	991.500000
3286.070879	998.400000
3287.167317	986.000000
3288.262134	961.600000
3289.356795	989.600000
3290.449835	989.700000
3291.542721	961.300000
3292.633986	986.100000
3293.726564	968.000000
3294.817521	1000.900000
3295.906859	1008.500000
3296.996044	971.000000
3298.086542	977.800000
3299.173955	973.800000
3300.261216	1000.000000
3301.349789	984.000000
3302.438209	1014.400000
3303.522082	972.700000
3304.610197	997.800000
3305.695231	990.900000
3306.778648	995.300000
3307.863378	977.700000
3308.946493	954.900000
3310.030919	1008.200000
3311.112267	990.200000
3312.194927	985.400000
3313.275973	987.300000
3314.356868	989.800000
3315.436150	984.800000
3316.515281	990.600000
3317.595723	1008.400000
3318.673092	975.500000
3319.751771	1000.900000
3320.828840	998.700000
3321.905758	995.000000
3322.981065	941.200000
3324.056223	992.900000
3325.132692	994.100000
3326.206091	969.900000
3327.279341	982.200000
3328.353902	991.700000
3329.426853	981.800000
3330.498197	983.500000
3331.570851	971.600000
3332.640438	948.100000
3333.711336	980.600000
3334.780627	967.400000
3335.851229	956.600000
3336.920224	977.600000
3337.987613	976.500000
3339.053397	961.500000
3340.123407	951.600000
3341.190354	962.100000
3342.254239	951.600000
3343.320892	974.400000
3344.385940	996.200000
3345.449385	952.200000
3346.512684	955.800000
3347.575836	962.100000
3348.638842	971.000000
3349.701702	966.600000
3350.762960	969.000000
3351.821161	980.500000
3352.883583	945.000000
3353.942948	940.400000
3355.002168	950.200000
3356.062698	927.400000
3357.118718	961.400000
3358.177503	984.300000
3359.231780	959.600000
3360.288820	969.700000
3361.344263	971.600000
3362.401014	953.800000
3363.456168	985.900000
3364.509724	968.300000
3365.561683	954.400000
3366.616404	976.900000
3367.668076	974.400000
3368.719605	977.300000
3369.772443	961.900000
3370.822233	963.600000
3371.873331	948.300000
3372.921384	942.900000
3373.972197	954.600000
3375.019964	964.200000
3376.067589	957.500000
3377.115071	955.500000
3378.160961	958.200000
3379.208159	959.500000
3380.252315	938.500000
3381.299229	927.200000
3382.344551	929.300000
3383.386833	941.200000
3384.428973	975.200000
3385.472421	951.100000
3386.515729	951.700000
3387.557446	969.400000
3388.599022	925.700000
3389.640458	952.900000
3390.680304	934.200000
3391.718563	937.400000
3392.758129	948.900000
3393.797554	970.900000
3394.835392	940.900000
3395.871643	931.300000
3396.907755	951.900000
3397.945174	977.600000
3398.979560	945.100000
3400.015253	953.800000
3401.050807	958.500000
3402.083330	945.900000
3403.118606	942.100000
3404.150851	942.300000
3405.182958	951.300000
3406.213481	938.800000
3407.245312	954.900000
3408.277003	959.500000
3409.305668	947.600000
3410.334194	951.500000
3411.364028	948.500000
3412.393723	944.100000
3413.420393	970.700000
3414.448370	962.200000
3415.473322	950.500000
3416.501024	948.400000
3417.525703	943.800000
3418.551688	948.900000
3419.576093	972.900000
3420.600362	976.400000
3421.623052	965.700000
3422.645606	949.600000
3423.669466	967.600000
3424.690306	922.900000
3425.711011	936.200000
3426.733021	957.100000
3427.752013	928.500000
3428.770870	934.400000
3429.791032	949.300000
3430.808178	940.700000
