-118.448435	3.100000
-115.778835	18.000000
-113.112170	17.100000
-110.446257	8.800000
-107.783276	15.700000
-105.118866	28.000000
-102.457386	12.800000
-99.794476	14.500000
-97.136674	29.800000
-94.477441	14.200000
-91.818958	9.500000
-89.163398	18.200000
-86.506410	16.400000
-83.854519	19.400000
-81.201199	10.000000
-78.550799	21.500000
-75.898969	9.400000
-73.252230	21.400000
-70.604061	3.000000
-67.956636	12.700000
-65.312124	7.200000
-62.666184	11.700000
-60.025325	28.400000
-57.383037	14.400000
-54.743657	6.500000
-52.102849	4.100000
-49.462781	26.000000
-46.827785	12.900000
-44.191360	38.500000
-41.557839	31.000000
-38.922889	25.100000
-36.293004	27.000000
-33.659527	29.700000
-31.031112	-0.200000
-28.403430	17.100000
-25.774321	26.500000
-23.150268	25.300000
-20.522626	34.900000
-17.900037	29.500000
-15.278180	44.200000
-12.657053	74.600000
-10.036656	146.300000
-7.419147	450.700000
-4.800210	1223.100000
-2.184159	2768.600000
0.431164	3337.400000
3.045760	1860.900000
5.657473	267.900000
8.270615	46.700000
10.878723	23.200000
13.490413	40.700000
16.097072	12.000000
18.705159	22.300000
21.312522	24.100000
23.914860	23.200000
26.520776	17.300000
29.121670	33.000000
31.723992	8.000000
34.321297	30.600000
36.922177	26.600000
39.518043	18.900000
42.115336	27.900000
44.711910	25.600000
47.303475	33.000000
49.896468	28.600000
52.486600	4.900000
55.078160	18.000000
57.666860	21.500000
60.256987	44.100000
62.842116	22.300000
65.428671	25.800000
68.014513	23.300000
70.597501	36.900000
73.181915	21.700000
75.759201	29.800000
78.340053	26.800000
80.918056	24.900000
83.495349	26.600000
86.074068	40.000000
88.647806	30.400000
91.222970	43.000000
93.795291	34.400000
96.366904	32.000000
98.935677	35.500000
101.505877	22.700000
104.073239	45.700000
106.642026	78.800000
109.207977	86.500000
111.771093	100.900000
114.337765	86.500000
116.895216	148.900000
119.458352	208.300000
122.016529	291.800000
124.578259	419.400000
127.135034	669.300000
129.693234	967.300000
132.246482	1456.600000
134.799031	2100.900000
137.355131	2977.100000
139.906284	3973.200000
142.456738	5000.100000
145.006496	5734.700000
147.553434	6343.900000
150.099676	6703.200000
152.647344	6909.100000
155.194317	6935.300000
157.736353	6872.200000
160.277696	6844.100000
162.818346	6900.200000
165.360422	6810.600000
167.899687	6888.100000
170.436142	6769.100000
172.971907	6858.300000
175.509097	6702.400000
178.045595	6661.000000
180.579288	6661.300000
183.110178	6668.900000
185.640379	6616.300000
188.172005	6641.100000
190.700830	6615.400000
193.226856	6646.300000
195.752197	6643.400000
198.278962	6608.300000
200.802930	6614.200000
203.326214	6599.800000
205.848813	6565.300000
208.368619	6564.900000
210.887742	6477.200000
213.406182	6496.300000
215.926046	6567.400000
218.438909	6488.400000
220.955303	6506.600000
223.471015	6557.100000
225.981838	6511.700000
228.494085	6568.600000
231.003549	6642.300000
233.512335	6611.600000
236.020443	6665.000000
238.529974	6659.400000
241.034625	6606.900000
243.538601	6591.900000
246.044000	6634.300000
248.544524	6738.500000
251.048571	6703.900000
253.545648	6750.000000
256.046247	6711.100000
258.544075	6723.100000
261.041230	6728.400000
263.537712	6752.600000
266.029331	6703.400000
268.524470	6766.100000
271.016843	6676.900000
273.508545	6707.300000
275.997483	6692.900000
278.487846	6717.600000
280.975447	6692.500000
283.460288	6685.500000
285.948643	6698.200000
288.430059	6687.800000
290.914989	6745.200000
293.395074	6743.000000
295.878671	6694.100000
298.357425	6779.000000
300.837603	6730.700000
303.315028	6725.300000
305.791790	6744.000000
308.267889	6714.600000
310.741239	6681.600000
313.213927	6746.300000
315.685954	6744.800000
318.157320	6850.800000
320.625942	6810.900000
323.093904	6899.600000
325.563289	6769.900000
328.027850	6756.000000
330.495916	6682.600000
332.959162	6712.200000
335.421750	6766.800000
337.883682	6697.700000
340.344957	6660.000000
342.803498	6644.800000
345.263461	6595.700000
347.720691	6600.500000
350.177267	6536.500000
352.633189	6577.100000
355.086382	6425.100000
357.540996	6410.100000
359.990809	6322.600000
362.444119	6297.800000
364.892629	6290.900000
367.340489	6228.800000
369.789770	6130.400000
372.234258	6120.900000
374.680168	6056.000000
377.125429	5960.500000
379.567970	5965.100000
382.009864	5844.400000
384.451111	5829.400000
386.889642	5739.400000
389.329595	5686.800000
391.766834	5675.600000
394.201361	5597.800000
396.639376	5542.300000
399.072614	5562.800000
401.507274	5509.400000
403.937160	5439.700000
406.370532	5457.500000
408.799134	5479.800000
411.227095	5356.700000
413.656476	5309.100000
416.081092	5384.000000
418.507130	5307.800000
420.932527	5240.700000
423.357284	5296.200000
425.777283	5298.100000
428.198703	5304.000000
430.617426	5247.200000
433.037570	5333.400000
435.455019	5279.700000
437.873888	5232.700000
440.290064	5276.600000
442.701493	5246.000000
445.116398	5274.900000
447.528613	5243.400000
449.940194	5230.000000
452.351141	5246.400000
454.759402	5235.900000
457.167030	5255.800000
459.574027	5222.600000
461.980391	5206.200000
464.384073	5190.500000
466.787125	5157.600000
469.189547	5187.900000
471.591340	5145.500000
473.990454	5141.900000
476.390988	5115.000000
478.790893	5169.600000
481.186075	5105.100000
483.584724	5104.700000
485.978653	5079.700000
488.371956	5061.800000
490.764633	5047.100000
493.156685	5069.900000
495.550156	5010.500000
497.938914	5046.300000
500.325006	4983.600000
502.712518	5003.900000
505.099406	4913.900000
507.483631	4901.200000
509.869275	4957.800000
512.252256	4957.100000
514.632577	4902.100000
517.014317	4949.800000
519.393398	4875.400000
521.773898	4910.800000
524.151740	4913.000000
526.526927	4875.600000
528.901496	4828.700000
531.277484	4849.600000
533.650818	4792.800000
536.025570	4791.000000
538.395637	4707.300000
540.765088	4757.800000
543.135957	4649.200000
545.502146	4609.300000
547.869753	4615.900000
550.234714	4523.300000
552.599062	4502.500000
554.962798	4435.300000
557.327951	4424.400000
559.688431	4377.500000
562.050330	4305.300000
564.409589	4253.100000
566.766209	4218.300000
569.126274	4106.100000
571.479649	4052.900000
573.836468	4062.600000
576.190651	3976.600000
578.544227	3945.700000
580.897194	3859.100000
583.247530	3787.900000
585.599282	3823.000000
587.944358	3736.000000
590.294898	3697.100000
592.638765	3676.700000
594.988092	3638.600000
597.332772	3604.300000
599.674826	3564.100000
602.018298	3508.000000
604.359147	3530.600000
606.699394	3470.300000
609.037020	3486.900000
611.378081	3436.300000
613.714504	3432.600000
616.052345	3416.600000
618.387567	3385.200000
620.720174	3391.900000
623.054197	3430.800000
625.385607	3422.200000
627.716418	3417.100000
630.046631	3450.700000
632.376246	3364.500000
634.701239	3393.000000
637.031673	3404.900000
639.357485	3373.200000
641.680691	3429.600000
644.005312	3431.400000
646.327329	3411.400000
648.648751	3399.500000
650.967570	3422.200000
653.287805	3431.100000
655.607447	3460.500000
657.924488	3504.700000
660.240937	3481.900000
662.554788	3467.400000
664.870055	3531.100000
667.182725	3595.200000
669.496810	3580.700000
671.806295	3643.200000
674.117196	3621.600000
676.425504	3698.500000
678.733224	3703.000000
681.042359	3688.200000
683.346901	3731.100000
685.650856	3794.000000
687.954226	3854.400000
690.259010	3847.200000
692.559208	3921.400000
694.860820	3970.000000
697.161848	3938.800000
699.458293	4008.400000
701.756154	4061.200000
704.053431	4044.000000
706.350125	4057.800000
708.642243	4110.800000
710.937772	4130.200000
713.228728	4193.200000
715.521098	4226.400000
717.810892	4244.400000
720.100107	4223.500000
722.388741	4278.400000
724.674804	4327.400000
726.962280	4372.100000
729.247186	4376.000000
731.531513	4403.900000
733.813272	4449.800000
736.096445	4448.900000
738.379041	4490.400000
740.657082	4550.000000
742.936536	4573.600000
745.215415	4635.100000
747.493718	4642.400000
749.767472	4691.300000
752.042640	4744.600000
754.317234	4732.900000
756.589268	4757.000000
758.862716	4821.300000
761.133606	4861.000000
763.401940	4849.500000
765.671687	4908.800000
767.938880	4908.300000
770.205502	4980.300000
772.471555	5045.500000
774.735055	5069.800000
776.999969	5119.900000
779.264313	5161.400000
781.524128	5160.400000
783.785356	5099.300000
786.046015	5180.600000
788.304129	5241.100000
790.559698	5237.700000
792.818658	5217.700000
795.071119	5291.400000
797.328947	5258.800000
799.582255	5325.600000
801.833024	5316.100000
804.085205	5329.200000
806.334848	5381.300000
808.585902	5382.400000
810.832445	5379.300000
813.080400	5374.200000
815.325821	5446.900000
817.572653	5411.800000
819.818924	5470.400000
822.060691	5518.600000
824.305840	5527.700000
826.544517	5581.500000
828.786577	5569.900000
831.024138	5587.900000
833.263110	5657.200000
835.499556	5674.300000
837.737413	5655.500000
839.972745	5718.100000
842.205554	5847.500000
844.439774	5866.200000
846.671472	5851.100000
848.902615	5941.000000
851.133203	6033.300000
853.363236	6105.300000
855.592716	6134.100000
857.817714	6288.600000
860.046087	6342.500000
862.269981	6478.400000
864.495285	6539.700000
866.716114	6708.800000
868.940315	6762.000000
871.160043	6880.800000
873.381182	7054.700000
875.601770	7113.600000
877.819848	7264.900000
880.039337	7347.100000
882.254359	7467.300000
884.468833	7559.100000
886.682760	7645.600000
888.896139	7705.400000
891.108971	7699.000000
893.321257	7733.000000
895.531040	7872.800000
897.740278	7718.600000
899.948971	7748.100000
902.155165	7780.100000
904.362768	7667.700000
906.567874	7600.600000
908.772436	7526.200000
910.974502	7409.000000
913.177978	7307.100000
915.378960	7161.200000
917.579401	7086.600000
919.781249	6967.000000
921.976707	6788.500000
924.175524	6687.500000
926.369902	6452.700000
928.567638	6301.700000
930.760938	6199.500000
932.955647	6106.300000
935.147870	5927.900000
937.339555	5814.800000
939.530702	5688.100000
941.719366	5659.100000
943.907493	5647.800000
946.093140	5464.700000
948.282139	5508.700000
950.466715	5448.600000
952.650756	5457.500000
954.838147	5428.600000
957.017234	5503.900000
959.199672	5424.800000
961.381576	5459.900000
963.561006	5456.500000
965.737963	5506.600000
967.916327	5519.400000
970.096099	5448.900000
972.269522	5423.000000
974.446291	5347.700000
976.618653	5386.300000
978.792423	5338.600000
980.961789	5270.900000
983.134500	5240.800000
985.304744	5153.400000
987.474460	5066.200000
989.643647	4952.900000
991.808437	4935.400000
993.976568	4854.700000
996.140305	4747.800000
998.305448	4668.300000
1000.468133	4648.000000
1002.630291	4556.400000
1004.789993	4529.700000
1006.949171	4478.600000
1009.109755	4377.500000
1011.267884	4319.500000
1013.425489	4285.800000
1015.582571	4183.800000
1017.739130	4137.800000
1019.891309	4111.100000
1022.044894	4051.100000
1024.197958	4019.700000
1026.348574	3902.800000
1028.500595	3908.700000
1030.648243	3892.300000
1032.799223	3821.500000
1034.945832	3795.100000
1037.091923	3796.600000
1039.237494	3735.400000
1041.384471	3767.800000
1043.525159	3670.700000
1045.669177	3677.600000
1047.810754	3647.100000
1049.951815	3640.500000
1052.094280	3571.600000
1054.230466	3566.300000
1056.369978	3584.700000
1058.505134	3508.900000
1060.643615	3510.400000
1062.777742	3419.400000
1064.911356	3421.100000
1067.046375	3382.000000
1069.177044	3373.700000
1071.309118	3343.600000
1073.438763	3314.700000
1075.567896	3307.300000
1077.696517	3255.600000
1079.824627	3191.600000
1081.950311	3174.800000
1084.075485	3140.200000
1086.202063	3149.500000
1088.324304	3053.400000
1090.447948	3068.100000
1092.567259	3017.100000
1094.691798	2955.900000
1096.810092	2933.100000
1098.929791	2825.600000
1101.047071	2842.900000
1103.163845	2744.000000
1105.280112	2751.600000
1107.393964	2671.700000
1109.509219	2634.000000
1111.620152	2606.400000
1113.734396	2560.300000
1115.844320	2550.300000
1117.955648	2472.600000
1120.066471	2424.300000
1122.172979	2377.700000
1124.282795	2353.200000
1126.388297	2321.200000
1128.495202	2298.700000
1130.595892	2247.900000
1132.701794	2196.500000
1134.803387	2199.100000
1136.906383	2151.900000
1139.008878	2122.500000
1141.105166	2073.300000
1143.206662	2034.300000
1145.303855	2033.900000
1147.400549	2010.500000
1149.496745	1957.900000
1151.592444	1932.100000
1153.687645	1935.800000
1155.780449	1908.100000
1157.874655	1835.400000
1159.962670	1852.100000
1162.055883	1835.900000
1164.142908	1804.700000
1166.233232	1792.000000
1168.319269	1728.500000
1170.408603	1743.200000
1172.491756	1715.000000
1174.576311	1700.000000
1176.662268	1683.400000
1178.743943	1663.300000
1180.827020	1644.500000
1182.907711	1634.000000
1184.987910	1640.700000
1187.067618	1587.600000
1189.146835	1619.300000
1191.223670	1556.600000
1193.298124	1561.700000
1195.375870	1571.800000
1197.449345	1552.300000
1199.524221	1542.100000
1201.594830	1537.700000
1203.666841	1538.900000
1205.736475	1560.600000
1207.807510	1492.200000
1209.878057	1538.400000
1211.944343	1496.500000
1214.012030	1540.700000
1216.077345	1477.100000
1218.144060	1472.700000
1220.206519	1497.500000
1222.272263	1471.900000
1224.333754	1500.300000
1226.396644	1459.400000
1228.457167	1428.600000
1230.517206	1474.700000
1232.576763	1462.900000
1234.633954	1484.600000
1236.690664	1471.900000
1238.745011	1432.400000
1240.802638	1418.700000
1242.857903	1435.200000
1244.908927	1433.400000
1246.961351	1457.200000
1249.013295	1442.200000
1251.062881	1410.600000
1253.111988	1415.500000
1255.160617	1434.600000
1257.208767	1426.900000
1259.256439	1451.600000
1261.299880	1413.900000
1263.346596	1406.700000
1265.390959	1424.600000
1267.434846	1437.700000
1269.476382	1401.600000
1271.515567	1388.800000
1273.558026	1413.500000
1275.596262	1423.300000
1277.635897	1406.900000
1279.675057	1412.700000
1281.709998	1436.200000
1283.746339	1397.400000
1285.780334	1419.500000
1287.815728	1408.600000
1289.846908	1432.000000
1291.879487	1423.000000
1293.911593	1427.800000
1295.941359	1451.500000
1297.972523	1431.700000
1299.999479	1402.700000
1302.027833	1408.300000
1304.051983	1449.400000
1306.079397	1433.500000
1308.102609	1430.100000
1310.127219	1445.400000
1312.149495	1449.700000
1314.173168	1440.100000
1316.194508	1403.500000
1318.215380	1425.200000
1320.235786	1430.600000
1322.251997	1442.300000
1324.269606	1450.500000
1326.284888	1436.500000
1328.303427	1418.200000
1330.317778	1439.200000
1332.329803	1452.300000
1334.345085	1421.400000
1336.356182	1427.200000
1338.368676	1413.400000
1340.376987	1459.600000
1342.388554	1423.900000
1344.394081	1434.400000
1346.402864	1437.600000
1348.407469	1432.800000
1350.415328	1423.200000
1352.422725	1450.500000
1354.424091	1421.400000
1356.426854	1422.700000
1358.429156	1426.200000
1360.430999	1417.600000
1362.432382	1414.700000
1364.431452	1427.600000
1366.430063	1418.000000
1368.428216	1415.000000
1370.425911	1433.500000
1372.419442	1395.400000
1374.414370	1393.300000
1376.408841	1426.500000
1378.402855	1399.000000
1380.394561	1418.100000
1382.385813	1414.700000
1384.374759	1401.900000
1386.365100	1386.700000
1388.354986	1405.700000
1390.342569	1383.600000
1392.329697	1415.600000
1394.314525	1386.800000
1396.300746	1407.600000
1398.284668	1388.800000
1400.268137	1419.800000
1402.251154	1389.900000
1404.231872	1422.700000
1406.213986	1403.800000
1408.193802	1398.900000
1410.173168	1384.800000
1412.148394	1391.800000
1414.126860	1390.900000
1416.103031	1377.100000
1418.078754	1368.500000
1420.054027	1384.900000
1422.027009	1368.400000
1423.999543	1409.300000
1425.971630	1384.600000
1427.943268	1390.600000
1429.910778	1364.600000
1431.883363	1389.500000
1433.848141	1404.900000
1435.817991	1393.800000
1437.783718	1358.700000
1439.750837	1373.300000
1441.715673	1364.000000
1443.676390	1360.100000
1445.642174	1373.900000
1447.602003	1343.800000
1449.563225	1333.800000
1451.525840	1340.300000
1453.484340	1345.700000
1455.442398	1351.100000
1457.400013	1369.600000
1459.357187	1324.800000
1461.312085	1302.300000
1463.268375	1338.100000
1465.222391	1349.700000
1467.175967	1337.900000
1469.127270	1314.100000
1471.079965	1361.300000
1473.030389	1351.300000
1474.980373	1326.200000
1476.929919	1338.100000
1478.877196	1286.700000
1480.822206	1306.200000
1482.768607	1324.700000
1484.714572	1318.400000
1486.660098	1318.900000
1488.603360	1309.800000
1490.546185	1327.900000
1492.486747	1299.500000
1494.428700	1328.300000
1496.368392	1309.900000
1498.307648	1335.400000
1500.246469	1296.900000
1502.183031	1302.800000
1504.120984	1292.200000
1506.056679	1313.800000
1507.991939	1322.900000
1509.924944	1304.100000
1511.857516	1288.200000
1513.789656	1316.900000
1515.721364	1312.600000
1517.650818	1334.600000
1519.581663	1319.000000
1521.512077	1302.900000
1523.438417	1283.200000
1525.366149	1340.700000
1527.291630	1295.100000
1529.216682	1313.000000
1531.141305	1288.300000
1533.065499	1310.200000
1534.987446	1293.600000
1536.910782	1346.800000
1538.831873	1317.000000
1540.750719	1327.400000
1542.670955	1305.600000
1544.588947	1329.600000
1546.506513	1315.800000
1548.421837	1311.400000
1550.338551	1296.100000
1552.251210	1287.000000
1554.167073	1284.200000
1556.080696	1323.900000
1557.992082	1310.300000
1559.904856	1305.300000
1561.813581	1336.700000
1563.723696	1310.600000
1565.633387	1289.400000
1567.542654	1314.000000
1569.449688	1296.400000
1571.354489	1309.300000
1573.260679	1320.200000
1575.164637	1268.200000
1577.068175	1290.800000
1578.971291	1310.200000
1580.872179	1286.000000
1582.774454	1277.500000
1584.674502	1277.400000
1586.575937	1275.300000
1588.473339	1258.000000
1590.370322	1286.100000
1592.266887	1269.300000
1594.164840	1250.700000
1596.056958	1272.000000
1597.952269	1270.100000
1599.847163	1290.700000
1601.739835	1260.400000
1603.632091	1237.000000
1605.522126	1263.800000
1607.411747	1256.300000
1609.300951	1227.600000
1611.189741	1254.400000
1613.076314	1233.800000
1614.964273	1265.600000
1616.848216	1273.300000
1618.733547	1255.100000
1620.618463	1248.900000
1622.501166	1256.200000
1624.385256	1242.600000
1626.265335	1248.600000
1628.146800	1257.800000
1630.026055	1209.500000
1631.906696	1256.400000
1633.781533	1252.000000
1635.661352	1261.000000
1637.537165	1242.300000
1639.412568	1225.900000
1641.289358	1221.600000
1643.160350	1281.100000
1645.034524	1262.500000
1646.904700	1236.600000
1648.778056	1249.500000
1650.649209	1247.500000
1652.518160	1256.600000
1654.388497	1253.200000
1656.254840	1236.600000
1658.122569	1272.600000
1659.988100	1204.500000
1661.855015	1253.600000
1663.717942	1248.300000
1665.582254	1201.200000
1667.444370	1237.500000
1669.306082	1210.900000
1671.169178	1207.300000
1673.030080	1231.700000
1674.888788	1234.200000
1676.747093	1204.400000
1678.606783	1242.700000
1680.460706	1207.200000
1682.317801	1211.400000
1684.174494	1209.100000
1686.027211	1220.800000
1687.883098	1212.900000
1689.735012	1226.600000
1691.586525	1214.700000
1693.437637	1198.000000
1695.288349	1215.800000
1697.138660	1201.700000
1698.986787	1214.100000
1700.836297	1236.100000
1702.680059	1213.300000
1704.528770	1219.100000
1706.371736	1207.400000
1708.217867	1213.500000
1710.060037	1193.500000
1711.905371	1219.100000
1713.744965	1215.900000
1715.585943	1237.100000
1717.428304	1213.800000
1719.266709	1199.600000
1721.106497	1196.300000
1722.944110	1189.200000
1724.781327	1200.500000
1726.616371	1199.000000
1728.452798	1222.000000
1730.287053	1197.900000
1732.120913	1199.600000
1733.954380	1185.500000
1735.783900	1199.500000
1737.616579	1184.400000
1739.445314	1194.800000
1741.277207	1171.500000
1743.105157	1202.100000
1744.932715	1200.000000
1746.759881	1208.000000
1748.586656	1184.000000
1750.413040	1175.700000
1752.235487	1179.100000
1754.061088	1192.700000
1755.882755	1199.800000
1757.705804	1196.200000
1759.526692	1196.500000
1761.347190	1207.100000
1763.169070	1178.600000
1764.985250	1172.600000
1766.804582	1174.700000
1768.619987	1171.700000
1770.438542	1150.800000
1772.253172	1177.900000
1774.067416	1180.700000
1775.881272	1193.300000
1777.694742	1168.000000
1779.506059	1170.600000
1781.318757	1172.800000
1783.131068	1191.600000
1784.939462	1158.600000
1786.749237	1161.200000
1788.555096	1127.100000
1790.364101	1154.000000
1792.169193	1163.700000
1793.975666	1150.000000
1795.781755	1147.700000
1797.583934	1187.000000
1799.389256	1174.000000
1801.190670	1143.200000
1802.993464	1148.200000
1804.792352	1134.800000
1806.592621	1147.200000
1808.392508	1130.200000
1810.190254	1172.600000
1811.987618	1163.300000
1813.784603	1137.000000
1815.581207	1167.200000
1817.375672	1158.900000
1819.171516	1132.600000
1820.961706	1157.700000
1822.756792	1141.700000
1824.546225	1147.600000
1826.338795	1140.900000
1828.129230	1115.300000
1829.917531	1158.300000
1831.708967	1143.900000
1833.494757	1174.800000
1835.281927	1155.100000
1837.066965	1146.000000
1838.855137	1137.800000
1840.639423	1124.200000
1842.421580	1153.000000
1844.205115	1140.300000
1845.986522	1138.200000
1847.769308	1142.100000
1849.548214	1166.800000
1851.328498	1156.800000
1853.106656	1152.600000
1854.886193	1130.100000
1856.663605	1139.400000
1858.438893	1151.300000
1860.215560	1140.500000
1861.990103	1154.300000
1863.766025	1115.000000
1865.536326	1136.100000
1867.309755	1130.800000
1869.081064	1151.600000
1870.852003	1131.200000
1872.624318	1145.800000
1874.391020	1130.800000
1876.160848	1149.000000
1877.926812	1140.800000
1879.695900	1103.400000
1881.461126	1119.800000
1883.225983	1119.800000
1884.992218	1138.000000
1886.754594	1128.000000
1888.516603	1090.900000
1890.278244	1111.100000
1892.039519	1099.900000
1893.800426	1114.000000
1895.560967	1120.800000
1897.319398	1117.800000
1899.077464	1126.000000
1900.833421	1113.600000
1902.590756	1102.100000
1904.347724	1118.300000
1906.102587	1115.300000
1907.855344	1101.500000
1909.607738	1105.300000
1911.361507	1091.300000
1913.113173	1105.600000
1914.862737	1098.500000
1916.613677	1084.600000
1918.364253	1088.700000
1920.110990	1110.600000
1921.859104	1087.700000
1923.605118	1095.000000
1925.352508	1115.500000
1927.097799	1096.500000
1928.840993	1080.800000
1930.585563	1093.300000
1932.328036	1108.400000
1934.070149	1122.900000
1935.811902	1092.800000
1937.553296	1099.400000
1939.292596	1122.100000
1941.031536	1086.700000
1942.770119	1099.400000
1944.506609	1085.500000
1946.242742	1102.350000
1947.980249	1119.200000
1949.713934	1099.700000
1951.448994	1100.900000
1953.181966	1128.500000
1954.914581	1095.300000
1956.646839	1108.400000
1958.378741	1116.300000
1960.108557	1124.400000
1961.836289	1116.100000
1963.565394	1115.000000
1965.294145	1093.200000
1967.020812	1122.700000
1968.747125	1123.000000
1970.474811	1080.600000
1972.196961	1116.100000
1973.922212	1108.200000
1975.643657	1161.800000
1977.368201	1129.700000
1979.090666	1115.100000
1980.809327	1114.500000
1982.531087	1110.800000
1984.249045	1115.300000
1985.968376	1117.200000
1987.683908	1134.700000
1989.404261	1109.600000
1991.120814	1085.200000
1992.833571	1110.800000
1994.549425	1145.200000
1996.263205	1082.800000
1997.976636	1136.600000
1999.687996	1144.900000
2001.400729	1136.200000
2003.109670	1096.200000
2004.821705	1120.500000
2006.528230	1099.600000
2008.237848	1127.500000
2009.945398	1105.000000
2011.652601	1106.900000
2013.357738	1114.200000
2015.062528	1102.700000
2016.768690	1086.300000
2018.471070	1138.400000
2020.174822	1110.700000
2021.876510	1114.100000
2023.577854	1120.300000
2025.278852	1114.000000
2026.977790	1091.500000
2028.678098	1104.500000
2030.374632	1104.100000
2032.072537	1120.900000
2033.768383	1106.600000
2035.467315	1088.300000
2037.160761	1098.100000
2038.855579	1097.900000
2040.550053	1107.400000
2042.240759	1092.500000
2043.934549	1095.400000
2045.624572	1095.200000
2047.315966	1123.900000
2049.005307	1108.000000
2050.696018	1075.300000
2052.382966	1103.400000
2054.069575	1067.800000
2055.757554	1077.100000
2057.441773	1082.400000
2059.127362	1078.500000
2060.812612	1064.700000
2062.495814	1074.400000
2064.180385	1108.200000
2065.859494	1079.700000
2067.543388	1086.900000
2069.221822	1065.500000
2070.903332	1072.100000
2072.581092	1085.100000
2074.258514	1086.800000
2075.937306	1090.600000
2077.614056	1059.700000
2079.288764	1087.100000
2080.964841	1096.300000
2082.638878	1084.700000
2084.312579	1081.800000
2085.985945	1096.700000
2087.657273	1039.500000
2089.328266	1036.400000
2090.998925	1101.600000
2092.669249	1090.500000
2094.339240	1063.800000
2096.007195	1086.800000
2097.674817	1074.600000
2099.340404	1045.100000
2101.007361	1059.700000
2102.672283	1074.900000
2104.336874	1100.500000
2105.999433	1071.200000
2107.663360	1092.400000
2109.325257	1096.900000
2110.986822	1125.700000
2112.648056	1093.400000
2114.307262	1066.600000
2115.966137	1097.600000
2117.624683	1060.700000
2119.282899	1103.700000
2120.937391	1077.700000
2122.594948	1096.900000
2124.252176	1062.200000
2125.905682	1100.500000
2127.560556	1060.300000
2129.211712	1109.900000
2130.865929	1074.600000
2132.516430	1068.700000
2134.168297	1081.700000
2135.814756	1073.800000
2137.465970	1056.100000
2139.113470	1059.000000
2140.762337	1068.200000
2142.409186	1084.600000
2144.055708	1072.500000
2145.701905	1078.900000
2147.344394	1068.100000
2148.989941	1071.900000
2150.631781	1075.300000
2152.276678	1077.800000
2153.917870	1063.300000
2155.558738	1051.400000
2157.199282	1057.300000
2158.837814	1038.700000
2160.477712	1078.100000
2162.113910	1043.100000
2163.751475	1049.400000
2165.388716	1022.000000
2167.023948	1053.100000
2168.658859	1039.300000
2170.293448	1037.200000
2171.927715	1047.100000
2173.558289	1024.800000
2175.191915	1019.000000
2176.821849	1039.600000
2178.453148	1034.000000
2180.082442	1028.500000
2181.711417	1048.000000
2183.340073	1014.100000
2184.968409	1034.300000
2186.594742	1047.600000
2188.220757	1028.200000
2189.844771	1004.400000
2191.470149	1028.800000
2193.093528	1031.900000
2194.718270	1004.300000
2196.339332	1032.100000
2197.960077	1034.900000
2199.582187	1015.100000
2201.202299	995.600000
2202.820414	1007.000000
2204.438214	1022.200000
2206.055699	1003.400000
2207.672868	1020.500000
2209.289722	1013.100000
2210.906261	1026.700000
2212.520806	1005.100000
2214.133359	1000.300000
2215.747276	994.100000
2217.359202	1034.300000
2218.972491	1026.300000
2220.583790	1029.300000
2222.193099	1004.600000
2223.803772	1023.400000
2225.412456	1008.900000
2227.020828	1004.700000
2228.627212	1003.500000
2230.234960	991.800000
2231.840721	1022.700000
2233.446171	1029.900000
2235.049636	1022.600000
2236.654464	1010.800000
2238.257309	1012.500000
2239.858170	1020.000000
2241.460393	981.000000
2243.060635	1018.800000
2244.662239	1001.700000
2246.260191	1016.200000
2247.859505	1022.800000
2249.456839	1034.900000
2251.053864	994.200000
2252.652252	1007.100000
2254.246991	1015.800000
2255.839753	1001.100000
2257.433878	997.900000
2259.029364	993.400000
2260.621206	1001.800000
2262.212741	977.600000
2263.805637	999.300000
2265.393224	997.000000
2266.985508	1024.400000
2268.572484	991.700000
2270.162489	978.800000
2271.747189	970.000000
2273.336583	995.000000
2274.920674	1008.300000
2276.506127	1002.000000
2278.089610	1001.600000
2279.676120	984.500000
2281.258996	995.500000
2282.841568	988.000000
2284.423837	984.700000
2286.002477	983.800000
2287.584140	980.400000
2289.162175	1009.700000
2290.743233	980.000000
2292.320665	976.250000
2293.896132	972.500000
2295.474622	978.300000
2297.049488	987.800000
2298.624053	1008.700000
2300.198318	1003.500000
2301.772282	991.600000
2303.345946	968.100000
2304.919309	947.200000
2306.489054	957.300000
2308.058500	930.100000
2309.630965	965.400000
2311.198154	973.400000
2312.768362	970.500000
2314.334955	963.600000
2315.902908	961.400000
2317.468905	988.200000
2319.034605	965.700000
2320.600008	960.900000
2322.163456	968.500000
2323.728264	968.400000
2325.289464	988.100000
2326.853678	985.800000
2328.412631	985.300000
2329.974597	976.300000
2331.534613	980.300000
2333.094333	951.000000
2334.652104	967.500000
2336.209580	956.800000
2337.766762	945.100000
2339.321997	977.300000
2340.876937	988.000000
2342.431584	962.000000
2343.985937	964.300000
2345.539996	971.700000
2347.093761	997.300000
2348.645583	977.800000
2350.195461	997.900000
2351.748347	955.900000
2353.295991	982.200000
2354.846642	960.300000
2356.393702	960.200000
2357.942121	951.700000
2359.490247	971.100000
2361.034785	985.300000
2362.580681	970.400000
2364.124639	952.800000
2365.669954	957.000000
2367.211684	962.500000
2368.754771	966.100000
2370.295923	979.100000
2371.836785	943.000000
2373.377358	931.400000
2374.917641	960.900000
2376.457636	978.500000
2377.994053	956.500000
2379.533471	965.500000
2381.069312	955.000000
2382.606509	985.700000
2384.140131	920.900000
2385.676754	960.800000
2387.211445	963.300000
2388.744207	951.600000
2390.276682	949.400000
2391.807230	955.100000
2393.340775	943.900000
2394.869109	963.900000
2396.398799	950.400000
2397.928204	950.300000
2399.457323	954.000000
2400.986158	963.100000
2402.509787	977.400000
2404.038053	961.900000
2405.561115	966.000000
2407.088811	933.900000
2408.609668	933.700000
2410.135158	958.700000
2411.657087	961.000000
2413.180372	965.200000
2414.701736	941.200000
2416.221180	922.000000
2417.741979	952.500000
2419.260859	935.800000
2420.779457	923.500000
2422.296138	944.700000
2423.814173	955.500000
2425.331927	926.600000
2426.846130	941.000000
2428.360052	935.100000
2429.873694	944.200000
2431.388691	944.800000
2432.900139	938.000000
2434.412942	977.500000
2435.923832	956.000000
2437.434442	931.900000
2438.943141	941.200000
2440.454827	954.500000
2441.962968	931.300000
2443.470832	952.500000
2444.978418	940.000000
2446.482463	919.900000
2447.989494	908.000000
2449.494616	931.200000
2450.999461	911.400000
2452.502399	927.000000
2454.005060	914.200000
2455.507445	908.200000
2457.007925	908.600000
2458.509758	914.300000
2460.009687	910.000000
2461.509340	915.600000
2463.008717	900.100000
2464.506192	883.200000
2466.001765	896.000000
2467.500319	910.100000
2468.995343	903.300000
2470.491721	901.300000
2471.984571	912.400000
2473.478775	900.900000
2474.972705	911.700000
2476.463112	880.900000
2477.956495	915.200000
2479.447981	884.600000
2480.937570	904.200000
2482.426887	901.000000
2483.914309	899.600000
2485.404706	904.800000
2486.891584	890.100000
2488.379814	865.200000
2489.864528	880.900000
2491.348971	878.900000
2492.834766	891.700000
2494.318668	896.600000
2495.803922	868.300000
2497.284042	897.000000
2498.767134	880.700000
2500.248336	886.000000
2501.729269	914.800000
2503.208313	879.900000
2504.687088	895.200000
2506.165595	913.800000
2507.643834	904.100000
2509.121804	869.500000
2510.596270	884.400000
2512.073704	880.900000
2513.547635	900.600000
2515.022916	909.600000
2516.497931	855.700000
2517.969444	881.000000
2519.442307	906.200000
2520.913288	877.200000
2522.385619	876.000000
2523.852837	876.200000
2525.323020	915.800000
2526.791323	866.900000
2528.259361	911.900000
2529.727134	892.300000
2531.194642	913.200000
2532.661885	884.100000
2534.125636	897.300000
2535.590737	877.200000
2537.053961	891.500000
2538.518535	893.400000
2539.979619	914.500000
2541.442053	874.700000
2542.904224	875.100000
2544.362909	874.200000
2545.826166	875.200000
2547.284326	869.200000
2548.743835	885.300000
2550.198251	871.200000
2551.657236	898.300000
2553.114350	871.100000
2554.569593	894.500000
2556.024575	884.200000
2557.477687	865.900000
2558.932148	871.500000
2560.384740	866.800000
2561.837072	868.900000
2563.287536	908.800000
2564.740956	880.600000
2566.189294	854.300000
2567.640588	851.800000
2569.090015	860.700000
2570.535970	912.300000
2571.984881	906.400000
2573.430320	859.600000
2574.877108	885.400000
2576.322032	867.300000
2577.766699	872.400000
2579.212713	852.500000
2580.655260	866.800000
2582.099155	868.200000
2583.539585	866.000000
2584.981362	861.400000
2586.421280	852.400000
2587.862545	861.900000
2589.300349	875.700000
2590.741102	893.200000
2592.176792	846.500000
2593.615432	874.200000
2595.052215	864.400000
2596.487141	870.000000
2597.925016	862.900000
2599.357832	879.000000
2600.791996	869.000000
2602.224306	859.600000
2603.657962	863.700000
2605.089765	862.500000
2606.521315	863.000000
2607.952611	876.500000
2609.382055	860.100000
2610.811248	867.700000
2612.238589	876.200000
2613.667277	866.800000
2615.095712	887.800000
2616.520700	849.800000
2617.947035	851.500000
2619.371521	849.500000
2620.797353	846.600000
2622.219741	866.200000
2623.643475	835.700000
2625.065362	839.700000
2626.487000	853.700000
2627.906792	860.300000
2629.327930	860.200000
2630.748818	839.800000
2632.166268	868.300000
2633.586657	832.300000
2635.003609	877.800000
2636.420313	860.900000
2637.836768	842.700000
2639.252975	840.200000
2640.668933	816.300000
2642.083051	843.100000
2643.496922	833.800000
2644.908953	837.300000
2646.322329	838.400000
2647.732275	849.400000
2649.145156	850.000000
2650.554610	837.100000
2651.963817	850.100000
2653.371187	838.700000
2654.781493	856.500000
2656.189962	835.900000
2657.596596	870.400000
2659.002985	848.400000
2660.407540	844.800000
2661.813439	856.100000
2663.217505	838.100000
2664.621326	859.700000
2666.024904	830.500000
2667.426649	860.600000
2668.829738	845.500000
2670.229409	850.200000
2671.630424	870.500000
2673.028023	846.800000
2674.428552	822.500000
2675.825666	833.000000
2677.224123	844.600000
2678.620752	847.200000
2680.017139	823.200000
2681.413285	836.500000
2682.807604	869.400000
2684.203266	829.300000
2685.595518	823.100000
2686.989114	848.800000
2688.380885	862.800000
2689.773998	821.500000
2691.165288	836.200000
2692.554755	832.500000
2693.943982	836.400000
2695.332970	809.100000
2696.723300	841.100000
2698.108645	841.900000
2699.496914	834.100000
2700.883363	815.500000
2702.269573	825.400000
2703.655545	806.700000
2705.038117	834.000000
2706.422032	817.900000
2707.805709	812.100000
2709.189148	837.700000
2710.569191	819.900000
2711.950576	814.300000
2713.330145	830.300000
2714.711056	842.100000
2716.090151	801.700000
2717.467433	825.200000
2718.846056	823.800000
2720.222866	796.000000
2721.599440	804.700000
2722.975778	818.300000
2724.350304	795.000000
2725.726171	826.500000
2727.098651	851.100000
2728.474047	819.100000
2729.844483	824.500000
2731.216260	804.400000
2732.587802	807.200000
2733.957536	815.800000
2735.328611	823.600000
2736.697877	842.900000
2738.066911	822.700000
2739.434137	809.300000
2740.801131	774.700000
2742.167892	781.200000
2743.534420	777.900000
2744.899143	818.200000
2746.263635	792.300000
2747.627894	803.100000
2748.991921	805.200000
2750.355717	775.900000
2751.716139	806.600000
2753.079472	802.700000
2754.437862	787.500000
2755.799162	819.800000
2757.157091	799.300000
2758.517930	775.300000
2759.876968	808.900000
2761.232638	814.100000
2762.591216	787.000000
2763.946428	785.700000
2765.301410	800.300000
2766.654595	806.700000
2768.010687	789.400000
2769.363415	795.500000
2770.715914	816.300000
2772.068185	785.300000
2773.421795	777.300000
2774.772043	792.300000
2776.120498	739.400000
2777.471857	785.200000
2778.819857	804.300000
2780.169196	784.200000
2781.516742	773.400000
2782.864061	787.700000
2784.211154	780.100000
2785.556456	771.400000
2786.901532	798.500000
2788.246382	762.200000
2789.591005	787.800000
2790.932277	775.400000
2792.274887	772.000000
2793.617271	771.000000
2794.959431	776.700000
2796.298241	763.900000
2797.639950	770.800000
2798.978312	791.800000
2800.318011	792.300000
2801.655924	764.100000
2802.992053	768.300000
2804.327958	767.400000
2805.665201	779.400000
2807.000660	758.700000
2808.335896	780.300000
2809.669349	774.000000
2811.004140	767.700000
2812.335589	758.400000
2813.669934	781.000000
2814.999381	728.600000
2816.330165	756.300000
2817.660727	772.900000
2818.989510	779.500000
2820.319629	751.900000
2821.647970	767.300000
2822.976090	766.400000
2824.302432	740.200000
2825.630111	779.500000
2826.954457	787.100000
2828.280138	761.900000
2829.604044	770.900000
2830.927731	770.500000
2832.252753	764.200000
2833.574445	754.300000
2834.895919	756.000000
2836.217174	765.400000
2837.538210	750.600000
2838.857474	743.000000
2840.178073	763.100000
2841.496900	746.100000
2842.815509	763.700000
2844.132347	756.900000
2845.448968	743.600000
2846.765372	751.100000
2848.080007	754.600000
2849.395976	744.200000
2850.708625	779.900000
2852.022610	734.300000
2853.336377	753.600000
2854.649929	741.400000
2855.961713	766.600000
2857.271731	761.300000
2858.583084	750.700000
2859.891122	746.000000
2861.200495	732.000000
2862.509652	720.000000
2863.818594	755.000000
2865.125773	739.000000
2866.431188	723.600000
2867.737938	758.200000
2869.042925	750.800000
2870.347699	765.700000
2871.650711	766.400000
2872.956605	749.000000
2874.257643	751.600000
2875.560016	752.200000
2876.860629	750.000000
2878.162576	766.200000
2879.464310	741.300000
2880.762739	765.700000
2882.062503	755.100000
2883.360508	756.100000
2884.658302	730.200000
2885.954340	754.300000
2887.251711	737.000000
2888.547326	748.000000
2889.842730	745.400000
2891.137924	730.900000
2892.429819	753.500000
2893.724591	748.600000
2895.016066	754.700000
2896.308874	737.600000
2897.601472	727.500000
2898.890776	732.100000
2900.181412	731.900000
2901.470297	737.800000
2902.760515	725.000000
2904.047440	731.600000
2905.335699	752.500000
2906.622207	726.200000
2907.908508	736.600000
2909.194600	708.300000
2910.478944	741.600000
2911.766160	723.200000
2913.048548	737.000000
2914.332269	727.200000
2915.614244	738.200000
2916.896012	698.800000
2918.176034	773.800000
2919.458926	736.500000
2920.740073	753.000000
2922.017938	726.400000
2923.298672	735.700000
2924.576125	733.900000
2925.853372	749.400000
2927.128878	728.600000
2928.407251	730.600000
2929.680809	702.100000
2930.957235	721.600000
2932.231920	744.100000
2933.504865	715.000000
2934.779140	746.400000
2936.051676	732.900000
2937.324008	716.000000
2938.593066	737.100000
2939.864990	724.000000
2941.135176	690.200000
2942.405159	706.000000
2943.674938	704.100000
2944.942980	723.200000
2946.209287	719.700000
2947.475391	723.300000
2948.742825	723.700000
2950.008525	733.600000
2951.274022	735.500000
2952.539317	717.100000
2953.801347	727.700000
2955.064708	727.500000
2956.327866	692.200000
2957.589293	724.300000
2958.852049	720.900000
2960.113074	699.900000
2961.372367	728.800000
2962.631461	746.200000
2963.890354	729.700000
2965.149047	707.400000
2966.407540	718.600000
2967.664304	731.700000
2968.920868	739.300000
2970.175705	720.300000
2971.431871	727.000000
2972.684781	708.800000
2973.939021	730.600000
2975.193062	724.400000
2976.445377	728.000000
2977.697494	712.500000
2978.947886	711.300000
2980.201133	725.000000
2981.449603	691.400000
2982.700927	727.800000
2983.949003	709.800000
2985.196881	679.000000
2986.444562	708.100000
2987.692047	710.700000
2988.937810	731.800000
2990.183376	693.300000
2991.430270	720.100000
2992.673920	678.200000
2993.918898	711.100000
2995.160633	716.800000
2996.405218	696.200000
2997.648085	709.300000
2998.887711	686.400000
3000.130187	691.900000
3001.369424	697.400000
3002.609988	709.200000
3003.848835	697.700000
3005.087488	682.900000
3006.324425	696.600000
3007.562689	701.800000
3008.799239	711.200000
3010.035594	701.700000
3011.271756	704.700000
3012.506205	695.200000
3013.740460	696.800000
3014.974522	697.500000
3016.206872	686.100000
3017.437510	690.200000
3018.670994	682.300000
3019.902766	707.600000
3021.132828	697.700000
3022.362698	684.900000
3023.590858	694.100000
3024.820344	698.600000
3026.048122	690.900000
3027.275708	701.500000
3028.504620	708.800000
3029.728790	711.200000
3030.955803	698.100000
3032.179592	696.500000
3033.404708	714.100000
3034.628117	702.100000
3035.851337	703.200000
3037.072851	666.900000
3038.297206	669.600000
3039.516826	703.600000
3040.737771	684.400000
3041.958528	699.600000
3043.177581	705.800000
3044.397960	693.400000
3045.615122	703.900000
3046.833609	687.300000
3048.050394	710.200000
3049.266992	695.000000
3050.483401	710.400000
3051.696598	704.100000
3052.912632	683.900000
3054.125454	672.600000
3055.341113	696.300000
3056.552049	692.900000
3057.764310	701.700000
3058.976385	669.500000
3060.188273	693.200000
3061.398463	664.000000
3062.608467	689.600000
3063.818286	676.600000
3065.026408	680.800000
3066.234344	664.400000
3067.440586	698.200000
3068.648151	698.200000
3069.854023	683.900000
3071.059709	669.600000
3072.265210	667.400000
3073.469018	666.300000
3074.674150	687.700000
3075.877590	690.700000
3077.079337	691.200000
3078.280901	668.500000
3079.482281	703.600000
3080.683477	698.600000
3081.882983	723.300000
3083.082305	677.000000
3084.282951	679.800000
3085.481907	660.600000
3086.677669	698.000000
3087.876260	652.300000
3089.071657	694.000000
3090.268377	678.600000
3091.461905	655.700000
3092.658261	693.800000
3093.852931	698.100000
3095.044410	661.000000
3096.240220	679.600000
3097.431337	676.000000
3098.623776	670.300000
3099.813028	684.600000
3101.005106	689.000000
3102.195499	682.500000
3103.382707	670.000000
3104.571238	685.400000
3105.761091	663.400000
3106.947759	667.000000
3108.134248	685.700000
3109.320557	677.800000
3110.508188	690.900000
3111.692638	655.100000
3112.875407	688.900000
3114.061000	656.300000
3115.244912	684.500000
3116.427146	680.600000
3117.609201	665.500000
3118.791079	664.600000
3119.972778	675.200000
3121.152799	666.900000
3122.331144	672.700000
3123.512310	661.900000
3124.690300	664.600000
3125.868113	667.200000
3127.045749	695.500000
3128.221710	686.200000
3129.397494	658.300000
3130.574600	673.000000
3131.750031	679.000000
3132.923789	668.400000
3134.095875	671.000000
3135.269281	653.800000
3136.442512	678.600000
3137.614070	647.800000
3138.786950	679.800000
3139.956662	654.400000
3141.127695	654.300000
3142.297057	673.900000
3143.464750	670.300000
3144.635258	653.900000
3145.801107	660.700000
3146.971266	662.400000
3148.136767	652.200000
3149.302095	642.100000
3150.467249	668.000000
3151.632229	658.500000
3152.798530	665.700000
3153.960177	642.000000
3155.123145	658.000000
3156.285939	649.100000
3157.448561	640.900000
3158.609518	636.700000
3159.770302	652.300000
3160.930914	625.800000
3162.089863	657.900000
3163.248639	630.600000
3164.407244	651.900000
3165.565677	619.400000
3166.723938	655.600000
3167.880537	646.900000
3169.035475	637.800000
3170.191732	626.000000
3171.346329	648.300000
3172.500754	634.300000
3173.653520	637.400000
3174.806116	638.600000
3175.958541	605.900000
3177.110797	643.100000
3178.262883	669.700000
3179.411822	634.000000
3180.563568	648.800000
3181.713656	642.400000
3182.862088	635.400000
3184.010351	617.100000
3185.158444	639.500000
3186.306369	609.900000
3187.452639	650.100000
3188.598740	634.500000
3189.743186	668.200000
3190.887465	637.700000
3192.031576	648.700000
3193.177005	630.600000
3194.319294	632.500000
3195.461417	646.400000
3196.603372	626.700000
3197.745161	636.300000
3198.886782	640.100000
3200.025267	639.100000
3201.165070	653.900000
3202.306191	652.900000
3203.444177	630.400000
3204.580514	641.300000
3205.716685	649.200000
3206.854174	640.300000
3207.990013	659.500000
3209.127170	632.700000
3210.259714	637.400000
3211.396540	650.700000
3212.528754	635.500000
3213.662286	627.800000
3214.795652	623.000000
3215.925891	628.600000
3217.058928	633.100000
3218.188839	632.400000
3219.320067	654.700000
3220.448169	619.100000
3221.579068	604.800000
3222.708324	614.800000
3223.835935	617.800000
3224.960425	617.800000
3226.089190	626.900000
3227.214833	602.800000
3228.340313	591.600000
3229.464152	621.000000
3230.590785	623.000000
3231.712821	613.100000
3232.836173	623.500000
3233.959363	612.100000
3235.082391	614.800000
3236.203779	617.400000
3237.325006	601.900000
3238.444594	601.000000
3239.564021	620.600000
3240.681810	611.300000
3241.802392	618.000000
3242.919859	643.600000
3244.037167	635.200000
3245.154313	631.200000
3246.269824	644.300000
3247.386650	611.700000
3248.500365	648.200000
3249.616870	629.600000
3250.731741	626.600000
3251.843503	646.600000
3252.955106	636.100000
3254.068023	643.900000
3255.180782	632.500000
3256.290434	635.700000
3257.401400	635.400000
3258.512208	622.500000
3259.621385	640.000000
3260.728930	630.500000
3261.837790	628.300000
3262.946491	635.400000
3264.052090	632.700000
3265.159003	632.800000
3266.264288	614.500000
3267.370886	649.000000
3268.474384	613.200000
3269.579196	618.800000
3270.683851	616.400000
3271.785407	629.300000
3272.886808	641.700000
3273.989522	626.900000
3275.092079	612.800000
3276.191540	626.800000
3277.293785	619.400000
3278.392934	616.700000
3279.490459	636.600000
3280.587828	604.600000
3281.687980	641.400000
3282.785038	638.600000
3283.881941	628.000000
3284.978689	619.700000
3286.070879	637.900000
3287.167317	638.800000
3288.262134	640.700000
3289.356795	613.700000
3290.449835	605.800000
3291.542721	613.700000
3292.633986	621.300000
3293.726564	624.700000
3294.817521	633.100000
3295.906859	590.100000
3296.996044	621.000000
3298.086542	608.500000
3299.173955	615.400000
3300.261216	598.100000
3301.349789	629.000000
3302.438209	610.700000
3303.522082	618.900000
3304.610197	627.000000
3305.695231	610.400000
3306.778648	611.000000
3307.863378	613.100000
3308.946493	602.500000
3310.030919	622.000000
3311.112267	623.000000
3312.194927	622.500000
3313.275973	608.800000
3314.356868	626.700000
3315.436150	620.600000
3316.515281	639.500000
3317.595723	618.500000
3318.673092	609.900000
3319.751771	614.400000
3320.828840	609.400000
3321.905758	638.400000
3322.981065	606.000000
3324.056223	639.700000
3325.132692	625.400000
3326.206091	617.300000
3327.279341	638.300000
3328.353902	631.800000
3329.426853	631.200000
3330.498197	609.900000
3331.570851	614.000000
3332.640438	609.500000
3333.711336	619.900000
3334.780627	628.300000
3335.851229	621.900000
3336.920224	619.400000
3337.987613	604.200000
3339.053397	593.900000
3340.123407	612.800000
3341.190354	591.400000
3342.254239	606.000000
3343.320892	596.700000
3344.385940	634.600000
3345.449385	600.500000
3346.512684	616.300000
3347.575836	598.700000
3348.638842	608.900000
3349.701702	602.500000
3350.762960	627.300000
3351.821161	603.800000
3352.883583	613.600000
3353.942948	592.200000
3355.002168	615.900000
3356.062698	601.300000
3357.118718	598.900000
3358.177503	605.300000
3359.231780	611.100000
3360.288820	615.500000
3361.344263	621.400000
3362.401014	610.600000
3363.456168	612.300000
3364.509724	617.600000
3365.561683	609.200000
3366.616404	584.700000
3367.668076	600.100000
3368.719605	580.900000
3369.772443	597.300000
3370.822233	597.300000
3371.873331	621.100000
3372.921384	618.800000
3373.972197	586.100000
3375.019964	643.100000
3376.067589	598.800000
3377.115071	605.500000
3378.160961	619.400000
3379.208159	632.300000
3380.252315	627.000000
3381.299229	612.400000
3382.344551	595.300000
3383.386833	595.200000
3384.428973	626.200000
3385.472421	603.300000
3386.515729	620.900000
3387.557446	624.000000
3388.599022	619.100000
3389.640458	624.200000
3390.680304	612.000000
3391.718563	638.300000
3392.758129	608.100000
3393.797554	622.000000
3394.835392	611.900000
3395.871643	604.900000
3396.907755	589.300000
3397.945174	616.200000
3398.979560	615.900000
3400.015253	613.600000
3401.050807	615.400000
3402.083330	591.300000
3403.118606	621.000000
3404.150851	593.400000
3405.182958	617.500000
3406.213481	627.200000
3407.245312	612.100000
3408.277003	596.200000
3409.305668	632.600000
3410.334194	603.400000
3411.364028	626.300000
3412.393723	599.300000
3413.420393	607.300000
3414.448370	596.800000
3415.473322	606.200000
3416.501024	611.800000
3417.525703	616.700000
3418.551688	599.200000
3419.576093	603.600000
3420.600362	596.700000
3421.623052	607.500000
3422.645606	592.900000
3423.669466	607.900000
3424.690306	598.200000
3425.711011	582.700000
3426.733021	615.400000
3427.752013	597.900000
3428.770870	589.200000
3429.791032	608.000000
3430.808178	607.100000
