-118.448435	11.700000
-115.778835	28.700000
-113.112170	-0.400000
-110.446257	13.900000
-107.783276	8.700000
-105.118866	9.200000
-102.457386	13.900000
-99.794476	12.800000
-97.136674	16.900000
-94.477441	12.700000
-91.818958	17.700000
-89.163398	13.200000
-86.506410	7.100000
-83.854519	18.200000
-81.201199	15.800000
-78.550799	23.400000
-75.898969	-5.900000
-73.252230	21.300000
-70.604061	18.100000
-67.956636	8.900000
-65.312124	28.000000
-62.666184	38.800000
-60.025325	4.200000
-57.383037	14.400000
-54.743657	-10.400000
-52.102849	14.900000
-49.462781	17.300000
-46.827785	20.100000
-44.191360	24.100000
-41.557839	8.600000
-38.922889	4.600000
-36.293004	30.700000
-33.659527	0.000000
-31.031112	16.200000
-28.403430	21.100000
-25.774321	16.200000
-23.150268	21.300000
-20.522626	21.000000
-17.900037	29.400000
-15.278180	42.800000
-12.657053	40.600000
-10.036656	100.300000
-7.419147	282.200000
-4.800210	886.800000
-2.184159	2226.400000
0.431164	2480.100000
3.045760	1281.500000
5.657473	172.600000
8.270615	43.000000
10.878723	50.400000
13.490413	24.900000
16.097072	35.600000
18.705159	24.600000
21.312522	30.700000
23.914860	8.100000
26.520776	27.900000
29.121670	16.700000
31.723992	24.300000
34.321297	38.600000
36.922177	42.000000
39.518043	40.300000
42.115336	26.600000
44.711910	20.500000
47.303475	22.600000
49.896468	9.900000
52.486600	41.700000
55.078160	21.000000
57.666860	28.600000
60.256987	30.600000
62.842116	31.900000
65.428671	37.400000
68.014513	17.800000
70.597501	29.400000
73.181915	32.900000
75.759201	22.100000
78.340053	29.700000
80.918056	22.400000
83.495349	20.000000
86.074068	29.500000
88.647806	22.500000
91.222970	45.800000
93.795291	33.000000
96.366904	27.700000
98.935677	38.300000
101.505877	39.800000
104.073239	46.400000
106.642026	46.600000
109.207977	76.100000
111.771093	65.500000
114.337765	89.800000
116.895216	118.800000
119.458352	181.600000
122.016529	216.300000
124.578259	317.500000
127.135034	471.800000
129.693234	726.400000
132.246482	1081.800000
134.799031	1593.400000
137.355131	2247.800000
139.906284	2989.000000
142.456738	3716.300000
145.006496	4290.400000
147.553434	4806.900000
150.099676	5019.800000
152.647344	5112.700000
155.194317	5252.400000
157.736353	5243.900000
160.277696	5208.600000
162.818346	5173.800000
165.360422	5127.200000
167.899687	5115.200000
170.436142	5111.500000
172.971907	5084.400000
175.509097	5058.600000
178.045595	5004.200000
180.579288	5010.400000
183.110178	5024.100000
185.640379	4979.400000
188.172005	4926.400000
190.700830	4968.700000
193.226856	4997.900000
195.752197	4959.700000
198.278962	4944.200000
200.802930	4952.300000
203.326214	4922.800000
205.848813	4909.600000
208.368619	4927.400000
210.887742	4943.200000
213.406182	4868.200000
215.926046	4952.800000
218.438909	4880.100000
220.955303	4919.400000
223.471015	4915.700000
225.981838	4917.800000
228.494085	4942.700000
231.003549	4945.100000
233.512335	4876.800000
236.020443	4974.300000
238.529974	5017.000000
241.034625	4994.300000
243.538601	4960.900000
246.044000	5008.500000
248.544524	5048.400000
251.048571	5027.400000
253.545648	5057.800000
256.046247	5058.500000
258.544075	5043.000000
261.041230	5026.700000
263.537712	5034.800000
266.029331	5063.900000
268.524470	5029.700000
271.016843	5045.700000
273.508545	5063.200000
275.997483	5050.700000
278.487846	5025.600000
280.975447	5072.400000
283.460288	5030.800000
285.948643	5010.300000
288.430059	5014.700000
290.914989	5019.700000
293.395074	5024.000000
295.878671	4996.000000
298.357425	5072.500000
300.837603	5072.200000
303.315028	5161.200000
305.791790	5048.400000
308.267889	5033.800000
310.741239	5051.000000
313.213927	5045.100000
315.685954	5032.200000
318.157320	5103.000000
320.625942	5132.000000
323.093904	5180.100000
325.563289	5105.400000
328.027850	5100.800000
330.495916	5074.100000
332.959162	5020.200000
335.421750	5103.500000
337.883682	5006.200000
340.344957	5042.000000
342.803498	4992.600000
345.263461	4980.400000
347.720691	4973.800000
350.177267	4953.200000
352.633189	4877.300000
355.086382	4826.100000
357.540996	4816.700000
359.990809	4829.200000
362.444119	4738.300000
364.892629	4709.300000
367.340489	4638.000000
369.789770	4678.500000
372.234258	4524.300000
374.680168	4504.000000
377.125429	4476.200000
379.567970	4501.700000
382.009864	4399.300000
384.451111	4375.900000
386.889642	4281.100000
389.329595	4294.400000
391.766834	4228.800000
394.201361	4237.100000
396.639376	4201.200000
399.072614	4166.700000
401.507274	4094.500000
403.937160	4108.900000
406.370532	4063.800000
408.799134	4049.000000
411.227095	3979.400000
413.656476	3981.600000
416.081092	4023.700000
418.507130	4031.100000
420.932527	3973.700000
423.357284	3958.300000
425.777283	3930.500000
428.198703	3986.100000
430.617426	3940.400000
433.037570	3983.900000
435.455019	3950.000000
437.873888	4000.800000
440.290064	3905.900000
442.701493	3916.800000
445.116398	3942.800000
447.528613	3858.700000
449.940194	3954.700000
452.351141	3890.600000
454.759402	3899.700000
457.167030	3907.200000
459.574027	3886.800000
461.980391	3882.800000
464.384073	3858.200000
466.787125	3917.900000
469.189547	3864.400000
471.591340	3846.000000
473.990454	3881.000000
476.390988	3858.700000
478.790893	3800.900000
481.186075	3846.300000
483.584724	3812.400000
485.978653	3854.100000
488.371956	3827.600000
490.764633	3758.300000
493.156685	3821.100000
495.550156	3734.900000
497.938914	3759.900000
500.325006	3760.700000
502.712518	3718.200000
505.099406	3699.100000
507.483631	3746.900000
509.869275	3696.600000
512.252256	3659.900000
514.632577	3664.000000
517.014317	3660.700000
519.393398	3660.200000
521.773898	3662.100000
524.151740	3641.300000
526.526927	3689.400000
528.901496	3629.600000
531.277484	3641.200000
533.650818	3595.000000
536.025570	3603.000000
538.395637	3556.300000
540.765088	3521.600000
543.135957	3477.000000
545.502146	3420.100000
547.869753	3446.000000
550.234714	3392.900000
552.599062	3358.700000
554.962798	3316.400000
557.327951	3290.500000
559.688431	3225.900000
562.050330	3194.500000
564.409589	3158.300000
566.766209	3112.400000
569.126274	3094.800000
571.479649	3047.600000
573.836468	3006.400000
576.190651	2944.500000
578.544227	2981.900000
580.897194	2881.800000
583.247530	2786.600000
585.599282	2799.500000
587.944358	2759.500000
590.294898	2687.000000
592.638765	2739.500000
594.988092	2651.700000
597.332772	2647.900000
599.674826	2628.700000
602.018298	2628.000000
604.359147	2581.100000
606.699394	2556.300000
609.037020	2582.500000
611.378081	2546.900000
613.714504	2515.200000
616.052345	2522.900000
618.387567	2553.200000
620.720174	2504.400000
623.054197	2533.200000
625.385607	2520.500000
627.716418	2525.200000
630.046631	2509.800000
632.376246	2551.900000
634.701239	2571.800000
637.031673	2490.900000
639.357485	2542.000000
641.680691	2555.500000
644.005312	2533.300000
646.327329	2524.100000
648.648751	2506.200000
650.967570	2525.300000
653.287805	2562.000000
655.607447	2544.300000
657.924488	2558.700000
660.240937	2587.200000
662.554788	2646.100000
664.870055	2612.800000
667.182725	2634.300000
669.496810	2619.000000
671.806295	2666.700000
674.117196	2684.600000
676.425504	2731.000000
678.733224	2742.100000
681.042359	2765.500000
683.346901	2814.500000
685.650856	2809.900000
687.954226	2825.200000
690.259010	2888.600000
692.559208	2885.400000
694.860820	2933.900000
697.161848	2923.400000
699.458293	2958.000000
701.756154	3010.900000
704.053431	2997.600000
706.350125	3072.200000
708.642243	3062.900000
710.937772	3063.500000
713.228728	3130.700000
715.521098	3132.600000
717.810892	3128.800000
720.100107	3169.600000
722.388741	3200.800000
724.674804	3205.000000
726.962280	3258.900000
729.247186	3236.900000
731.531513	3265.000000
733.813272	3310.000000
736.096445	3316.500000
738.379041	3354.000000
740.657082	3398.200000
742.936536	3424.600000
745.215415	3453.200000
747.493718	3451.700000
749.767472	3508.900000
752.042640	3540.500000
754.317234	3560.500000
756.589268	3561.100000
758.862716	3557.700000
761.133606	3636.800000
763.401940	3654.800000
765.671687	3675.600000
767.938880	3698.400000
770.205502	3726.000000
772.471555	3762.900000
774.735055	3759.100000
776.999969	3778.600000
779.264313	3878.600000
781.524128	3779.900000
783.785356	3816.200000
786.046015	3866.900000
788.304129	3939.500000
790.559698	3904.700000
792.818658	3903.800000
795.071119	3923.700000
797.328947	3996.000000
799.582255	4003.000000
801.833024	3977.400000
804.085205	3979.100000
806.334848	3951.100000
808.585902	4023.500000
810.832445	3985.400000
813.080400	3992.200000
815.325821	4046.800000
817.572653	4058.100000
819.818924	4061.900000
822.060691	4079.000000
824.305840	4116.800000
826.544517	4141.700000
828.786577	4162.200000
831.024138	4204.100000
833.263110	4261.300000
835.499556	4254.200000
837.737413	4239.700000
839.972745	4226.600000
842.205554	4306.000000
844.439774	4405.900000
846.671472	4402.200000
848.902615	4483.700000
851.133203	4494.000000
853.363236	4554.200000
855.592716	4638.400000
857.817714	4747.400000
860.046087	4759.600000
862.269981	4816.000000
864.495285	4888.000000
866.716114	5008.200000
868.940315	5110.800000
871.160043	5101.500000
873.381182	5270.800000
875.601770	5370.300000
877.819848	5464.300000
880.039337	5537.600000
882.254359	5537.100000
884.468833	5667.900000
886.682760	5734.700000
888.896139	5781.200000
891.108971	5819.100000
893.321257	5814.100000
895.531040	5905.900000
897.740278	5815.600000
899.948971	5896.800000
902.155165	5858.700000
904.362768	5766.600000
906.567874	5695.700000
908.772436	5691.900000
910.974502	5663.500000
913.177978	5459.300000
915.378960	5416.100000
917.579401	5269.700000
919.781249	5206.800000
921.976707	5040.700000
924.175524	4999.400000
926.369902	4855.100000
928.567638	4678.900000
930.760938	4600.700000
932.955647	4465.500000
935.147870	4389.200000
937.339555	4311.600000
939.530702	4244.900000
941.719366	4192.900000
943.907493	4146.600000
946.093140	4116.600000
948.282139	4115.600000
950.466715	4117.500000
952.650756	4075.100000
954.838147	4080.000000
957.017234	4087.700000
959.199672	4046.600000
961.381576	4051.100000
963.561006	4098.700000
965.737963	4081.500000
967.916327	4085.600000
970.096099	4058.900000
972.269522	4055.600000
974.446291	3992.400000
976.618653	4023.100000
978.792423	3968.000000
980.961789	3894.300000
983.134500	3901.000000
985.304744	3807.600000
987.474460	3795.500000
989.643647	3734.600000
991.808437	3666.300000
993.976568	3622.800000
996.140305	3560.600000
998.305448	3501.200000
1000.468133	3475.800000
1002.630291	3389.300000
1004.789993	3392.700000
1006.949171	3319.800000
1009.109755	3256.800000
1011.267884	3191.900000
1013.425489	3160.200000
1015.582571	3086.400000
1017.739130	3089.700000
1019.891309	3026.000000
1022.044894	2998.900000
1024.197958	2950.300000
1026.348574	2912.100000
1028.500595	2894.200000
1030.648243	2910.800000
1032.799223	2819.300000
1034.945832	2845.100000
1037.091923	2775.900000
1039.237494	2796.000000
1041.384471	2716.000000
1043.525159	2730.900000
1045.669177	2680.400000
1047.810754	2689.900000
1049.951815	2651.200000
1052.094280	2653.400000
1054.230466	2625.500000
1056.369978	2593.200000
1058.505134	2593.500000
1060.643615	2546.900000
1062.777742	2511.300000
1064.911356	2495.700000
1067.046375	2505.700000
1069.177044	2494.000000
1071.309118	2444.700000
1073.438763	2408.200000
1075.567896	2449.200000
1077.696517	2393.200000
1079.824627	2331.500000
1081.950311	2334.600000
1084.075485	2333.400000
1086.202063	2258.200000
1088.324304	2237.800000
1090.447948	2225.100000
1092.567259	2182.900000
1094.691798	2124.600000
1096.810092	2097.200000
1098.929791	2119.900000
1101.047071	2043.700000
1103.163845	2038.700000
1105.280112	1963.400000
1107.393964	1970.100000
1109.509219	1900.000000
1111.620152	1869.700000
1113.734396	1815.100000
1115.844320	1812.600000
1117.955648	1766.900000
1120.066471	1745.000000
1122.172979	1698.500000
1124.282795	1681.000000
1126.388297	1673.400000
1128.495202	1613.700000
1130.595892	1601.100000
1132.701794	1578.600000
1134.803387	1545.900000
1136.906383	1509.200000
1139.008878	1509.800000
1141.105166	1486.700000
1143.206662	1463.800000
1145.303855	1430.900000
1147.400549	1391.800000
1149.496745	1385.600000
1151.592444	1387.600000
1153.687645	1371.300000
1155.780449	1315.000000
1157.874655	1327.800000
1159.962670	1292.900000
1162.055883	1289.500000
1164.142908	1268.300000
1166.233232	1241.000000
1168.319269	1223.200000
1170.408603	1246.000000
1172.491756	1204.900000
1174.576311	1191.500000
1176.662268	1182.600000
1178.743943	1142.100000
1180.827020	1141.700000
1182.907711	1132.600000
1184.987910	1131.700000
1187.067618	1105.900000
1189.146835	1087.300000
1191.223670	1102.600000
1193.298124	1089.800000
1195.375870	1075.700000
1197.449345	1066.200000
1199.524221	1071.600000
1201.594830	1074.100000
1203.666841	1091.700000
1205.736475	1053.300000
1207.807510	1052.600000
1209.878057	1057.800000
1211.944343	1045.200000
1214.012030	1024.800000
1216.077345	1017.800000
1218.144060	1051.400000
1220.206519	996.000000
1222.272263	1051.100000
1224.333754	1035.900000
1226.396644	1008.300000
1228.457167	1034.100000
1230.517206	990.300000
1232.576763	989.500000
1234.633954	999.200000
1236.690664	996.600000
1238.745011	982.400000
1240.802638	1001.300000
1242.857903	975.300000
1244.908927	993.300000
1246.961351	969.300000
1249.013295	980.000000
1251.062881	984.800000
1253.111988	997.400000
1255.160617	986.400000
1257.208767	965.600000
1259.256439	962.900000
1261.299880	992.300000
1263.346596	983.700000
1265.390959	954.500000
1267.434846	997.000000
1269.476382	973.400000
1271.515567	938.800000
1273.558026	953.300000
1275.596262	992.500000
1277.635897	976.500000
1279.675057	979.600000
1281.709998	969.200000
1283.746339	981.800000
1285.780334	992.800000
1287.815728	979.400000
1289.846908	985.600000
1291.879487	977.300000
1293.911593	988.000000
1295.941359	976.000000
1297.972523	971.000000
1299.999479	980.100000
1302.027833	968.900000
1304.051983	965.800000
1306.079397	972.800000
1308.102609	945.400000
1310.127219	984.300000
1312.149495	974.400000
1314.173168	978.400000
1316.194508	971.400000
1318.215380	989.800000
1320.235786	988.200000
1322.251997	988.600000
1324.269606	972.000000
1326.284888	964.600000
1328.303427	988.000000
1330.317778	974.500000
1332.329803	1002.700000
1334.345085	975.100000
1336.356182	986.400000
1338.368676	982.500000
1340.376987	971.300000
1342.388554	1014.600000
1344.394081	997.200000
1346.402864	964.600000
1348.407469	1000.100000
1350.415328	1005.800000
1352.422725	979.400000
1354.424091	969.400000
1356.426854	987.100000
1358.429156	957.100000
1360.430999	994.000000
1362.432382	974.700000
1364.431452	968.700000
1366.430063	984.900000
1368.428216	961.700000
1370.425911	960.700000
1372.419442	974.300000
1374.414370	973.200000
1376.408841	977.200000
1378.402855	979.600000
1380.394561	1005.000000
1382.385813	944.700000
1384.374759	955.900000
1386.365100	955.900000
1388.354986	956.600000
1390.342569	969.400000
1392.329697	976.400000
1394.314525	986.300000
1396.300746	962.100000
1398.284668	962.600000
1400.268137	992.800000
1402.251154	955.800000
1404.231872	967.100000
1406.213986	976.700000
1408.193802	976.500000
1410.173168	951.400000
1412.148394	964.300000
1414.126860	946.500000
1416.103031	964.300000
1418.078754	936.400000
1420.054027	921.800000
1422.027009	941.000000
1423.999543	930.100000
1425.971630	946.800000
1427.943268	951.600000
1429.910778	955.800000
1431.883363	939.400000
1433.848141	948.600000
1435.817991	905.400000
1437.783718	909.400000
1439.750837	921.200000
1441.715673	917.300000
1443.676390	927.000000
1445.642174	925.000000
1447.602003	924.800000
1449.563225	924.200000
1451.525840	900.600000
1453.484340	933.600000
1455.442398	910.300000
1457.400013	927.300000
1459.357187	909.400000
1461.312085	923.000000
1463.268375	903.800000
1465.222391	928.600000
1467.175967	931.600000
1469.127270	923.100000
1471.079965	939.900000
1473.030389	908.200000
1474.980373	920.100000
1476.929919	904.500000
1478.877196	904.900000
1480.822206	914.900000
1482.768607	922.500000
1484.714572	914.400000
1486.660098	928.900000
1488.603360	908.700000
1490.546185	900.800000
1492.486747	895.300000
1494.428700	896.100000
1496.368392	912.500000
1498.307648	909.400000
1500.246469	890.200000
1502.183031	901.500000
1504.120984	877.000000
1506.056679	884.800000
1507.991939	907.700000
1509.924944	881.100000
1511.857516	909.000000
1513.789656	881.200000
1515.721364	891.900000
1517.650818	913.700000
1519.581663	891.900000
1521.512077	891.800000
1523.438417	881.300000
1525.366149	911.500000
1527.291630	889.600000
1529.216682	883.700000
1531.141305	889.300000
1533.065499	872.500000
1534.987446	890.300000
1536.910782	893.900000
1538.831873	887.200000
1540.750719	907.600000
1542.670955	882.200000
1544.588947	917.100000
1546.506513	902.300000
1548.421837	899.100000
1550.338551	898.300000
1552.251210	881.800000
1554.167073	866.300000
1556.080696	901.000000
1557.992082	911.900000
1559.904856	865.800000
1561.813581	880.200000
1563.723696	870.000000
1565.633387	892.500000
1567.542654	874.300000
1569.449688	877.300000
1571.354489	874.100000
1573.260679	886.900000
1575.164637	902.600000
1577.068175	884.100000
1578.971291	864.700000
1580.872179	886.400000
1582.774454	857.200000
1584.674502	873.600000
1586.575937	880.600000
1588.473339	888.400000
1590.370322	872.800000
1592.266887	863.500000
1594.164840	830.200000
1596.056958	862.100000
1597.952269	856.800000
1599.847163	862.000000
1601.739835	861.200000
1603.632091	865.100000
1605.522126	855.600000
1607.411747	875.400000
1609.300951	844.200000
1611.189741	855.800000
1613.076314	868.700000
1614.964273	882.500000
1616.848216	865.800000
1618.733547	849.900000
1620.618463	843.100000
1622.501166	854.500000
1624.385256	852.200000
1626.265335	860.200000
1628.146800	842.100000
1630.026055	882.100000
1631.906696	830.100000
1633.781533	822.400000
1635.661352	858.900000
1637.537165	838.400000
1639.412568	820.400000
1641.289358	854.100000
1643.160350	851.800000
1645.034524	832.200000
1646.904700	869.900000
1648.778056	848.500000
1650.649209	830.200000
1652.518160	854.300000
1654.388497	836.600000
1656.254840	835.600000
1658.122569	840.300000
1659.988100	838.700000
1661.855015	846.700000
1663.717942	863.600000
1665.582254	843.200000
1667.444370	844.200000
1669.306082	836.100000
1671.169178	820.400000
1673.030080	831.000000
1674.888788	810.600000
1676.747093	818.500000
1678.606783	827.400000
1680.460706	806.300000
1682.317801	845.100000
1684.174494	832.300000
1686.027211	829.100000
1687.883098	819.900000
1689.735012	815.000000
1691.586525	823.300000
1693.437637	821.100000
1695.288349	786.200000
1697.138660	832.100000
1698.986787	808.100000
1700.836297	810.800000
1702.680059	797.400000
1704.528770	826.000000
1706.371736	826.800000
1708.217867	835.000000
1710.060037	806.800000
1711.905371	826.500000
1713.744965	824.100000
1715.585943	822.600000
1717.428304	804.200000
1719.266709	809.300000
1721.106497	796.400000
1722.944110	818.700000
1724.781327	805.800000
1726.616371	814.900000
1728.452798	809.300000
1730.287053	804.400000
1732.120913	819.100000
1733.954380	810.900000
1735.783900	807.700000
1737.616579	806.700000
1739.445314	800.700000
1741.277207	781.700000
1743.105157	809.400000
1744.932715	794.400000
1746.759881	781.100000
1748.586656	802.300000
1750.413040	786.300000
1752.235487	820.600000
1754.061088	810.000000
1755.882755	806.300000
1757.705804	793.000000
1759.526692	803.100000
1761.347190	805.900000
1763.169070	806.200000
1764.985250	795.800000
1766.804582	799.200000
1768.619987	801.300000
1770.438542	781.300000
1772.253172	808.500000
1774.067416	792.700000
1775.881272	796.400000
1777.694742	780.100000
1779.506059	794.900000
1781.318757	817.500000
1783.131068	799.000000
1784.939462	787.600000
1786.749237	789.100000
1788.555096	792.800000
1790.364101	808.400000
1792.169193	809.400000
1793.975666	762.600000
1795.781755	776.300000
1797.583934	777.100000
1799.389256	769.400000
1801.190670	791.900000
1802.993464	784.700000
1804.792352	786.600000
1806.592621	787.600000
1808.392508	778.400000
1810.190254	780.600000
1811.987618	799.600000
1813.784603	778.900000
1815.581207	767.000000
1817.375672	768.500000
1819.171516	777.900000
1820.961706	791.200000
1822.756792	774.400000
1824.546225	766.000000
1826.338795	780.100000
1828.129230	784.500000
1829.917531	750.900000
1831.708967	784.200000
1833.494757	769.100000
1835.281927	771.800000
1837.066965	762.200000
1838.855137	803.700000
1840.639423	768.100000
1842.421580	774.500000
1844.205115	788.900000
1845.986522	760.000000
1847.769308	758.600000
1849.548214	800.300000
1851.328498	763.300000
1853.106656	800.000000
1854.886193	797.500000
1856.663605	754.600000
1858.438893	793.500000
1860.215560	796.500000
1861.990103	753.400000
1863.766025	758.800000
1865.536326	752.200000
1867.309755	751.200000
1869.081064	756.000000
1870.852003	789.600000
1872.624318	786.500000
1874.391020	763.600000
1876.160848	742.100000
1877.926812	765.700000
1879.695900	755.400000
1881.461126	749.400000
1883.225983	752.100000
1884.992218	763.400000
1886.754594	770.000000
1888.516603	748.300000
1890.278244	762.600000
1892.039519	774.300000
1893.800426	750.500000
1895.560967	758.000000
1897.319398	749.000000
1899.077464	761.500000
1900.833421	757.900000
1902.590756	762.400000
1904.347724	737.200000
1906.102587	777.100000
1907.855344	744.300000
1909.607738	740.700000
1911.361507	747.200000
1913.113173	732.300000
1914.862737	734.200000
1916.613677	748.100000
1918.364253	756.300000
1920.110990	745.600000
1921.859104	716.900000
1923.605118	749.100000
1925.352508	751.700000
1927.097799	743.700000
1928.840993	733.700000
1930.585563	732.800000
1932.328036	720.500000
1934.070149	730.900000
1935.811902	732.800000
1937.553296	723.100000
1939.292596	744.200000
1941.031536	746.500000
1942.770119	740.600000
1944.506609	753.300000
1946.242742	751.050000
1947.980249	748.800000
1949.713934	735.000000
1951.448994	742.300000
1953.181966	729.800000
1954.914581	750.800000
1956.646839	763.300000
1958.378741	763.500000
1960.108557	735.900000
1961.836289	766.700000
1963.565394	746.600000
1965.294145	765.100000
1967.020812	745.500000
1968.747125	748.000000
1970.474811	766.900000
1972.196961	739.500000
1973.922212	724.900000
1975.643657	758.500000
1977.368201	759.600000
1979.090666	750.200000
1980.809327	760.000000
1982.531087	761.600000
1984.249045	753.000000
1985.968376	772.300000
1987.683908	742.000000
1989.404261	754.600000
1991.120814	763.300000
1992.833571	739.700000
1994.549425	744.100000
1996.263205	768.200000
1997.976636	750.800000
1999.687996	754.900000
2001.400729	730.000000
2003.109670	750.300000
2004.821705	752.300000
2006.528230	750.700000
2008.237848	761.900000
2009.945398	756.300000
2011.652601	743.400000
2013.357738	733.700000
2015.062528	732.200000
2016.768690	733.800000
2018.471070	762.200000
2020.174822	762.900000
2021.876510	766.900000
2023.577854	742.200000
2025.278852	721.700000
2026.977790	743.500000
2028.678098	742.500000
2030.374632	742.400000
2032.072537	726.000000
2033.768383	754.000000
2035.467315	740.800000
2037.160761	754.100000
2038.855579	739.300000
2040.550053	759.200000
2042.240759	754.300000
2043.934549	756.000000
2045.624572	743.100000
2047.315966	749.300000
2049.005307	740.000000
2050.696018	738.500000
2052.382966	725.000000
2054.069575	733.500000
2055.757554	730.400000
2057.441773	727.200000
2059.127362	753.600000
2060.812612	724.900000
2062.495814	721.100000
2064.180385	733.500000
2065.859494	714.400000
2067.543388	730.600000
2069.221822	715.600000
2070.903332	689.600000
2072.581092	709.700000
2074.258514	708.000000
2075.937306	722.800000
2077.614056	710.900000
2079.288764	723.300000
2080.964841	733.800000
2082.638878	734.200000
2084.312579	748.500000
2085.985945	727.300000
2087.657273	726.100000
2089.328266	736.200000
2090.998925	736.000000
2092.669249	725.800000
2094.339240	732.500000
2096.007195	714.400000
2097.674817	717.200000
2099.340404	709.400000
2101.007361	731.400000
2102.672283	727.200000
2104.336874	721.600000
2105.999433	750.000000
2107.663360	763.700000
2109.325257	744.800000
2110.986822	720.300000
2112.648056	742.300000
2114.307262	747.700000
2115.966137	729.000000
2117.624683	750.500000
2119.282899	708.000000
2120.937391	716.100000
2122.594948	736.200000
2124.252176	720.600000
2125.905682	734.000000
2127.560556	740.000000
2129.211712	748.000000
2130.865929	727.200000
2132.516430	731.300000
2134.168297	725.900000
2135.814756	721.600000
2137.465970	740.300000
2139.113470	713.100000
2140.762337	728.300000
2142.409186	705.700000
2144.055708	732.000000
2145.701905	726.100000
2147.344394	712.800000
2148.989941	715.300000
2150.631781	713.600000
2152.276678	719.800000
2153.917870	719.500000
2155.558738	707.600000
2157.199282	729.800000
2158.837814	697.400000
2160.477712	683.700000
2162.113910	717.400000
2163.751475	711.900000
2165.388716	702.500000
2167.023948	678.300000
2168.658859	689.200000
2170.293448	694.400000
2171.927715	718.700000
2173.558289	691.500000
2175.191915	675.900000
2176.821849	699.400000
2178.453148	694.100000
2180.082442	691.800000
2181.711417	677.300000
2183.340073	702.400000
2184.968409	700.000000
2186.594742	685.600000
2188.220757	685.900000
2189.844771	703.100000
2191.470149	706.300000
2193.093528	711.100000
2194.718270	676.000000
2196.339332	668.800000
2197.960077	694.500000
2199.582187	668.600000
2201.202299	698.900000
2202.820414	670.200000
2204.438214	673.600000
2206.055699	686.600000
2207.672868	692.300000
2209.289722	675.000000
2210.906261	677.800000
2212.520806	690.200000
2214.133359	673.900000
2215.747276	725.400000
2217.359202	699.600000
2218.972491	692.600000
2220.583790	672.700000
2222.193099	704.800000
2223.803772	683.400000
2225.412456	694.000000
2227.020828	699.400000
2228.627212	671.900000
2230.234960	685.600000
2231.840721	703.600000
2233.446171	686.100000
2235.049636	678.700000
2236.654464	710.800000
2238.257309	668.600000
2239.858170	679.500000
2241.460393	685.200000
2243.060635	682.800000
2244.662239	679.900000
2246.260191	683.900000
2247.859505	686.200000
2249.456839	685.000000
2251.053864	691.100000
2252.652252	701.500000
2254.246991	671.400000
2255.839753	675.600000
2257.433878	697.100000
2259.029364	677.500000
2260.621206	694.200000
2262.212741	704.700000
2263.805637	676.000000
2265.393224	677.300000
2266.985508	687.500000
2268.572484	681.700000
2270.162489	667.200000
2271.747189	672.300000
2273.336583	652.600000
2274.920674	666.500000
2276.506127	676.700000
2278.089610	677.100000
2279.676120	667.900000
2281.258996	674.200000
2282.841568	657.700000
2284.423837	659.800000
2286.002477	676.100000
2287.584140	666.000000
2289.162175	673.700000
2290.743233	676.400000
2292.320665	671.000000
2293.896132	665.600000
2295.474622	667.500000
2297.049488	660.500000
2298.624053	666.400000
2300.198318	689.200000
2301.772282	674.900000
2303.345946	663.800000
2304.919309	649.000000
2306.489054	662.700000
2308.058500	662.200000
2309.630965	663.800000
2311.198154	653.100000
2312.768362	643.400000
2314.334955	660.700000
2315.902908	651.800000
2317.468905	639.900000
2319.034605	659.000000
2320.600008	659.400000
2322.163456	627.400000
2323.728264	671.600000
2325.289464	673.800000
2326.853678	680.000000
2328.412631	677.000000
2329.974597	689.800000
2331.534613	684.900000
2333.094333	660.700000
2334.652104	672.000000
2336.209580	665.500000
2337.766762	658.700000
2339.321997	673.700000
2340.876937	657.900000
2342.431584	658.300000
2343.985937	658.100000
2345.539996	646.500000
2347.093761	665.300000
2348.645583	649.800000
2350.195461	654.400000
2351.748347	654.000000
2353.295991	671.800000
2354.846642	655.100000
2356.393702	669.200000
2357.942121	667.300000
2359.490247	669.300000
2361.034785	651.700000
2362.580681	653.500000
2364.124639	685.500000
2365.669954	642.000000
2367.211684	662.000000
2368.754771	649.700000
2370.295923	651.700000
2371.836785	648.900000
2373.377358	660.600000
2374.917641	638.700000
2376.457636	646.900000
2377.994053	638.900000
2379.533471	652.100000
2381.069312	676.700000
2382.606509	667.800000
2384.140131	636.200000
2385.676754	649.800000
2387.211445	653.300000
2388.744207	641.200000
2390.276682	661.700000
2391.807230	646.200000
2393.340775	632.100000
2394.869109	657.000000
2396.398799	650.300000
2397.928204	647.300000
2399.457323	652.000000
2400.986158	648.200000
2402.509787	667.900000
2404.038053	637.400000
2405.561115	656.200000
2407.088811	650.400000
2408.609668	624.900000
2410.135158	652.700000
2411.657087	638.200000
2413.180372	650.700000
2414.701736	651.500000
2416.221180	676.800000
2417.741979	648.600000
2419.260859	635.000000
2420.779457	649.800000
2422.296138	655.700000
2423.814173	661.600000
2425.331927	649.000000
2426.846130	648.800000
2428.360052	652.800000
2429.873694	645.600000
2431.388691	654.100000
2432.900139	638.500000
2434.412942	645.200000
2435.923832	637.500000
2437.434442	638.500000
2438.943141	622.900000
2440.454827	657.600000
2441.962968	649.000000
2443.470832	620.400000
2444.978418	651.300000
2446.482463	633.500000
2447.989494	641.700000
2449.494616	625.300000
2450.999461	640.600000
2452.502399	613.600000
2454.005060	615.900000
2455.507445	633.000000
2457.007925	625.900000
2458.509758	608.100000
2460.009687	605.400000
2461.509340	602.100000
2463.008717	626.700000
2464.506192	625.400000
2466.001765	605.600000
2467.500319	620.900000
2468.995343	612.900000
2470.491721	618.300000
2471.984571	602.800000
2473.478775	607.200000
2474.972705	620.000000
2476.463112	627.600000
2477.956495	583.400000
2479.447981	606.000000
2480.937570	629.400000
2482.426887	615.900000
2483.914309	613.400000
2485.404706	628.800000
2486.891584	606.900000
2488.379814	616.900000
2489.864528	607.800000
2491.348971	588.900000
2492.834766	601.500000
2494.318668	631.700000
2495.803922	613.900000
2497.284042	590.100000
2498.767134	615.600000
2500.248336	622.500000
2501.729269	612.600000
2503.208313	619.000000
2504.687088	614.600000
2506.165595	597.800000
2507.643834	608.800000
2509.121804	630.700000
2510.596270	583.300000
2512.073704	600.700000
2513.547635	612.300000
2515.022916	614.200000
2516.497931	607.900000
2517.969444	610.100000
2519.442307	606.700000
2520.913288	620.800000
2522.385619	607.500000
2523.852837	595.100000
2525.323020	594.100000
2526.791323	594.400000
2528.259361	601.900000
2529.727134	619.100000
2531.194642	597.200000
2532.661885	611.900000
2534.125636	606.200000
2535.590737	626.900000
2537.053961	612.600000
2538.518535	604.500000
2539.979619	610.300000
2541.442053	609.800000
2542.904224	597.800000
2544.362909	589.600000
2545.826166	603.300000
2547.284326	616.600000
2548.743835	611.700000
2550.198251	630.700000
2551.657236	598.000000
2553.114350	613.400000
2554.569593	619.900000
2556.024575	608.100000
2557.477687	597.600000
2558.932148	618.400000
2560.384740	586.300000
2561.837072	617.300000
2563.287536	583.900000
2564.740956	596.500000
2566.189294	595.200000
2567.640588	597.400000
2569.090015	603.400000
2570.535970	612.000000
2571.984881	576.500000
2573.430320	610.900000
2574.877108	601.400000
2576.322032	608.600000
2577.766699	608.800000
2579.212713	599.500000
2580.655260	612.200000
2582.099155	601.700000
2583.539585	600.700000
2584.981362	591.800000
2586.421280	612.300000
2587.862545	582.000000
2589.300349	600.100000
2590.741102	602.000000
2592.176792	564.100000
2593.615432	600.200000
2595.052215	595.800000
2596.487141	575.700000
2597.925016	586.200000
2599.357832	606.600000
2600.791996	595.200000
2602.224306	597.100000
2603.657962	582.200000
2605.089765	581.400000
2606.521315	566.700000
2607.952611	565.600000
2609.382055	589.000000
2610.811248	598.600000
2612.238589	603.100000
2613.667277	578.000000
2615.095712	575.300000
2616.520700	619.700000
2617.947035	580.300000
2619.371521	590.800000
2620.797353	572.600000
2622.219741	590.800000
2623.643475	603.000000
2625.065362	593.800000
2626.487000	572.100000
2627.906792	603.500000
2629.327930	576.300000
2630.748818	589.300000
2632.166268	569.200000
2633.586657	577.600000
2635.003609	569.900000
2636.420313	605.300000
2637.836768	566.900000
2639.252975	575.900000
2640.668933	578.500000
2642.083051	567.200000
2643.496922	581.800000
2644.908953	586.500000
2646.322329	579.400000
2647.732275	570.500000
2649.145156	580.400000
2650.554610	594.800000
2651.963817	578.200000
2653.371187	592.400000
2654.781493	594.100000
2656.189962	598.900000
2657.596596	554.800000
2659.002985	586.600000
2660.407540	577.400000
2661.813439	585.100000
2663.217505	558.600000
2664.621326	577.600000
2666.024904	567.500000
2667.426649	590.000000
2668.829738	590.400000
2670.229409	573.500000
2671.630424	568.500000
2673.028023	594.600000
2674.428552	566.600000
2675.825666	605.500000
2677.224123	575.900000
2678.620752	572.600000
2680.017139	599.200000
2681.413285	612.500000
2682.807604	588.000000
2684.203266	564.300000
2685.595518	573.800000
2686.989114	587.600000
2688.380885	603.900000
2689.773998	569.600000
2691.165288	586.600000
2692.554755	550.200000
2693.943982	559.100000
2695.332970	592.300000
2696.723300	587.500000
2698.108645	571.100000
2699.496914	582.900000
2700.883363	573.500000
2702.269573	556.200000
2703.655545	553.100000
2705.038117	555.600000
2706.422032	578.300000
2707.805709	548.400000
2709.189148	562.300000
2710.569191	547.400000
2711.950576	568.300000
2713.330145	558.500000
2714.711056	564.800000
2716.090151	549.000000
2717.467433	581.500000
2718.846056	546.300000
2720.222866	563.300000
2721.599440	561.100000
2722.975778	564.200000
2724.350304	570.200000
2725.726171	566.400000
2727.098651	544.400000
2728.474047	561.900000
2729.844483	551.500000
2731.216260	544.300000
2732.587802	551.800000
2733.957536	546.700000
2735.328611	568.000000
2736.697877	552.200000
2738.066911	561.200000
2739.434137	541.800000
2740.801131	560.000000
2742.167892	565.600000
2743.534420	573.700000
2744.899143	577.700000
2746.263635	535.400000
2747.627894	530.300000
2748.991921	544.600000
2750.355717	540.400000
2751.716139	557.900000
2753.079472	559.800000
2754.437862	552.000000
2755.799162	540.800000
2757.157091	542.900000
2758.517930	554.800000
2759.876968	544.800000
2761.232638	556.600000
2762.591216	539.000000
2763.946428	553.300000
2765.301410	532.600000
2766.654595	554.100000
2768.010687	561.800000
2769.363415	553.100000
2770.715914	540.700000
2772.068185	540.700000
2773.421795	533.800000
2774.772043	550.000000
2776.120498	540.100000
2777.471857	560.300000
2778.819857	553.600000
2780.169196	565.500000
2781.516742	551.500000
2782.864061	538.500000
2784.211154	548.700000
2785.556456	527.400000
2786.901532	510.600000
2788.246382	530.900000
2789.591005	528.700000
2790.932277	529.600000
2792.274887	539.700000
2793.617271	540.000000
2794.959431	501.300000
2796.298241	528.800000
2797.639950	535.000000
2798.978312	555.400000
2800.318011	518.700000
2801.655924	534.600000
2802.992053	548.400000
2804.327958	535.200000
2805.665201	547.900000
2807.000660	531.000000
2808.335896	548.900000
2809.669349	513.100000
2811.004140	525.300000
2812.335589	528.600000
2813.669934	547.500000
2814.999381	530.000000
2816.330165	529.600000
2817.660727	536.700000
2818.989510	516.600000
2820.319629	540.500000
2821.647970	522.500000
2822.976090	526.600000
2824.302432	530.400000
2825.630111	548.600000
2826.954457	539.700000
2828.280138	534.200000
2829.604044	539.600000
2830.927731	528.900000
2832.252753	526.900000
2833.574445	542.600000
2834.895919	540.200000
2836.217174	517.900000
2837.538210	516.000000
2838.857474	526.300000
2840.178073	520.600000
2841.496900	518.200000
2842.815509	516.500000
2844.132347	534.800000
2845.448968	523.100000
2846.765372	518.500000
2848.080007	511.500000
2849.395976	526.600000
2850.708625	508.100000
2852.022610	526.500000
2853.336377	517.800000
2854.649929	507.200000
2855.961713	507.000000
2857.271731	521.100000
2858.583084	531.100000
2859.891122	532.900000
2861.200495	527.400000
2862.509652	515.900000
2863.818594	530.200000
2865.125773	527.700000
2866.431188	509.100000
2867.737938	530.800000
2869.042925	532.000000
2870.347699	513.100000
2871.650711	526.700000
2872.956605	537.700000
2874.257643	518.400000
2875.560016	556.900000
2876.860629	516.200000
2878.162576	539.600000
2879.464310	530.300000
2880.762739	548.300000
2882.062503	500.300000
2883.360508	530.600000
2884.658302	527.200000
2885.954340	525.000000
2887.251711	555.200000
2888.547326	509.600000
2889.842730	513.600000
2891.137924	518.700000
2892.429819	532.000000
2893.724591	532.000000
2895.016066	511.700000
2896.308874	517.500000
2897.601472	536.200000
2898.890776	531.500000
2900.181412	532.200000
2901.470297	507.800000
2902.760515	514.600000
2904.047440	531.300000
2905.335699	507.000000
2906.622207	522.900000
2907.908508	492.700000
2909.194600	520.400000
2910.478944	511.000000
2911.766160	513.600000
2913.048548	501.000000
2914.332269	516.000000
2915.614244	497.500000
2916.896012	521.100000
2918.176034	529.500000
2919.458926	506.400000
2920.740073	498.100000
2922.017938	486.900000
2923.298672	525.100000
2924.576125	511.200000
2925.853372	503.300000
2927.128878	513.500000
2928.407251	504.200000
2929.680809	539.700000
2930.957235	525.400000
2932.231920	505.400000
2933.504865	505.300000
2934.779140	509.400000
2936.051676	509.300000
2937.324008	497.300000
2938.593066	511.800000
2939.864990	509.600000
2941.135176	506.300000
2942.405159	512.100000
2943.674938	511.000000
2944.942980	497.600000
2946.209287	502.600000
2947.475391	501.200000
2948.742825	517.700000
2950.008525	509.700000
2951.274022	477.400000
2952.539317	499.800000
2953.801347	505.700000
2955.064708	497.500000
2956.327866	512.900000
2957.589293	511.900000
2958.852049	498.800000
2960.113074	485.300000
2961.372367	495.500000
2962.631461	518.100000
2963.890354	492.600000
2965.149047	499.300000
2966.407540	512.900000
2967.664304	506.600000
2968.920868	495.900000
2970.175705	487.000000
2971.431871	502.100000
2972.684781	489.600000
2973.939021	508.600000
2975.193062	498.700000
2976.445377	470.000000
2977.697494	506.800000
2978.947886	491.900000
2980.201133	516.800000
2981.449603	497.100000
2982.700927	494.600000
2983.949003	531.000000
2985.196881	511.100000
2986.444562	484.600000
2987.692047	497.300000
2988.937810	479.500000
2990.183376	481.000000
2991.430270	509.600000
2992.673920	495.900000
2993.918898	515.500000
2995.160633	512.100000
2996.405218	465.100000
2997.648085	482.400000
2998.887711	500.600000
3000.130187	507.600000
3001.369424	506.300000
3002.609988	498.300000
3003.848835	481.500000
3005.087488	491.700000
3006.324425	506.100000
3007.562689	479.100000
3008.799239	497.800000
3010.035594	475.400000
3011.271756	504.500000
3012.506205	512.300000
3013.740460	488.700000
3014.974522	486.600000
3016.206872	482.100000
3017.437510	473.700000
3018.670994	467.800000
3019.902766	481.300000
3021.132828	471.400000
3022.362698	494.800000
3023.590858	491.900000
3024.820344	502.800000
3026.048122	496.800000
3027.275708	489.800000
3028.504620	485.800000
3029.728790	493.800000
3030.955803	479.000000
3032.179592	483.100000
3033.404708	508.100000
3034.628117	490.300000
3035.851337	460.000000
3037.072851	477.000000
3038.297206	474.900000
3039.516826	483.600000
3040.737771	476.400000
3041.958528	497.200000
3043.177581	489.100000
3044.397960	492.700000
3045.615122	498.900000
3046.833609	509.300000
3048.050394	492.600000
3049.266992	479.900000
3050.483401	481.100000
3051.696598	514.900000
3052.912632	485.900000
3054.125454	491.200000
3055.341113	495.100000
3056.552049	481.900000
3057.764310	505.700000
3058.976385	476.400000
3060.188273	478.200000
3061.398463	501.200000
3062.608467	488.000000
3063.818286	493.200000
3065.026408	497.900000
3066.234344	492.100000
3067.440586	478.700000
3068.648151	475.400000
3069.854023	483.700000
3071.059709	492.000000
3072.265210	488.800000
3073.469018	477.900000
3074.674150	490.200000
3075.877590	490.100000
3077.079337	483.300000
3078.280901	486.600000
3079.482281	486.100000
3080.683477	492.000000
3081.882983	486.500000
3083.082305	493.700000
3084.282951	467.400000
3085.481907	468.000000
3086.677669	497.400000
3087.876260	490.800000
3089.071657	472.900000
3090.268377	483.300000
3091.461905	502.400000
3092.658261	479.200000
3093.852931	486.400000
3095.044410	496.000000
3096.240220	495.600000
3097.431337	506.800000
3098.623776	487.700000
3099.813028	477.400000
3101.005106	484.100000
3102.195499	471.400000
3103.382707	497.700000
3104.571238	472.700000
3105.761091	474.700000
3106.947759	469.000000
3108.134248	461.000000
3109.320557	491.300000
3110.508188	474.300000
3111.692638	488.000000
3112.875407	473.000000
3114.061000	491.700000
3115.244912	484.600000
3116.427146	480.600000
3117.609201	472.900000
3118.791079	475.800000
3119.972778	476.200000
3121.152799	445.700000
3122.331144	473.300000
3123.512310	475.900000
3124.690300	459.800000
3125.868113	488.100000
3127.045749	491.800000
3128.221710	483.200000
3129.397494	480.800000
3130.574600	481.700000
3131.750031	452.800000
3132.923789	498.000000
3134.095875	465.000000
3135.269281	458.100000
3136.442512	477.800000
3137.614070	458.300000
3138.786950	479.200000
3139.956662	462.300000
3141.127695	475.100000
3142.297057	476.500000
3143.464750	460.900000
3144.635258	489.300000
3145.801107	465.700000
3146.971266	458.700000
3148.136767	471.400000
3149.302095	475.600000
3150.467249	473.200000
3151.632229	470.900000
3152.798530	466.800000
3153.960177	438.900000
3155.123145	457.200000
3156.285939	464.400000
3157.448561	470.300000
3158.609518	449.900000
3159.770302	464.000000
3160.930914	458.400000
3162.089863	456.900000
3163.248639	462.000000
3164.407244	470.200000
3165.565677	464.200000
3166.723938	459.700000
3167.880537	446.400000
3169.035475	454.900000
3170.191732	451.700000
3171.346329	454.500000
3172.500754	446.100000
3173.653520	455.000000
3174.806116	447.600000
3175.958541	453.000000
3177.110797	480.000000
3178.262883	452.700000
3179.411822	456.400000
3180.563568	462.400000
3181.713656	461.100000
3182.862088	472.700000
3184.010351	476.000000
3185.158444	463.900000
3186.306369	475.200000
3187.452639	448.300000
3188.598740	458.300000
3189.743186	456.700000
3190.887465	446.200000
3192.031576	464.200000
3193.177005	470.900000
3194.319294	436.600000
3195.461417	468.100000
3196.603372	469.400000
3197.745161	474.100000
3198.886782	453.400000
3200.025267	454.600000
3201.165070	466.600000
3202.306191	450.300000
3203.444177	454.600000
3204.580514	469.500000
3205.716685	473.500000
3206.854174	462.300000
3207.990013	451.000000
3209.127170	471.500000
3210.259714	464.500000
3211.396540	442.000000
3212.528754	458.600000
3213.662286	449.500000
3214.795652	447.000000
3215.925891	470.000000
3217.058928	429.200000
3218.188839	437.100000
3219.320067	451.300000
3220.448169	438.200000
3221.579068	452.200000
3222.708324	447.000000
3223.835935	435.600000
3224.960425	434.500000
3226.089190	455.400000
3227.214833	444.200000
3228.340313	440.100000
3229.464152	443.200000
3230.590785	465.900000
3231.712821	460.200000
3232.836173	451.400000
3233.959363	429.500000
3235.082391	428.700000
3236.203779	431.500000
3237.325006	439.400000
3238.444594	437.700000
3239.564021	439.900000
3240.681810	451.900000
3241.802392	443.400000
3242.919859	443.600000
3244.037167	460.600000
3245.154313	473.900000
3246.269824	453.000000
3247.386650	431.000000
3248.500365	459.300000
3249.616870	464.000000
3250.731741	467.700000
3251.843503	456.500000
3252.955106	457.300000
3254.068023	453.500000
3255.180782	454.400000
3256.290434	450.400000
3257.401400	423.700000
3258.512208	468.100000
3259.621385	457.800000
3260.728930	446.800000
3261.837790	452.800000
3262.946491	448.900000
3264.052090	449.500000
3265.159003	434.000000
3266.264288	467.600000
3267.370886	450.000000
3268.474384	450.200000
3269.579196	450.200000
3270.683851	433.700000
3271.785407	468.700000
3272.886808	448.500000
3273.989522	466.500000
3275.092079	462.400000
3276.191540	435.900000
3277.293785	452.600000
3278.392934	452.900000
3279.490459	448.000000
3280.587828	472.400000
3281.687980	471.100000
3282.785038	458.000000
3283.881941	434.100000
3284.978689	460.400000
3286.070879	412.000000
3287.167317	448.000000
3288.262134	425.800000
3289.356795	455.700000
3290.449835	435.600000
3291.542721	455.600000
3292.633986	456.100000
3293.726564	432.900000
3294.817521	437.200000
3295.906859	453.200000
3296.996044	445.000000
3298.086542	434.500000
3299.173955	446.400000
3300.261216	442.300000
3301.349789	457.800000
3302.438209	453.400000
3303.522082	452.000000
3304.610197	439.500000
3305.695231	483.700000
3306.778648	448.300000
3307.863378	448.200000
3308.946493	448.400000
3310.030919	456.900000
3311.112267	459.000000
3312.194927	465.700000
3313.275973	457.000000
3314.356868	449.900000
3315.436150	462.500000
3316.515281	442.300000
3317.595723	444.000000
3318.673092	457.500000
3319.751771	434.600000
3320.828840	457.600000
3321.905758	468.200000
3322.981065	436.300000
3324.056223	434.200000
3325.132692	445.200000
3326.206091	447.500000
3327.279341	456.400000
3328.353902	460.800000
3329.426853	444.800000
3330.498197	465.600000
3331.570851	451.200000
3332.640438	433.800000
3333.711336	424.300000
3334.780627	453.100000
3335.851229	443.200000
3336.920224	451.000000
3337.987613	426.800000
3339.053397	434.300000
3340.123407	440.000000
3341.190354	445.000000
3342.254239	442.100000
3343.320892	458.400000
3344.385940	438.100000
3345.449385	451.600000
3346.512684	436.800000
3347.575836	432.900000
3348.638842	423.500000
3349.701702	444.700000
3350.762960	444.700000
3351.821161	443.900000
3352.883583	425.000000
3353.942948	447.500000
3355.002168	427.700000
3356.062698	451.100000
3357.118718	459.400000
3358.177503	448.600000
3359.231780	421.100000
3360.288820	421.600000
3361.344263	443.200000
3362.401014	448.200000
3363.456168	453.500000
3364.509724	442.300000
3365.561683	434.300000
3366.616404	437.700000
3367.668076	457.400000
3368.719605	447.800000
3369.772443	437.700000
3370.822233	438.500000
3371.873331	426.000000
3372.921384	440.200000
3373.972197	438.700000
3375.019964	442.500000
3376.067589	444.600000
3377.115071	467.700000
3378.160961	423.100000
3379.208159	424.200000
3380.252315	447.600000
3381.299229	442.600000
3382.344551	452.500000
3383.386833	448.900000
3384.428973	477.900000
3385.472421	468.800000
3386.515729	442.200000
3387.557446	444.200000
3388.599022	452.800000
3389.640458	454.300000
3390.680304	452.800000
3391.718563	443.600000
3392.758129	443.100000
3393.797554	445.800000
3394.835392	444.900000
3395.871643	440.600000
3396.907755	441.100000
3397.945174	445.600000
3398.979560	452.500000
3400.015253	440.500000
3401.050807	444.700000
3402.083330	450.500000
3403.118606	447.000000
3404.150851	446.800000
3405.182958	450.800000
3406.213481	445.000000
3407.245312	439.200000
3408.277003	443.000000
3409.305668	468.000000
3410.334194	459.800000
3411.364028	436.900000
3412.393723	466.400000
3413.420393	452.700000
3414.448370	448.100000
3415.473322	425.500000
3416.501024	454.900000
3417.525703	454.600000
3418.551688	453.000000
3419.576093	462.600000
3420.600362	441.000000
3421.623052	458.000000
3422.645606	447.700000
3423.669466	441.800000
3424.690306	429.900000
3425.711011	467.800000
3426.733021	440.400000
3427.752013	415.600000
3428.770870	430.500000
3429.791032	438.700000
3430.808178	449.100000
