-117.384298	-2.184341
-114.714698	1.215385
-112.048033	3.802847
-109.382120	5.653746
-106.719139	6.843781
-104.054729	7.448651
-101.393249	7.544056
-98.730339	7.558042
-96.072537	5.753147
-93.413304	6.476224
-90.754821	4.083217
-88.099261	1.995804
-85.442273	2.427273
-82.790382	3.415385
-80.137062	4.793706
-77.486662	5.961538
-74.834832	4.239860
-72.188093	7.511189
-69.539924	9.390210
-66.892499	9.057343
-64.247987	8.560839
-61.602047	8.052448
-58.961188	6.260140
-56.318900	4.767832
-53.679520	3.386014
-51.038712	1.537063
-48.398644	-1.372727
-45.763648	-2.825175
-43.127224	-2.811888
-40.493702	0.509091
-37.858752	0.878322
-35.228867	-0.296503
-32.595390	3.418881
-29.966975	6.001399
-27.339293	6.963636
-24.710184	5.883916
-22.086131	-7.680420
-19.458489	-57.220280
-16.835900	-150.662238
-14.214043	-124.976923
-11.592916	219.129371
-8.972519	743.433566
-6.355010	1173.704196
-3.736073	1467.029371
-1.120022	1625.258741
1.495301	1645.031469
4.109897	1523.494406
6.721610	1269.189510
9.334752	889.672028
11.942860	418.614685
14.554550	-28.838462
17.161209	-232.335664
19.769296	-140.897902
22.376659	-10.075524
24.978997	10.421678
27.584913	10.361538
30.185807	11.386014
32.788129	13.218182
35.385434	9.516783
37.986314	8.232168
40.582180	6.305594
43.179473	4.941958
45.776047	4.000000
48.367612	4.944056
50.960605	3.572028
53.550737	4.899301
56.142297	4.742657
58.730997	5.178322
61.321124	4.874825
63.906253	5.521678
66.492808	2.295105
69.078650	0.346154
71.661638	-0.602797
74.246052	1.602797
76.823338	2.754545
79.404190	4.725874
81.982193	5.888811
84.559486	7.823776
87.138205	8.124476
89.711943	8.345455
92.287107	6.113287
94.859428	5.887413
97.431041	2.432867
99.999814	1.870629
102.570014	1.851748
105.137376	3.239161
107.706163	2.628671
110.272114	3.348951
112.835230	2.455944
115.401902	3.860140
117.959353	5.575524
120.522489	7.463636
123.080666	11.681818
125.642396	19.186713
128.199170	28.953846
130.757371	42.757343
133.310619	56.925874
135.863168	75.369930
138.419268	95.592308
140.970421	117.981818
143.520875	135.995804
146.070632	156.893706
148.617571	169.730070
151.163813	183.742657
153.711481	190.511189
156.258453	196.334266
158.800490	198.501399
161.341833	198.342657
163.882483	196.390210
166.424559	193.802797
168.963823	190.405594
171.500279	188.756643
174.036043	187.090909
176.573233	186.012587
179.109732	180.936364
181.643425	184.030070
184.174315	181.995105
186.704516	184.683217
189.236142	185.062238
191.764967	184.352448
194.290993	185.622378
196.816333	186.319580
199.343099	187.311189
201.867067	190.734266
204.390351	191.664336
206.912950	192.506993
209.432756	193.221678
211.951879	199.109790
214.470319	199.326573
216.990183	202.113287
219.503046	197.530070
222.019440	194.268531
224.535152	194.137063
227.045974	193.216084
229.558222	191.646154
232.067686	192.244056
234.576472	190.462238
237.084580	190.934266
239.594111	191.137762
242.098762	195.369930
244.602738	195.262937
247.108137	198.562238
249.608661	197.663636
252.112708	200.494406
254.609785	198.975524
257.110384	201.992308
259.608212	202.796503
262.105367	204.830070
264.601849	206.683217
267.093468	208.966434
269.588607	212.118881
272.080980	214.446154
274.572682	216.702797
277.061620	219.530070
279.551983	221.075524
282.039583	221.427972
284.524425	220.153846
287.012780	224.069930
289.494196	223.816783
291.979126	225.491608
294.459211	224.050350
296.942808	224.667832
299.421562	223.690909
301.901740	220.405594
304.379165	218.690909
306.855927	215.830769
309.332026	218.795105
311.805376	228.845455
314.278064	241.005594
316.750091	252.606294
319.221457	259.499301
321.690079	263.714685
324.158041	259.322378
326.627425	255.258741
329.091987	247.853846
331.560053	236.488811
334.023299	223.815385
336.485887	212.486713
338.947819	206.461538
341.409094	205.272028
343.867635	205.213986
346.327598	205.121678
348.784828	205.441958
351.241404	209.973427
353.697326	211.248252
356.150519	212.546154
358.605133	215.297203
361.054946	217.748951
363.508255	217.828671
365.956766	220.005594
368.404626	218.441958
370.853907	219.053846
373.298395	220.954545
375.744305	220.971329
378.189566	222.464336
380.632107	224.713986
383.074001	223.862238
385.515248	221.505594
387.953779	221.317483
390.393732	220.612587
392.830971	219.665035
395.265498	220.711888
397.703513	220.590210
400.136751	223.490210
402.571411	225.595105
405.001297	223.386713
407.434669	223.305594
409.863271	223.422378
412.291232	223.291608
414.720613	223.305594
417.145229	223.359441
419.571267	222.990210
421.996664	222.337762
424.421421	218.859441
426.841420	218.916783
429.262840	218.918881
431.681563	217.610490
434.101707	216.051049
436.519156	216.500699
438.938025	218.209790
441.354201	219.632867
443.765630	219.795804
446.180535	221.872727
448.592750	220.076224
451.004331	220.034965
453.415278	216.364336
455.823539	217.080420
458.231167	213.113287
460.638164	210.927273
463.044528	211.601399
465.448210	212.510490
467.851262	215.000699
470.253684	212.509091
472.655477	211.834965
475.054591	213.446154
477.455125	213.314685
479.855030	216.925175
482.250212	215.446154
484.648861	213.648951
487.042790	208.646853
489.436093	203.474126
491.828770	200.222378
494.220822	195.355245
496.614292	189.918182
499.003051	180.593007
501.389143	176.876224
503.776654	170.546853
506.163543	169.234965
508.547768	165.517483
510.933412	162.555944
513.316393	156.607692
515.696714	150.759441
518.078454	143.606993
520.457535	139.692308
522.838035	135.197203
525.215877	133.379720
527.591064	131.941958
529.965633	129.757343
532.341621	126.532168
534.714955	129.213287
537.089707	129.264336
539.459774	131.568531
541.829225	129.018182
544.200094	128.164336
546.566283	126.028671
548.933890	125.413986
551.298851	125.521678
553.663199	127.051748
556.026935	129.348951
558.392088	126.456643
560.752568	124.771329
563.114467	123.443357
565.473726	121.906993
567.830346	119.779720
570.190411	116.915385
572.543786	116.316084
574.900605	113.418182
577.254788	114.184615
579.608364	114.599301
581.961331	118.351049
584.311667	121.911888
586.663419	123.527972
589.008495	124.500000
591.359035	123.596503
593.702901	122.297203
596.052229	122.612587
598.396909	121.460140
600.738963	119.904196
603.082435	113.091608
605.423284	110.826573
607.763531	108.778322
610.101157	108.812587
612.442218	110.715385
614.778641	111.661538
617.116481	112.004196
619.451704	114.474825
621.784311	114.469231
624.118334	116.760839
626.449744	116.072028
628.780555	115.848951
631.110768	108.954545
633.440383	107.747552
635.765376	106.914685
638.095810	105.754545
640.421622	107.206294
642.744828	105.313287
645.069449	104.786014
647.391465	105.461538
649.712888	103.653846
652.031707	102.456643
654.351942	100.753147
656.671584	96.358741
658.988625	92.363636
661.305074	94.062937
663.618925	95.290210
665.934192	95.276923
668.246862	96.225175
670.560947	98.448252
672.870432	99.732168
675.181333	102.118182
677.489641	100.483916
679.797361	97.464336
682.106496	96.420280
684.411038	94.133566
686.714993	96.076923
689.018363	96.211888
691.323147	95.889510
693.623345	95.976923
695.924957	92.462238
698.225985	94.296503
700.522430	95.044056
702.820291	99.027972
705.117568	96.834266
707.414262	98.790909
709.706380	101.154545
712.001909	102.202797
714.292865	101.402797
716.585235	98.982517
718.875029	96.864336
721.164243	93.838462
723.452878	89.844056
725.738941	90.099301
728.026417	90.592308
730.311322	92.994406
732.595650	90.945455
734.877409	93.195804
737.160582	95.159441
739.443178	97.203497
741.721219	99.652448
744.000673	102.181818
746.279552	103.604196
748.557855	106.230070
750.831609	104.914685
753.106777	102.904895
755.381371	100.532168
757.653405	99.086014
759.926853	95.877622
762.197743	95.422378
764.466077	94.301399
766.735824	95.041259
769.003017	97.043357
771.269639	98.935664
773.535691	97.738462
775.799192	97.859441
778.064106	97.681119
780.328450	97.434965
782.588265	96.955245
784.849493	96.078322
787.110152	94.450350
789.368266	94.366434
791.623835	94.214685
793.882795	96.758741
796.135256	98.168531
798.393084	100.083217
800.646392	98.823776
802.897161	102.079021
805.149342	105.429371
807.398985	102.307692
809.650039	99.922378
811.896582	96.535664
814.144537	93.406993
816.389958	90.967133
818.636790	86.349650
820.883061	86.338462
823.124828	85.477622
825.369977	86.942657
827.608654	88.699301
829.850713	90.642657
832.088274	91.960140
834.327247	92.277622
836.563693	91.279720
838.801550	93.336364
841.036882	92.530769
843.269691	90.597203
845.503911	86.802098
847.735609	87.711189
849.966751	86.476224
852.197340	88.225874
854.427373	87.228671
856.656853	86.686014
858.881851	85.928671
861.110224	88.740559
863.334118	87.057343
865.559422	88.476224
867.780251	90.132867
870.004452	89.058042
872.224180	91.400000
874.445319	93.070629
876.665907	93.924476
878.883985	93.951748
881.103474	90.052448
883.318495	89.419580
885.532970	87.618881
887.746896	87.690210
889.960276	84.113287
892.173108	84.473427
894.385394	86.451748
896.595177	84.659441
898.804415	90.214685
901.013108	92.695804
903.219302	93.769231
905.426905	93.333566
907.632010	93.909790
909.836572	94.511189
912.038639	94.144755
914.242115	94.050350
916.443097	91.565734
918.643538	90.990210
920.845386	88.076224
923.040844	85.723077
925.239661	86.797902
927.434039	87.044755
929.631775	83.137063
931.825075	84.266434
934.019784	88.443357
936.212007	92.030070
938.403692	94.779021
940.594839	97.079021
942.783503	98.666434
944.971630	100.577622
947.157277	99.055944
949.346276	99.744056
951.530852	99.986713
953.714893	99.776923
955.902284	97.390210
958.081371	101.081119
960.263809	102.938462
962.445713	103.163636
964.625143	102.836364
966.802099	106.110490
968.980464	108.690210
971.160236	110.786014
973.333659	109.806294
975.510428	112.766434
977.682790	115.163636
979.856560	116.175524
982.025926	116.025175
984.198637	116.366434
986.368881	116.295804
988.538597	116.709091
990.707784	116.976224
992.872574	119.009091
995.040705	117.189510
997.204442	117.469930
999.369585	114.294406
1001.532270	116.194406
1003.694428	119.627972
1005.854130	120.497902
1008.013308	121.372727
1010.173892	123.547552
1012.332021	127.686713
1014.489626	127.855245
1016.646708	128.200699
1018.803267	128.400699
1020.955446	127.153147
1023.109031	125.829371
1025.262095	125.718881
1027.412711	125.983916
1029.564732	124.958042
1031.712380	128.069231
1033.863360	130.492308
1036.009969	134.466434
1038.156060	135.811189
1040.301631	137.006294
1042.448608	138.879021
1044.589296	138.719580
1046.733314	139.020979
1048.874891	139.886713
1051.015952	142.710490
1053.158417	139.475524
1055.294603	137.486014
1057.434115	142.753846
1059.569271	146.068531
1061.707752	147.725175
1063.841879	146.895105
1065.975493	148.117483
1068.110512	147.267133
1070.241181	145.422378
1072.373255	146.669231
1074.502900	146.823077
1076.632033	144.791608
1078.760654	143.765035
1080.888764	142.002098
1083.014448	140.381818
1085.139622	140.255245
1087.266200	135.528671
1089.388441	133.258741
1091.512085	133.344056
1093.631396	130.950350
1095.755935	129.074126
1097.874229	125.227273
1099.993928	121.599301
1102.111208	117.842657
1104.227982	121.238462
1106.344249	120.739860
1108.458101	120.452448
1110.573356	120.864336
1112.684289	120.637063
1114.798533	122.562937
1116.908457	125.164336
1119.019785	121.379720
1121.130608	118.744056
1123.237115	112.920280
1125.346932	111.790210
1127.452434	108.946853
1129.559339	110.367133
1131.660029	108.968531
1133.765931	107.955245
1135.867524	106.213986
1137.970520	106.288112
1140.073015	107.568531
1142.169303	108.101399
1144.270799	108.065035
1146.367992	109.437063
1148.464686	109.690210
1150.560882	110.508392
1152.656581	110.933566
1154.751781	112.746154
1156.844586	113.272028
1158.938792	114.386014
1161.026807	114.064336
1163.120020	111.415385
1165.207045	110.504895
1167.297369	109.325874
1169.383406	107.660839
1171.472740	105.282517
1173.555893	101.669930
1175.640448	100.612587
1177.726405	104.455245
1179.808080	105.030070
1181.891157	107.933566
1183.971848	112.558042
1186.052047	113.848252
1188.131755	113.356643
1190.210972	114.411888
1192.287807	113.209091
1194.362261	110.876923
1196.440006	108.565734
1198.513482	105.337063
1200.588358	105.844056
1202.658967	107.843357
1204.730978	106.514685
1206.800612	107.646853
1208.871647	108.391608
1210.942194	107.732867
1213.008480	107.276224
1215.076167	106.253846
1217.141482	103.602098
1219.208197	100.791608
1221.270656	97.812587
1223.336400	95.974126
1225.397891	97.939860
1227.460781	100.732168
1229.521304	103.639161
1231.581343	103.865734
1233.640900	105.654545
1235.698091	103.139161
1237.754801	101.417483
1239.809148	99.096503
1241.866775	99.175524
1243.922040	97.162937
1245.973064	96.770629
1248.025488	97.853846
1250.077432	100.272028
1252.127018	103.137063
1254.176125	103.557343
1256.224754	103.646154
1258.272904	103.702797
1260.320575	99.080420
1262.364017	95.229371
1264.410733	95.217483
1266.455096	98.359441
1268.498983	98.433566
1270.540519	100.932168
1272.579704	102.025874
1274.622163	105.020979
1276.660399	108.563636
1278.700034	110.481119
1280.739194	112.125175
1282.774135	115.092308
1284.810475	114.829371
1286.844471	113.350350
1288.879865	116.911888
1290.911045	118.079021
1292.943624	119.384615
1294.975730	120.353147
1297.005496	122.022378
1299.036660	125.804895
1301.063616	127.856643
1303.091970	128.520280
1305.116120	130.267133
1307.143534	136.877622
1309.166746	141.780420
1311.191356	145.246154
1313.213632	154.079720
1315.237305	161.147552
1317.258645	169.216084
1319.279517	171.119580
1321.299922	177.841259
1323.316134	182.937063
1325.333743	188.709790
1327.349024	195.506993
1329.367564	206.762238
1331.381915	220.630070
1333.393940	232.060140
1335.409222	244.952448
1337.420319	258.411888
1339.432813	267.662937
1341.441124	273.750350
1343.452691	278.984615
1345.458218	282.692308
1347.467001	281.681818
1349.471606	281.174126
1351.479465	276.981119
1353.486862	273.595804
1355.488228	268.272028
1357.490991	258.941958
1359.493293	250.580420
1361.495136	238.260839
1363.496519	226.490909
1365.495589	214.741259
1367.494200	206.200000
1369.492353	193.524476
1371.490047	181.941958
1373.483579	169.800000
1375.478507	159.947552
1377.472977	149.651049
1379.466992	141.579720
1381.458698	134.324476
1383.449950	127.744755
1385.438896	121.768531
1387.429237	119.299301
1389.419123	114.808392
1391.406706	114.983916
1393.393834	114.410490
1395.378662	117.004196
1397.364883	115.802098
1399.348805	117.383916
1401.332274	113.711888
1403.315291	114.544755
1405.296009	115.616783
1407.278123	112.321678
1409.257939	110.433566
1411.237305	107.033566
1413.212531	100.981818
1415.190997	100.738462
1417.167168	98.942657
1419.142891	99.756643
1421.118164	98.658741
1423.091146	100.657343
1425.063680	100.837063
1427.035767	103.360140
1429.007405	105.802797
1430.974915	106.355944
1432.947500	105.508392
1434.912278	102.102797
1436.882128	98.713986
1438.847855	96.562937
1440.814974	93.664336
1442.779810	92.383916
1444.740526	93.096503
1446.706311	94.858042
1448.666140	93.628671
1450.627362	95.637063
1452.589977	96.280420
1454.548477	98.831469
1456.506534	99.299301
1458.464150	99.645455
1460.421324	100.267133
1462.376222	102.469231
1464.332512	102.806993
1466.286528	104.880420
1468.240104	105.653846
1470.191407	107.281119
1472.144102	105.528671
1474.094526	106.164336
1476.044510	102.813986
1477.994056	102.797203
1479.941333	102.927273
1481.886343	105.446853
1483.832744	106.863636
1485.778708	107.209091
1487.724235	108.637063
1489.667497	110.882517
1491.610322	111.706294
1493.550884	114.993007
1495.492837	117.241958
1497.432528	119.052448
1499.371785	122.175524
1501.310606	124.246853
1503.247168	125.753147
1505.185121	128.651748
1507.120815	126.930769
1509.056076	129.520280
1510.989081	133.138462
1512.921653	132.086014
1514.853793	130.245455
1516.785501	133.351748
1518.714955	136.892308
1520.645800	138.795105
1522.576213	143.774126
1524.502554	143.816783
1526.430286	146.480420
1528.355767	148.918881
1530.280819	150.295105
1532.205442	157.345455
1534.129636	160.313986
1536.051583	162.370629
1537.974919	167.377622
1539.896010	175.584615
1541.814856	185.712587
1543.735092	194.974825
1545.653084	207.325874
1547.570650	226.170629
1549.485974	249.416783
1551.402688	273.179021
1553.315347	298.355245
1555.231210	337.361538
1557.144833	378.960140
1559.056219	437.208392
1560.968993	509.572727
1562.877718	607.547552
1564.787833	726.634965
1566.697523	866.635664
1568.606791	1013.546853
1570.513825	1155.276923
1572.418626	1265.730070
1574.324816	1332.058741
1576.228774	1346.519580
1578.132312	1310.974126
1580.035428	1220.881119
1581.936316	1098.406993
1583.838591	950.007692
1585.738639	808.512587
1587.640074	675.791608
1589.537476	566.544056
1591.434459	477.836364
1593.331024	410.792308
1595.228977	356.829371
1597.121095	318.671329
1599.016406	289.590909
1600.911300	265.090210
1602.803972	249.276923
1604.696228	240.165734
1606.586263	234.773427
1608.475884	235.466434
1610.365088	237.267832
1612.253878	239.561538
1614.140450	240.441259
1616.028410	234.327972
1617.912353	223.897203
1619.797684	211.383217
1621.682600	194.001399
1623.565303	175.879720
1625.449393	163.834965
1627.329472	151.179021
1629.210937	142.349650
1631.090192	136.387413
1632.970833	131.648252
1634.845670	126.380420
1636.725489	120.682517
1638.601302	115.593706
1640.476705	111.539860
1642.353495	106.681119
1644.224487	104.155245
1646.098661	104.139161
1647.968837	103.918182
1649.842193	103.348252
1651.713346	104.997203
1653.582297	106.516084
1655.452634	103.854545
1657.318977	101.017483
1659.186706	99.292308
1661.052237	98.248951
1662.919152	98.372727
1664.782079	98.411189
1666.646391	97.718881
1668.508507	97.393706
1670.370219	94.665734
1672.233315	94.416084
1674.094217	94.611888
1675.952925	95.046853
1677.811230	92.960839
1679.670920	90.761538
1681.524843	89.180420
1683.381938	92.049650
1685.238631	94.286014
1687.091348	97.116084
1688.947235	96.809091
1690.799149	100.002098
1692.650662	99.867832
1694.501774	100.906294
1696.352486	100.211189
1698.202797	98.469930
1700.050924	94.027972
1701.900434	88.295804
1703.744196	85.595804
1705.592907	86.157343
1707.435873	83.937063
1709.282004	85.634266
1711.124174	86.509091
1712.969508	89.174825
1714.809102	89.499301
1716.650080	91.728671
1718.492441	90.534965
1720.330846	89.653846
1722.170634	88.860839
1724.008247	86.724476
1725.845464	86.159441
1727.680508	85.014685
1729.516935	83.271329
1731.351190	87.048252
1733.185050	90.778322
1735.018517	90.955245
1736.848037	92.451049
1738.680716	93.889510
1740.509451	96.316084
1742.341344	96.128671
1744.169294	97.358042
1745.996852	95.187413
1747.824018	92.326573
1749.650793	89.114685
1751.477177	86.134965
1753.299623	87.248252
1755.125225	86.497203
1756.946892	86.646853
1758.769941	87.098601
1760.590828	88.400000
1762.411327	89.593706
1764.233207	87.204196
1766.049387	86.217483
1767.868719	85.386713
1769.684124	84.774825
1771.502679	83.695105
1773.317309	84.496503
1775.131553	84.824476
1776.945409	85.816783
1778.758879	85.939860
1780.570196	85.247552
1782.382894	85.158042
1784.195205	83.794406
1786.003599	84.796503
1787.813373	84.837063
1789.619233	86.474825
1791.428238	85.976923
1793.233330	85.807692
1795.039803	88.190909
1796.845892	88.058042
1798.648071	85.636364
1800.453393	82.144056
1802.254807	82.131469
1804.057601	79.883916
1805.856489	80.263636
1807.656758	82.382517
1809.456645	83.951049
1811.254391	85.686713
1813.051755	86.477622
1814.848740	88.296503
1816.645344	89.434965
1818.439809	89.210490
1820.235653	87.183916
1822.025843	85.983916
1823.820928	83.600000
1825.610362	79.813986
1827.402932	78.332168
1829.193367	78.051748
1830.981668	79.930070
1832.773104	80.751748
1834.558894	80.574825
1836.346064	83.469231
1838.131102	81.595105
1839.919274	83.261538
1841.703560	83.153147
1843.485717	84.974126
1845.269252	83.438462
1847.050659	84.868531
1848.833445	84.851748
1850.612350	87.655944
1852.392635	88.875524
1854.170793	87.360140
1855.950330	84.523077
1857.727742	83.546154
1859.503030	78.908392
1861.279697	77.146853
1863.054240	76.463636
1864.830162	79.570629
1866.600463	79.451748
1868.373892	85.472028
1870.145201	88.232168
1871.916140	90.210490
1873.688455	92.683916
1875.455157	92.251748
1877.224985	90.509091
1878.990949	89.318182
1880.760037	88.202797
1882.525263	89.301399
1884.290120	90.150350
1886.056355	89.016783
1887.818731	87.817483
1889.580740	90.925874
1891.342381	90.997203
1893.103656	88.558042
1894.864563	87.946853
1896.625104	83.781818
1898.383535	82.646154
1900.141601	83.333566
1901.897558	84.892308
1903.654892	85.746853
1905.411861	84.278322
1907.166724	84.557343
1908.919481	84.002797
1910.671875	86.590210
1912.425644	88.053846
1914.177310	87.463636
1915.926874	82.734965
1917.677813	80.394406
1919.428390	80.482517
1921.175127	81.662937
1922.923241	82.475524
1924.669255	80.374126
1926.416645	82.416783
1928.161936	84.276923
1929.905130	84.197203
1931.649699	86.219580
1933.392173	86.109091
1935.134286	86.442657
1936.876039	83.346503
1938.617433	83.676923
1940.356732	84.240210
1942.095673	84.497203
1943.834256	82.646503
1945.570746	81.423776
1947.306879	80.388462
1949.044386	79.497203
1950.778071	78.279371
1952.513131	78.593007
1954.246103	79.605944
1955.978718	80.805594
1957.710976	79.887063
1959.442878	81.967832
1961.172694	84.425175
1962.900425	84.383217
1964.629531	84.313287
1966.358282	83.438462
1968.084949	81.333566
1969.811262	83.825874
1971.538948	83.032168
1973.261098	83.471329
1974.986349	84.142657
1976.707794	83.115385
1978.432338	83.596503
1980.154803	86.075524
1981.873464	86.632867
1983.595224	84.842657
1985.313182	87.066434
1987.032513	86.760140
1988.748045	86.558042
1990.468397	87.746154
1992.184951	85.640559
1993.897708	87.305594
1995.613562	89.013287
1997.327342	90.083916
1999.040773	89.850350
2000.752133	88.573427
2002.464866	86.177622
2004.173807	85.889510
2005.885842	86.093007
2007.592367	85.071329
2009.301985	84.220280
2011.009535	85.190210
2012.716738	85.260839
2014.421875	85.938462
2016.126665	84.823077
2017.832827	85.925175
2019.535207	83.909091
2021.238959	81.624476
2022.940647	79.132168
2024.641991	79.783916
2026.342989	78.621678
2028.041927	81.368531
2029.742235	82.543357
2031.438769	81.772028
2033.136674	80.103497
2034.832520	80.272028
2036.531452	81.922378
2038.224898	84.805594
2039.919715	82.504895
2041.614190	82.319580
2043.304896	80.790909
2044.998686	81.364336
2046.688709	80.446853
2048.380103	82.187413
2050.069444	81.659441
2051.760155	80.709091
2053.447103	79.821678
2055.133712	81.582517
2056.821691	83.006993
2058.505910	83.374126
2060.191499	81.686713
2061.876749	82.269930
2063.559951	79.288112
2065.244522	79.904196
2066.923631	80.026573
2068.607525	81.355245
2070.285959	81.814685
2071.967469	82.067832
2073.645229	79.276224
2075.322651	78.487413
2077.001443	76.841259
2078.678193	74.992308
2080.352901	75.155944
2082.028978	77.064336
2083.703015	75.039161
2085.376716	78.876923
2087.050082	79.420979
2088.721410	79.079720
2090.392403	79.259441
2092.063062	77.764336
2093.733386	76.009790
2095.403377	75.339161
2097.071332	73.053846
2098.738954	70.740559
2100.404541	72.147552
2102.071498	72.120280
2103.736420	71.770629
2105.401011	74.024476
2107.063570	74.292308
2108.727497	75.882517
2110.389394	78.081818
2112.050959	82.129371
2113.712193	84.411189
2115.371399	85.111189
2117.030274	85.243357
2118.688820	85.258741
2120.347036	84.109790
2122.001528	81.408392
2123.659085	82.632168
2125.316313	80.223077
2126.969819	80.551748
2128.624693	79.924476
2130.275849	79.699301
2131.930066	78.719580
2133.580567	76.432168
2135.232434	75.962238
2136.878893	78.040559
2138.530107	79.595804
2140.177607	78.098601
2141.826474	80.055245
2143.473323	82.302098
2145.119845	82.879021
2146.766042	81.813986
2148.408531	81.718881
2150.054078	82.181818
2151.695918	80.839860
2153.340815	79.951748
2154.982007	80.287413
2156.622875	82.467133
2158.263419	84.888811
2159.901951	86.534266
2161.541849	87.079021
2163.178047	88.550350
2164.815612	90.421678
2166.452853	88.934965
2168.088085	90.407692
2169.722996	89.079720
2171.357585	86.536364
2172.991852	81.679021
2174.622426	81.063636
2176.256052	78.955944
2177.885986	78.813986
2179.517285	75.296503
2181.146579	71.388112
2182.775554	71.223077
2184.404210	72.269231
2186.032546	74.072028
2187.658879	73.966434
2189.284894	73.872028
2190.908908	76.218182
2192.534286	76.158741
2194.157665	82.266434
2195.782407	83.551748
2197.403469	84.373427
2199.024214	83.117483
2200.646324	82.212587
2202.266436	82.609790
2203.884551	83.074825
2205.502351	83.617483
2207.119836	81.719580
2208.737005	81.801399
2210.353859	85.050350
2211.970398	83.953846
2213.584943	84.732867
2215.197496	82.925175
2216.811413	80.817483
2218.423339	80.158741
2220.036628	75.704895
2221.647927	74.867133
2223.257236	72.411189
2224.867909	72.065734
2226.476593	74.330070
2228.084965	77.291608
2229.691349	84.409091
2231.299097	85.060839
2232.904858	84.103497
2234.510308	83.943357
2236.113773	84.283916
2237.718601	84.144056
2239.321445	80.095105
2240.922307	78.897203
2242.524530	76.825175
2244.124772	75.176923
2245.726376	76.177622
2247.324328	76.995105
2248.923642	82.631469
2250.520976	82.863636
2252.118001	82.423776
2253.716389	84.182517
2255.311128	85.874126
2256.903890	86.230070
2258.498015	83.574825
2260.093501	80.495105
2261.685343	80.213287
2263.276878	79.000699
2264.869774	77.608392
2266.457361	78.032867
2268.049645	79.338462
2269.636621	77.875524
2271.226626	78.149650
2272.811326	80.401399
2274.400719	81.549650
2275.984811	80.695804
2277.570264	79.971329
2279.153747	77.616084
2280.740257	79.553846
2282.323133	80.540559
2283.905705	81.069231
2285.487974	82.112587
2287.066614	81.716084
2288.648277	80.358042
2290.226312	82.812587
2291.807370	84.761538
2293.384801	82.876923
2294.960269	80.813986
2296.538759	80.030070
2298.113625	79.329371
2299.688190	81.048252
2301.262455	82.545455
2302.836419	83.134266
2304.410083	84.132867
2305.983446	84.832168
2307.553191	83.706294
2309.122637	85.151748
2310.695101	83.665035
2312.262291	79.462937
2313.832499	79.179720
2315.399092	78.076923
2316.967045	78.633566
2318.533042	78.609091
2320.098742	80.404895
2321.664145	81.587413
2323.227593	87.539161
2324.792401	92.234965
2326.353601	93.785315
2327.917815	94.905594
2329.476767	93.243357
2331.038734	89.761538
2332.598750	88.754545
2334.158470	88.083916
2335.716241	85.720979
2337.273717	83.486713
2338.830899	82.174126
2340.386134	81.694406
2341.941074	83.544056
2343.495721	84.636364
2345.050074	82.937762
2346.604133	82.069231
2348.157898	79.114685
2349.709720	78.083916
2351.259598	78.598601
2352.812484	80.146154
2354.360128	80.007692
2355.910779	79.575524
2357.457839	79.026573
2359.006258	78.944056
2360.554384	79.555944
2362.098922	82.154545
2363.644818	83.123077
2365.188776	82.862238
2366.734091	83.460140
2368.275821	85.890210
2369.818908	85.850350
2371.360060	84.834965
2372.900922	86.849650
2374.441495	86.862238
2375.981778	86.261538
2377.521773	83.760839
2379.058190	84.083916
2380.597608	85.349650
2382.133449	84.572028
2383.670646	81.755245
2385.204268	82.169930
2386.740891	82.037762
2388.275582	80.350350
2389.808344	80.131469
2391.340819	81.586713
2392.871367	83.692308
2394.404912	85.027972
2395.933245	84.406993
2397.462936	88.144056
2398.992341	90.999301
2400.521460	90.888811
2402.050295	92.552448
2403.573924	91.902797
2405.102190	92.761538
2406.625252	91.815385
2408.152948	90.538462
2409.673805	89.896503
2411.199295	91.153846
2412.721224	88.776923
2414.244509	87.706993
2415.765873	88.124476
2417.285317	86.519580
2418.806116	86.486014
2420.324996	89.497203
2421.843594	89.407692
2423.360275	92.130070
2424.878310	92.571329
2426.396064	94.146853
2427.910267	96.801399
2429.424189	98.924476
2430.937831	99.829371
2432.452828	103.036364
2433.964276	102.136364
2435.477079	102.550350
2436.987968	103.857343
2438.498579	107.990909
2440.007278	109.692308
2441.518963	112.174825
2443.027105	113.681818
2444.534969	113.169930
2446.042555	112.073427
2447.546600	111.278322
2449.053631	110.234965
2450.558753	108.532168
2452.063598	106.121678
2453.566535	106.166434
2455.069197	104.271329
2456.571582	104.851748
2458.072062	102.806993
2459.573895	103.798601
2461.073824	103.504895
2462.573477	100.201399
2464.072854	99.177622
2465.570329	100.607692
2467.065902	101.609091
2468.564455	102.499301
2470.059480	102.303497
2471.555858	103.058042
2473.048708	101.409091
2474.542912	103.056643
2476.036842	102.190210
2477.527248	101.931469
2479.020632	102.086014
2480.512118	101.113287
2482.001707	100.361538
2483.491024	100.653846
2484.978446	99.001399
2486.468843	98.095804
2487.955721	95.062238
2489.443951	95.395105
2490.928665	92.998601
2492.413108	92.704196
2493.898903	91.244755
2495.382805	90.586713
2496.868059	90.306294
2498.348178	91.132867
2499.831271	89.169930
2501.312473	90.424476
2502.793406	87.367133
2504.272450	86.571329
2505.751225	87.094406
2507.229732	87.372028
2508.707971	86.845455
2510.185941	87.000000
2511.660407	87.123077
2513.137841	86.852448
2514.611772	85.039860
2516.087053	86.417483
2517.562068	84.639161
2519.033581	86.479021
2520.506444	84.043357
2521.977425	87.420979
2523.449756	89.720979
2524.916974	91.595105
2526.387157	92.441259
2527.855460	90.619580
2529.323498	88.930769
2530.791271	87.789510
2532.258779	85.703497
2533.726022	87.057343
2535.189773	88.470629
2536.654874	91.677622
2538.118098	91.208392
2539.582672	93.183217
2541.043756	92.106294
2542.506190	91.093706
2543.968361	88.450350
2545.427046	88.922378
2546.890303	90.287413
2548.348463	92.233566
2549.807972	95.410490
2551.262388	98.086014
2552.721373	98.891608
2554.178487	100.648252
2555.633730	97.833566
2557.088712	94.138462
2558.541824	91.225874
2559.996285	91.413986
2561.448877	92.282517
2562.901209	95.964336
2564.351673	97.089510
2565.805093	99.356643
2567.253431	101.626573
2568.704725	100.647552
2570.154152	100.088112
2571.600107	101.939860
2573.049018	98.900000
2574.494457	96.908392
2575.941245	97.636364
2577.386169	100.878322
2578.830835	101.157343
2580.276850	104.280420
2581.719397	103.148252
2583.163292	105.421678
2584.603722	107.077622
2586.045499	107.712587
2587.485417	107.059441
2588.926682	107.706294
2590.364486	106.202797
2591.805239	105.800699
2593.240929	107.067133
2594.679569	109.729371
2596.116352	110.050350
2597.551278	111.238462
2598.989153	109.288811
2600.421969	114.246853
2601.856133	113.942657
2603.288443	114.097203
2604.722099	115.635664
2606.153902	115.721678
2607.585452	116.342657
2609.016748	118.959441
2610.446192	121.668531
2611.875384	122.963636
2613.302726	124.693706
2614.731414	128.031469
2616.159849	131.558042
2617.584837	135.532867
2619.011172	133.928671
2620.435658	137.380420
2621.861490	142.532168
2623.283878	144.522378
2624.707612	146.057343
2626.129499	147.853147
2627.551137	149.504196
2628.970929	150.075524
2630.392067	154.658741
2631.812955	159.006993
2633.230405	161.414685
2634.650794	163.231469
2636.067746	164.386014
2637.484449	170.645455
2638.900905	175.304196
2640.317111	181.366434
2641.733070	184.461538
2643.147188	190.382517
2644.561059	194.703497
2645.973090	198.794406
2647.386466	206.889510
2648.796412	212.301399
2650.209293	215.620280
2651.618746	221.400699
2653.027954	225.830070
2654.435324	232.290909
2655.845630	238.984615
2657.254099	248.616783
2658.660733	254.229371
2660.067122	261.660839
2661.471677	267.029371
2662.877576	277.702098
2664.281642	285.263636
2665.685463	292.525874
2667.089041	298.383217
2668.490786	309.030070
2669.893875	317.867133
2671.293546	326.978322
2672.694561	337.193706
2674.092160	343.870629
2675.492689	352.745455
2676.889803	362.280420
2678.288260	367.655245
2679.684889	378.311888
2681.081276	382.252448
2682.477422	388.774825
2683.871741	390.180420
2685.267403	393.379021
2686.659655	397.200699
2688.053250	400.930070
2689.445022	401.787413
2690.838135	400.591608
2692.229425	404.406993
2693.618892	404.432867
2695.008119	401.360839
2696.397107	406.536364
2697.787437	404.605594
2699.172782	406.965734
2700.561051	402.921678
2701.947500	401.843357
2703.333710	403.716084
2704.719682	403.286713
2706.102254	400.506993
2707.486169	397.143357
2708.869846	394.262937
2710.253285	390.360140
2711.633328	382.362238
2713.014713	378.770629
2714.394282	372.679720
2715.775193	368.344056
2717.154288	357.642657
2718.531570	348.189510
2719.910193	336.090909
2721.287003	324.057343
2722.663577	313.366434
2724.039915	302.630769
2725.414441	294.634965
2726.790308	283.071329
2728.162788	271.851049
2729.538184	262.951049
2730.908620	253.518182
2732.280397	242.146154
2733.651939	231.527972
2735.021673	221.560140
2736.392748	209.658042
2737.762014	200.013986
2739.131048	192.632168
2740.498274	188.859441
2741.865268	184.102797
2743.232029	176.252448
2744.598557	172.506993
2745.963280	166.076224
2747.327772	160.392308
2748.692031	154.356643
2750.056058	148.858741
2751.419854	141.830769
2752.780276	137.185315
2754.143609	133.753147
2755.501999	130.419580
2756.863299	131.529371
2758.221228	125.074825
2759.582067	122.066434
2760.941105	119.758741
2762.296775	116.565734
2763.655353	115.056643
2765.010564	114.209091
2766.365547	111.244755
2767.718732	109.076923
2769.074824	110.779720
2770.427552	114.543357
2771.780051	112.319580
2773.132322	112.200000
2774.485932	108.316084
2775.836180	108.592308
2777.184635	105.092308
2778.535994	99.907692
2779.883994	98.508392
2781.233332	100.369231
2782.580879	96.960140
2783.928198	96.427972
2785.275291	97.913287
2786.620593	99.140559
2787.965669	96.205594
2789.310518	94.518881
2790.655142	95.229371
2791.996414	95.586713
2793.339024	91.647552
2794.681408	90.551748
2796.023568	91.729371
2797.362378	95.616783
2798.704087	94.566434
2800.042449	94.197203
2801.382148	95.374126
2802.720061	94.850350
2804.056190	93.190909
2805.392095	90.476224
2806.729338	92.204196
2808.064797	89.681818
2809.400033	86.187413
2810.733486	86.872028
2812.068277	87.809091
2813.399726	89.784615
2814.734071	87.300699
2816.063518	86.992308
2817.394302	87.881119
2818.724864	87.354545
2820.053647	86.003497
2821.383766	85.362238
2822.712107	86.711888
2824.040227	84.784615
2825.366569	83.043357
2826.694248	84.557343
2828.018593	85.441259
2829.344275	84.051748
2830.668181	83.406294
2831.991868	85.814685
2833.316890	83.102797
2834.638582	82.511189
2835.960056	81.096503
2837.281311	78.979720
2838.602347	78.795105
2839.921611	77.302098
2841.242210	75.983217
2842.561037	75.374126
2843.879646	75.223077
2845.196484	75.589510
2846.513105	77.426573
2847.829509	76.881119
2849.144144	75.127273
2850.460113	75.837063
2851.772762	74.947552
2853.086747	76.474126
2854.400514	74.465734
2855.714066	72.400000
2857.025850	72.413287
2858.335868	71.541958
2859.647221	73.248951
2860.955259	76.530769
2862.264632	78.358741
2863.573789	78.891608
2864.882731	80.209091
2866.189909	78.434266
2867.495325	77.784615
2868.802075	77.672028
2870.107062	72.874825
2871.411836	68.848252
2872.714848	64.824476
2874.020742	63.829371
2875.321780	68.077622
2876.624153	73.230769
2877.924766	78.223077
2879.226713	83.348252
2880.528447	84.778322
2881.826876	85.617483
2883.126640	87.350350
2884.424645	87.815385
2885.722439	85.452448
2887.018477	82.153846
2888.315848	78.146853
2889.611463	79.368531
2890.906867	80.310490
2892.202061	79.420979
2893.493956	79.475524
2894.788728	76.929371
2896.080203	74.614685
2897.373011	73.414685
2898.665609	70.153846
2899.954913	70.683916
2901.245549	71.952448
2902.534434	73.896503
2903.824652	72.937063
2905.111577	78.281119
2906.399836	78.161538
2907.686344	78.804196
2908.972645	79.141958
2910.258737	77.045455
2911.543081	77.639860
2912.830296	76.986014
2914.112685	74.384615
2915.396406	77.629371
2916.678381	80.265734
2917.960148	80.260839
2919.240171	79.626573
2920.523063	83.693007
2921.804210	83.087413
2923.082075	84.036364
2924.362809	82.746154
2925.640262	80.637762
2926.917509	79.449650
2928.193015	75.913287
2929.471388	73.456643
2930.744946	73.725175
2932.021372	73.665734
2933.296057	72.915385
2934.569002	73.506993
2935.843277	76.046853
2937.115813	76.483217
2938.388145	80.120979
2939.657203	81.016084
2940.929127	81.172028
2942.199313	80.045455
2943.469296	75.632168
2944.739075	75.367832
2946.007117	75.227972
2947.273424	73.345455
2948.539528	73.233566
2949.806962	74.013986
2951.072662	74.164336
2952.338159	73.116084
2953.603454	78.479720
2954.865484	76.760140
2956.128845	76.125874
2957.392003	74.234266
2958.653430	71.947552
2959.916186	71.190210
2961.177211	71.336364
2962.436504	69.710490
2963.695598	71.048951
2964.954491	72.735664
2966.213184	75.960140
2967.471677	76.432168
2968.728441	80.138462
2969.985005	77.353846
2971.239842	80.166434
2972.496007	78.948252
2973.748918	77.239161
2975.003158	74.713287
2976.257199	73.564336
2977.509514	73.137063
2978.761631	71.132867
2980.012022	70.316084
2981.265269	72.129371
2982.513739	68.867133
2983.765064	71.027273
2985.013139	68.772727
2986.261018	69.460839
2987.508699	67.958042
2988.756184	67.123776
2990.001946	68.041259
2991.247513	69.397902
2992.494407	68.382517
2993.738057	67.393007
2994.983035	67.857343
2996.224769	66.971329
2997.469355	66.404895
2998.712222	70.451049
2999.951848	68.250350
3001.194324	67.484615
3002.433561	68.123077
3003.674125	68.121678
3004.912972	68.602797
3006.151625	68.230070
3007.388562	66.113986
3008.626826	66.644755
3009.863376	65.360839
3011.099731	64.232168
3012.335893	65.735664
3013.570342	68.702098
3014.804597	69.134965
3016.038659	71.327972
3017.271009	71.483916
3018.501647	72.372028
3019.735131	72.930070
3020.966903	73.946853
3022.196965	73.389510
3023.426835	72.327972
3024.654995	69.725175
3025.884481	70.973427
3027.112259	69.753147
3028.339845	69.888811
3029.568757	70.168531
3030.792927	71.628671
3032.019940	69.244056
3033.243729	69.669930
3034.468845	68.176923
3035.692254	67.958741
3036.915473	66.435664
3038.136987	66.633566
3039.361343	66.019580
3040.580962	69.680420
3041.801908	68.023077
3043.022665	68.390210
3044.241718	69.654545
3045.462097	69.791608
3046.679259	63.793706
3047.897746	60.739161
3049.114531	55.400699
3050.331129	51.253147
3051.547538	49.430070
3052.760735	49.914685
3053.976769	51.306294
3055.189591	54.561538
3056.405250	54.713986
3057.616186	57.188112
3058.828447	60.471329
3060.040522	61.211189
3061.252410	59.139860
3062.462600	60.572727
3063.672604	58.602797
3064.882423	57.121678
3066.090545	58.079720
3067.298481	60.962937
3068.504723	61.657343
3069.712288	62.381119
3070.918160	64.647552
3072.123846	65.356643
3073.329347	67.243357
3074.533155	66.302098
3075.738287	66.794406
3076.941727	66.251748
3078.143474	65.218881
3079.345038	65.088112
3080.546417	64.668531
3081.747614	64.494406
3082.947119	58.762937
3084.146442	56.427972
3085.347088	56.859441
3086.546044	56.352448
3087.741806	57.280420
3088.940397	56.995804
3090.135794	60.934965
3091.332514	63.273427
3092.526042	66.095105
3093.722398	68.571329
3094.917068	69.769930
3096.108547	70.459441
3097.304357	66.096503
3098.495474	63.600000
3099.687913	61.060140
3100.877165	59.153846
3102.069243	55.681818
3103.259636	53.959441
3104.446844	50.934266
3105.635375	51.400000
3106.825228	51.774825
3108.011896	54.986014
3109.198385	56.632867
3110.384694	58.042657
3111.572325	59.304895
3112.756775	63.471329
3113.939544	64.802098
3115.125136	67.883916
3116.309049	67.276224
3117.491283	65.451049
3118.673338	63.422378
3119.855216	64.283217
3121.036915	62.005594
3122.216936	59.857343
3123.395281	56.115385
3124.576447	54.482517
3125.754437	55.560140
3126.932250	58.009091
3128.109886	56.134965
3129.285847	55.909790
3130.461631	55.541259
3131.638737	55.461538
3132.814168	56.397203
3133.987926	56.346154
3135.160012	56.734965
3136.333418	56.907692
3137.506649	59.671329
3138.678207	63.372028
3139.851086	62.064336
3141.020799	62.644056
3142.191831	61.607692
3143.361194	61.993706
3144.528887	60.897902
3145.699395	57.900000
3146.865244	56.042657
3148.035403	56.066434
3149.200904	55.060140
3150.366232	55.263636
3151.531386	59.918182
3152.696366	60.537762
3153.862667	59.348951
3155.024314	64.183916
3156.187282	65.316783
3157.350076	66.292308
3158.512698	64.348951
3159.673655	62.665734
3160.834439	62.122378
3161.995051	59.512587
3163.154000	57.072028
3164.312776	57.197203
3165.471381	57.163636
3166.629814	56.397203
3167.788075	57.979720
3168.944674	58.895105
3170.099612	57.255245
3171.255869	60.575524
3172.410466	59.190210
3173.564891	57.275524
3174.717657	56.807692
3175.870253	55.091608
3177.022678	54.465734
3178.174934	55.187413
3179.327019	53.163636
3180.475959	53.823077
3181.627705	51.990210
3182.777793	49.784615
3183.926225	47.402797
3185.074488	52.103497
3186.222581	50.045455
3187.370506	50.035664
3188.516776	50.891608
3189.662877	51.832168
3190.807323	53.073427
3191.951602	54.983217
3193.095713	53.683217
3194.241142	52.423077
3195.383431	51.360140
3196.525554	48.368531
3197.667509	46.837762
3198.809298	49.697902
3199.950919	48.174825
3201.089404	50.243357
3202.229207	53.398601
3203.370328	54.774825
3204.508314	58.245455
3205.644651	61.679720
3206.780822	61.646154
3207.918311	60.025874
3209.054150	60.381119
3210.191307	59.308392
3211.323851	58.279021
3212.460677	58.755245
3213.592891	59.063636
3214.726422	62.669930
3215.859789	67.184615
3216.990028	68.328671
3218.123065	72.337762
3219.252976	77.645455
3220.384203	78.362937
3221.512306	75.655245
3222.643205	77.624476
3223.772460	77.941259
3224.900072	76.355944
3226.024562	78.088811
3227.153326	77.853147
3228.278970	77.435664
3229.404450	76.101399
3230.528289	76.693007
3231.654922	76.997203
3232.776958	77.519580
3233.900310	75.775524
3235.023500	73.923077
3236.146528	74.436364
3237.267916	71.363636
3238.389143	69.735664
3239.508731	70.566434
3240.628158	69.062937
3241.745947	64.883916
3242.866529	62.246853
3243.983996	62.186014
3245.101303	57.602098
3246.218450	57.522378
3247.333961	59.351049
3248.450787	59.769231
3249.564502	59.883916
3250.681007	60.768531
3251.795878	59.373427
3252.907640	60.346154
3254.019243	59.637762
3255.132160	58.160839
3256.244919	58.982517
3257.354571	56.407692
3258.465537	52.569231
3259.576345	54.537762
3260.685522	50.616084
3261.793067	49.967832
3262.901926	52.039161
3264.010628	53.702797
3265.116227	50.351049
3266.223140	49.983916
3267.328424	50.367133
3268.435023	50.487413
3269.538521	52.086014
3270.643333	51.348951
3271.747988	51.569231
3272.849544	56.586014
3273.950945	53.918182
3275.053659	54.516084
3276.156216	56.850350
3277.255677	57.402797
3278.357922	53.027273
3279.457071	52.686014
3280.554596	51.194406
3281.651965	49.468531
3282.752117	48.772028
3283.849175	48.134965
3284.946078	48.983217
3286.042826	50.504196
3287.135016	46.383916
3288.231454	47.778322
3289.326270	48.100699
3290.420932	47.107692
3291.513972	47.274126
3292.606858	48.086713
3293.698123	44.734266
3294.790701	45.569930
3295.881658	45.530769
3296.970996	46.222378
3298.060181	47.289510
3299.150679	49.259441
3300.238092	48.661538
3301.325353	51.537063
3302.413926	50.681818
3303.502346	54.346853
3304.586219	56.532867
3305.674334	53.530070
3306.759368	50.072028
3307.842785	51.075524
3308.927515	51.688112
3310.010630	53.711888
3311.095056	55.248951
3312.176404	57.467133
3313.259064	54.228671
3314.340110	53.766434
3315.421005	53.189510
3316.500286	53.589510
3317.579418	52.790210
3318.659860	48.772028
3319.737229	45.039860
3320.815908	44.476224
3321.892977	45.982517
3322.969895	45.582517
3324.045202	48.060140
3325.120360	49.077622
3326.196829	47.534266
3327.270228	49.708392
3328.343478	51.804196
3329.418038	52.916084
3330.490990	55.890210
3331.562333	52.855245
3332.634988	51.160839
3333.704575	48.889510
3334.775473	46.542657
3335.844764	44.326573
3336.915366	45.548951
3337.984361	42.789510
3339.051750	42.116783
3340.117534	43.315385
3341.187544	44.418182
3342.254491	46.085315
3343.318376	48.574825
3344.385029	49.627972
3345.450077	50.982517
3346.513522	50.744755
3347.576821	51.028671
3348.639973	53.981119
3349.702979	53.073427
3350.765839	50.276923
3351.827097	49.565734
3352.885298	50.132168
3353.947720	50.521678
3355.007085	49.753846
3356.066305	48.711888
3357.126835	48.648951
3358.182855	46.218881
3359.241640	44.078322
3360.295917	45.495804
3361.352957	47.331469
3362.408400	43.640559
3363.465151	42.265035
3364.520304	42.846853
3365.573861	44.723077
3366.625820	45.978322
3367.680541	46.467832
3368.732213	44.978322
3369.783742	47.181818
3370.836579	48.687413
3371.886369	52.602098
3372.937468	57.237762
3373.985521	60.551049
3375.036334	58.600000
3376.084101	57.094406
3377.131726	53.283916
3378.179208	49.019580
3379.225098	44.807692
3380.272296	40.059441
3381.316452	34.481818
3382.363366	36.820280
3383.408688	37.621678
3384.450969	40.201399
3385.493110	38.675524
3386.536558	43.783916
3387.579866	44.888811
3388.621583	47.006294
3389.663159	47.906294
3390.704595	47.761538
3391.744441	46.420280
3392.782700	45.323077
3393.822266	44.158042
3394.861691	45.351748
3395.899529	43.662937
3396.935780	41.486713
3397.971892	36.097203
3399.009311	38.149650
3400.043697	37.994406
3401.079390	40.055245
3402.114944	42.495105
3403.147467	43.468531
3404.182743	44.550350
3405.214988	43.887413
3406.247095	45.151049
3407.277618	46.241958
3408.309448	45.302797
3409.341140	43.656643
3410.369805	40.644056
3411.398331	38.043357
3412.428165	37.867832
3413.457860	41.557343
3414.484530	46.061538
3415.512507	46.367133
3416.537459	44.936364
3417.565161	44.357343
3418.589840	45.330070
3419.615825	45.744755
3420.640230	45.502098
3421.664499	44.993706
3422.687189	43.016783
3423.709743	41.127972
3424.733603	44.469930
3425.754443	47.792308
3426.775148	47.689610
3427.797158	47.666983
3428.816150	48.135265
3429.835007	49.505295
3430.855169	52.187912
3431.872315	56.593956
