-117.384298	5.234615
-114.714698	3.789011
-112.048033	2.966334
-109.382120	2.587912
-106.719139	2.475075
-104.054729	2.449151
-101.393249	2.331469
-98.730339	0.080420
-96.072537	-2.335664
-93.413304	-2.808392
-90.754821	-0.943357
-88.099261	0.092308
-85.442273	0.272028
-82.790382	4.051748
-80.137062	5.837762
-77.486662	4.982517
-74.834832	2.988112
-72.188093	4.056643
-69.539924	4.950350
-66.892499	1.312587
-64.247987	0.796503
-61.602047	0.106294
-58.961188	-0.018881
-56.318900	-0.739161
-53.679520	-0.071329
-51.038712	1.492308
-48.398644	-1.638462
-45.763648	-1.734965
-43.127224	-0.283916
-40.493702	0.723077
-37.858752	1.502098
-35.228867	2.583217
-32.595390	4.390909
-29.966975	6.233566
-27.339293	7.416783
-24.710184	3.669231
-22.086131	-20.960140
-19.458489	-107.587413
-16.835900	-280.883916
-14.214043	-172.772727
-11.592916	385.860839
-8.972519	1255.465734
-6.355010	1969.340559
-3.736073	2452.821678
-1.120022	2707.916783
1.495301	2732.865734
4.109897	2524.775524
6.721610	2091.340559
9.334752	1450.453846
11.942860	664.105594
14.554550	-73.852448
17.161209	-359.540559
19.769296	-245.650350
22.376659	-22.191608
24.978997	12.152448
27.584913	8.786014
30.185807	8.290210
32.788129	6.018182
35.385434	2.236364
37.986314	0.362238
40.582180	0.485315
43.179473	1.826573
45.776047	1.511888
48.367612	0.751049
50.960605	1.453846
53.550737	2.054545
56.142297	3.692308
58.730997	2.378322
61.321124	2.765734
63.906253	3.191608
66.492808	3.644755
69.078650	2.016783
71.661638	1.210490
74.246052	0.706294
76.823338	-0.260140
79.404190	-1.617483
81.982193	-0.546853
84.559486	1.606993
87.138205	2.096503
89.711943	4.055944
92.287107	4.508392
94.859428	7.018881
97.431041	6.534965
99.999814	3.784615
102.570014	1.832867
105.137376	1.790210
107.706163	-0.169231
110.272114	-0.921678
112.835230	0.736364
115.401902	4.527273
117.959353	4.793007
120.522489	10.348252
123.080666	15.602797
125.642396	24.301399
128.199170	38.153846
130.757371	60.776224
133.310619	88.691608
135.863168	125.269930
138.419268	162.709790
140.970421	201.644755
143.520875	240.117483
146.070632	277.890909
148.617571	305.411189
151.163813	326.460839
153.711481	336.437762
156.258453	342.547552
158.800490	344.627273
161.341833	347.855245
163.882483	345.011888
166.424559	341.704196
168.963823	335.661538
171.500279	332.279720
174.036043	331.023077
176.573233	330.590909
179.109732	328.625874
181.643425	329.669231
184.174315	331.245455
186.704516	335.548252
189.236142	339.604895
191.764967	345.236364
194.290993	344.128671
196.816333	345.725175
199.343099	348.130769
201.867067	351.648252
204.390351	351.118182
206.912950	350.361538
209.432756	351.372727
211.951879	352.665035
214.470319	351.807692
216.990183	353.704196
219.503046	351.506993
222.019440	346.860140
224.535152	345.735664
227.045974	345.045455
229.558222	343.295804
232.067686	345.705594
234.576472	344.760839
237.084580	345.790210
239.594111	348.031469
242.098762	351.020280
244.602738	350.706993
247.108137	358.027273
249.608661	357.158741
252.112708	359.062937
254.609785	361.527273
257.110384	363.575524
259.608212	366.260839
262.105367	369.071329
264.601849	369.546154
267.093468	371.359441
269.588607	373.697203
272.080980	375.064336
274.572682	375.293007
277.061620	377.519580
279.551983	374.123077
282.039583	373.443357
284.524425	372.219580
287.012780	373.072028
289.494196	370.099301
291.979126	367.920979
294.459211	369.325175
296.942808	368.958741
299.421562	367.605594
301.901740	370.002797
304.379165	369.389510
306.855927	371.161538
309.332026	380.925874
311.805376	400.549650
314.278064	420.700699
316.750091	438.032168
319.221457	449.744755
321.690079	456.217483
324.158041	455.620979
326.627425	449.690210
329.091987	437.648951
331.560053	421.783217
334.023299	402.637063
336.485887	389.944755
338.947819	382.237762
341.409094	380.248252
343.867635	380.581119
346.327598	383.136364
348.784828	385.712587
351.241404	389.444056
353.697326	392.380420
356.150519	394.557343
358.605133	393.516783
361.054946	390.706993
363.508255	390.974126
365.956766	388.108392
368.404626	381.447552
370.853907	375.608392
373.298395	377.423776
375.744305	381.925175
378.189566	383.123776
380.632107	386.181818
383.074001	386.713287
385.515248	384.974825
387.953779	386.223077
390.393732	387.399301
392.830971	385.326573
395.265498	382.703497
397.703513	379.860839
400.136751	379.196503
402.571411	380.160140
405.001297	380.998601
407.434669	380.275524
409.863271	383.332867
412.291232	383.872028
414.720613	383.397902
417.145229	386.316783
419.571267	385.692308
421.996664	382.939860
424.421421	382.358741
426.841420	380.555245
429.262840	378.192308
431.681563	374.830769
434.101707	373.720280
436.519156	373.732867
438.938025	374.618881
441.354201	376.236364
443.765630	374.603497
446.180535	378.103497
448.592750	380.500000
451.004331	380.667832
453.415278	378.537063
455.823539	378.481119
458.231167	373.234266
460.638164	370.612587
463.044528	367.066434
465.448210	364.002797
467.851262	363.136364
470.253684	360.125874
472.655477	360.304196
475.054591	362.339860
477.455125	365.488112
479.855030	367.476224
482.250212	369.548951
484.648861	372.485315
487.042790	368.900699
489.436093	365.672727
491.828770	358.077622
494.220822	347.516783
496.614292	336.904196
499.003051	322.552448
501.389143	312.975524
503.776654	300.055245
506.163543	293.850350
508.547768	285.994406
510.933412	278.609790
513.316393	269.407692
515.696714	259.375524
518.078454	248.514685
520.457535	238.962937
522.838035	229.339860
525.215877	225.024476
527.591064	221.324476
529.965633	219.955245
532.341621	220.193706
534.714955	223.265035
537.089707	223.084615
539.459774	223.737762
541.829225	221.777622
544.200094	220.100000
546.566283	217.230769
548.933890	214.944755
551.298851	212.906294
553.663199	213.169231
556.026935	210.806294
558.392088	208.370629
560.752568	209.019580
563.114467	206.402098
565.473726	206.972028
567.830346	204.284615
570.190411	204.404895
572.543786	204.647552
574.900605	203.040559
577.254788	205.066434
579.608364	204.000000
581.961331	203.690909
584.311667	201.583916
586.663419	202.090210
589.008495	204.330070
591.359035	203.037762
593.702901	203.323077
596.052229	204.939860
598.396909	205.309091
600.738963	202.134965
603.082435	198.142657
605.423284	196.601399
607.763531	190.853846
610.101157	186.542657
612.442218	185.151748
614.778641	182.539860
617.116481	181.590909
619.451704	180.943357
621.784311	180.034266
624.118334	183.703497
626.449744	180.166434
628.780555	180.594406
631.110768	180.344755
633.440383	179.032168
635.765376	176.705594
638.095810	177.284615
640.421622	179.677622
642.744828	175.409091
645.069449	174.925874
647.391465	173.026573
649.712888	170.348951
652.031707	168.221678
654.351942	167.869231
656.671584	168.567832
658.988625	165.628671
661.305074	163.633566
663.618925	164.650350
665.934192	166.616084
668.246862	165.061538
670.560947	164.979021
672.870432	165.697902
675.181333	164.964336
677.489641	164.692308
679.797361	165.109790
682.106496	164.994406
684.411038	165.580420
686.714993	166.753846
689.018363	164.791608
691.323147	163.225175
693.623345	160.629371
695.924957	155.482517
698.225985	156.733566
700.522430	155.361538
702.820291	156.106993
705.117568	156.509091
707.414262	159.565734
709.706380	160.357343
712.001909	163.844056
714.292865	163.981119
716.585235	159.200000
718.875029	156.632867
721.164243	155.994406
723.452878	156.408392
725.738941	157.561538
728.026417	157.968531
730.311322	157.529371
732.595650	159.447552
734.877409	161.773427
737.160582	164.236364
739.443178	163.839161
741.721219	165.441259
744.000673	165.338462
746.279552	168.031469
748.557855	171.058042
750.831609	171.640559
753.106777	171.690210
755.381371	167.932867
757.653405	164.183217
759.926853	161.757343
762.197743	158.158741
764.466077	157.294406
766.735824	156.249650
769.003017	159.684615
771.269639	159.743357
773.535691	162.874825
775.799192	166.598601
778.064106	169.138462
780.328450	170.351748
782.588265	169.928671
784.849493	169.648252
787.110152	167.369231
789.368266	165.244755
791.623835	163.977622
793.882795	164.558042
796.135256	163.699301
798.393084	163.025175
800.646392	163.575524
802.897161	168.046154
805.149342	168.265734
807.398985	163.716084
809.650039	162.095804
811.896582	158.413287
814.144537	157.176224
816.389958	156.306294
818.636790	153.546154
820.883061	151.682517
823.124828	150.918182
825.369977	153.414685
827.608654	154.437762
829.850713	158.043357
832.088274	158.090210
834.327247	155.912587
836.563693	156.173427
838.801550	157.061538
841.036882	158.497902
843.269691	157.037762
845.503911	152.270629
847.735609	147.556643
849.966751	146.514685
852.197340	146.734266
854.427373	144.740559
856.656853	141.960140
858.881851	138.626573
861.110224	139.495804
863.334118	140.160140
865.559422	140.937762
867.780251	143.421678
870.004452	143.409790
872.224180	144.027972
874.445319	145.130070
876.665907	147.995105
878.883985	149.176923
881.103474	148.614685
883.318495	145.255245
885.532970	143.967133
887.746896	145.677622
889.960276	144.658741
892.173108	145.232168
894.385394	146.955245
896.595177	144.942657
898.804415	147.053846
901.013108	149.381119
903.219302	146.938462
905.426905	148.312587
907.632010	149.912587
909.836572	149.323077
912.038639	151.308392
914.242115	152.228671
916.443097	155.086014
918.643538	155.393706
920.845386	154.502098
923.040844	151.865035
925.239661	151.755245
927.434039	152.185315
929.631775	148.144056
931.825075	150.247552
934.019784	151.586713
936.212007	152.379021
938.403692	155.756643
940.594839	154.704196
942.783503	156.036364
944.971630	157.707692
947.157277	158.184615
949.346276	160.104196
951.530852	164.748951
953.714893	169.751049
955.902284	170.776923
958.081371	174.927273
960.263809	180.853846
962.445713	180.931469
964.625143	183.009790
966.802099	181.548252
968.980464	182.369231
971.160236	184.450350
973.333659	184.209790
975.510428	185.104196
977.682790	189.037762
979.856560	189.295105
982.025926	188.844056
984.198637	190.911888
986.368881	194.551748
988.538597	192.145455
990.707784	194.147552
992.872574	195.651748
995.040705	196.787413
997.204442	198.379720
999.369585	198.834965
1001.532270	201.451748
1003.694428	206.828671
1005.854130	207.407692
1008.013308	208.862937
1010.173892	212.782517
1012.332021	216.441259
1014.489626	213.537762
1016.646708	214.430070
1018.803267	215.075524
1020.955446	216.060839
1023.109031	213.771329
1025.262095	216.010490
1027.412711	218.253147
1029.564732	220.372727
1031.712380	224.669930
1033.863360	229.215385
1036.009969	235.551748
1038.156060	237.267133
1040.301631	240.347552
1042.448608	242.474825
1044.589296	241.977622
1046.733314	243.424476
1048.874891	243.152448
1051.015952	246.663636
1053.158417	245.343357
1055.294603	246.287413
1057.434115	253.593007
1059.569271	256.227273
1061.707752	257.769930
1063.841879	257.558741
1065.975493	258.066434
1068.110512	255.165734
1070.241181	253.545455
1072.373255	252.495105
1074.502900	250.409091
1076.632033	247.134965
1078.760654	244.748951
1080.888764	242.860839
1083.014448	243.704895
1085.139622	238.502797
1087.266200	235.381119
1089.388441	230.740559
1091.512085	225.988811
1093.631396	223.294406
1095.755935	219.505594
1097.874229	216.030769
1099.993928	210.485315
1102.111208	207.779021
1104.227982	207.000699
1106.344249	206.200699
1108.458101	205.671329
1110.573356	204.697902
1112.684289	206.986014
1114.798533	206.284615
1116.908457	207.003497
1119.019785	203.531469
1121.130608	199.654545
1123.237115	197.532867
1125.346932	193.293007
1127.452434	191.595105
1129.559339	189.712587
1131.660029	190.449650
1133.765931	189.885315
1135.867524	191.082517
1137.970520	191.332168
1140.073015	188.424476
1142.169303	187.144056
1144.270799	184.863636
1146.367992	181.997902
1148.464686	181.911888
1150.560882	180.705594
1152.656581	179.197203
1154.751781	178.804196
1156.844586	179.437762
1158.938792	181.716783
1161.026807	182.134266
1163.120020	179.519580
1165.207045	178.051049
1167.297369	181.111189
1169.383406	181.286713
1171.472740	180.768531
1173.555893	182.846154
1175.640448	180.718182
1177.726405	182.814685
1179.808080	181.105594
1181.891157	183.920280
1183.971848	188.374825
1186.052047	187.720280
1188.131755	186.479720
1190.210972	189.024476
1192.287807	187.160839
1194.362261	183.800699
1196.440006	183.489510
1198.513482	180.939860
1200.588358	177.448951
1202.658967	178.200000
1204.730978	175.132168
1206.800612	175.876224
1208.871647	175.160140
1210.942194	173.388112
1213.008480	173.551748
1215.076167	172.702098
1217.141482	169.408392
1219.208197	169.311888
1221.270656	169.197902
1223.336400	166.520979
1225.397891	167.624476
1227.460781	169.643357
1229.521304	173.369930
1231.581343	176.342657
1233.640900	176.903497
1235.698091	175.639161
1237.754801	176.972028
1239.809148	176.713287
1241.866775	177.953147
1243.922040	176.281818
1245.973064	173.939161
1248.025488	170.309790
1250.077432	169.638462
1252.127018	173.307692
1254.176125	172.795105
1256.224754	173.918182
1258.272904	172.862937
1260.320575	172.833566
1262.364017	171.739161
1264.410733	173.770629
1266.455096	174.230070
1268.498983	174.932867
1270.540519	175.860839
1272.579704	175.471329
1274.622163	179.309091
1276.660399	185.437762
1278.700034	185.337063
1280.739194	187.229371
1282.774135	190.190210
1284.810475	191.831469
1286.844471	191.046853
1288.879865	196.201399
1290.911045	198.516783
1292.943624	201.828671
1294.975730	203.146853
1297.005496	207.026573
1299.036660	213.744056
1301.063616	221.769930
1303.091970	228.310490
1305.116120	234.513287
1307.143534	244.234965
1309.166746	254.167133
1311.191356	262.863636
1313.213632	274.062937
1315.237305	284.490210
1317.258645	295.036364
1319.279517	300.994406
1321.299922	308.781818
1323.316134	321.805594
1325.333743	334.747552
1327.349024	343.900699
1329.367564	354.209790
1331.381915	365.396503
1333.393940	378.830070
1335.409222	389.300699
1337.420319	395.936364
1339.432813	399.674126
1341.441124	398.437762
1343.452691	394.705594
1345.458218	389.595804
1347.467001	387.567832
1349.471606	381.940559
1351.479465	371.645455
1353.486862	364.896503
1355.488228	356.632867
1357.490991	349.926573
1359.493293	339.658741
1361.495136	322.376224
1363.496519	304.404196
1365.495589	287.988811
1367.494200	273.040559
1369.492353	259.400000
1371.490047	248.379021
1373.483579	237.290210
1375.478507	225.511888
1377.472977	217.370629
1379.466992	210.209790
1381.458698	204.916783
1383.449950	199.390909
1385.438896	193.835664
1387.429237	191.665734
1389.419123	189.006294
1391.406706	186.737063
1393.393834	185.925175
1395.378662	184.172727
1397.364883	182.337762
1399.348805	181.304895
1401.332274	179.080420
1403.315291	181.565035
1405.296009	180.530070
1407.278123	177.641259
1409.257939	175.607692
1411.237305	173.980420
1413.212531	171.045455
1415.190997	171.283916
1417.167168	170.440559
1419.142891	170.861538
1421.118164	172.083217
1423.091146	174.841259
1425.063680	176.409790
1427.035767	179.602098
1429.007405	177.437762
1430.974915	175.313986
1432.947500	173.411888
1434.912278	172.565734
1436.882128	171.061538
1438.847855	171.402797
1440.814974	168.493706
1442.779810	166.574126
1444.740526	167.663636
1446.706311	170.588112
1448.666140	172.849650
1450.627362	173.332867
1452.589977	175.527273
1454.548477	178.939860
1456.506534	179.665035
1458.464150	180.467832
1460.421324	181.769930
1462.376222	185.765734
1464.332512	185.513287
1466.286528	189.407692
1468.240104	192.446853
1470.191407	195.795804
1472.144102	197.955245
1474.094526	198.600699
1476.044510	196.388112
1477.994056	196.560140
1479.941333	196.590210
1481.886343	198.702797
1483.832744	202.176224
1485.778708	201.672028
1487.724235	201.369231
1489.667497	203.876224
1491.610322	203.202098
1493.550884	203.095804
1495.492837	204.583217
1497.432528	206.816084
1499.371785	207.676923
1501.310606	214.842657
1503.247168	220.009790
1505.185121	225.388811
1507.120815	228.523077
1509.056076	231.401399
1510.989081	236.821678
1512.921653	241.282517
1514.853793	245.535664
1516.785501	251.685315
1518.714955	258.183217
1520.645800	264.167133
1522.576213	272.675524
1524.502554	283.363636
1526.430286	288.774825
1528.355767	299.533566
1530.280819	310.934266
1532.205442	327.369930
1534.129636	348.894406
1536.051583	373.139161
1537.974919	403.125874
1539.896010	437.297902
1541.814856	474.958042
1543.735092	525.188112
1545.653084	587.808392
1547.570650	666.918881
1549.485974	767.166434
1551.402688	894.685315
1553.315347	1043.183217
1555.231210	1218.769231
1557.144833	1409.964336
1559.056219	1603.339161
1560.968993	1788.171329
1562.877718	1937.646853
1564.787833	2047.322378
1566.697523	2107.612587
1568.606791	2105.450350
1570.513825	2049.439860
1572.418626	1942.715385
1574.324816	1795.070629
1576.228774	1622.669231
1578.132312	1444.224476
1580.035428	1265.413986
1581.936316	1100.211888
1583.838591	951.002797
1585.738639	820.981119
1587.640074	721.997902
1589.537476	642.416783
1591.434459	580.976224
1593.331024	533.268531
1595.228977	497.030070
1597.121095	471.531469
1599.016406	451.695105
1600.911300	435.567133
1602.803972	421.320280
1604.696228	406.636364
1606.586263	388.993706
1608.475884	371.737762
1610.365088	358.261538
1612.253878	341.265734
1614.140450	327.955245
1616.028410	309.049650
1617.912353	295.237063
1619.797684	278.377622
1621.682600	264.959441
1623.565303	252.993007
1625.449393	243.500699
1627.329472	231.000699
1629.210937	222.032867
1631.090192	214.048951
1632.970833	208.788811
1634.845670	200.667832
1636.725489	197.675524
1638.601302	191.370629
1640.476705	188.933566
1642.353495	185.250350
1644.224487	185.242657
1646.098661	185.717483
1647.968837	183.760140
1649.842193	181.961538
1651.713346	183.385315
1653.582297	182.134965
1655.452634	179.415385
1657.318977	174.876224
1659.186706	174.524476
1661.052237	173.907692
1662.919152	173.002797
1664.782079	170.911189
1666.646391	170.409091
1668.508507	171.579720
1670.370219	169.927273
1672.233315	168.124476
1674.094217	166.335664
1675.952925	167.380420
1677.811230	164.369930
1679.670920	161.987413
1681.524843	161.346154
1683.381938	162.174825
1685.238631	159.678322
1687.091348	157.455245
1688.947235	154.812587
1690.799149	156.156643
1692.650662	154.760839
1694.501774	152.917483
1696.352486	154.276923
1698.202797	154.727273
1700.050924	150.878322
1701.900434	151.819580
1703.744196	153.188811
1705.592907	155.776923
1707.435873	155.541259
1709.282004	157.014685
1711.124174	156.862937
1712.969508	157.874825
1714.809102	159.044755
1716.650080	159.260140
1718.492441	158.409790
1720.330846	155.380420
1722.170634	155.665734
1724.008247	157.216084
1725.845464	156.206294
1727.680508	155.299301
1729.516935	155.851049
1731.351190	159.100699
1733.185050	159.851748
1735.018517	155.544056
1736.848037	155.234266
1738.680716	151.565035
1740.509451	150.341958
1742.341344	148.248951
1744.169294	149.059441
1745.996852	148.543357
1747.824018	147.132168
1749.650793	145.926573
1751.477177	146.774825
1753.299623	147.369930
1755.125225	146.074126
1756.946892	143.598601
1758.769941	145.900699
1760.590828	146.325874
1762.411327	147.986713
1764.233207	146.272028
1766.049387	146.089510
1767.868719	144.781818
1769.684124	143.220280
1771.502679	139.112587
1773.317309	137.115385
1775.131553	136.329371
1776.945409	135.106294
1778.758879	135.278322
1780.570196	138.064336
1782.382894	138.688811
1784.195205	140.858741
1786.003599	143.349650
1787.813373	144.169231
1789.619233	144.696503
1791.428238	146.109091
1793.233330	145.600000
1795.039803	144.956643
1796.845892	144.401399
1798.648071	141.002797
1800.453393	139.412587
1802.254807	139.878322
1804.057601	137.340559
1805.856489	139.126573
1807.656758	139.206294
1809.456645	138.985315
1811.254391	140.926573
1813.051755	142.681119
1814.848740	144.247552
1816.645344	145.531469
1818.439809	147.497203
1820.235653	148.440559
1822.025843	149.614685
1823.820928	148.003497
1825.610362	145.800000
1827.402932	144.886713
1829.193367	142.479720
1830.981668	142.091608
1832.773104	140.924476
1834.558894	138.129371
1836.346064	139.437762
1838.131102	138.873427
1839.919274	138.892308
1841.703560	139.513986
1843.485717	140.743357
1845.269252	139.707692
1847.050659	142.127972
1848.833445	141.006294
1850.612350	142.219580
1852.392635	144.467133
1854.170793	144.639860
1855.950330	142.869930
1857.727742	142.996503
1859.503030	139.383916
1861.279697	138.242657
1863.054240	139.360140
1864.830162	137.855944
1866.600463	137.827972
1868.373892	140.101399
1870.145201	142.046154
1871.916140	143.123077
1873.688455	146.955245
1875.455157	146.337762
1877.224985	144.745455
1878.990949	145.484615
1880.760037	143.811189
1882.525263	145.309091
1884.290120	144.912587
1886.056355	143.012587
1887.818731	144.716783
1889.580740	147.808392
1891.342381	149.714685
1893.103656	148.289510
1894.864563	147.597902
1896.625104	144.305594
1898.383535	144.045455
1900.141601	144.652448
1901.897558	145.125175
1903.654892	146.000699
1905.411861	144.952448
1907.166724	143.641958
1908.919481	141.327972
1910.671875	139.714685
1912.425644	137.872727
1914.177310	137.968531
1915.926874	134.168531
1917.677813	134.223077
1919.428390	136.232168
1921.175127	138.925874
1922.923241	142.705594
1924.669255	142.661538
1926.416645	145.320280
1928.161936	143.069231
1929.905130	140.817483
1931.649699	138.575524
1933.392173	136.591608
1935.134286	138.136364
1936.876039	136.927273
1938.617433	139.039161
1940.356732	142.276224
1942.095673	142.818182
1943.834256	142.383217
1945.570746	142.902797
1947.306879	143.950350
1949.044386	142.984615
1950.778071	142.069231
1952.513131	141.434965
1954.246103	141.717483
1955.978718	142.336364
1957.710976	143.120280
1959.442878	144.041259
1961.172694	142.880420
1962.900425	139.809790
1964.629531	138.350350
1966.358282	136.942657
1968.084949	138.314685
1969.811262	140.072028
1971.538948	139.254545
1973.261098	140.819580
1974.986349	142.200000
1976.707794	142.239161
1978.432338	144.913986
1980.154803	145.337063
1981.873464	144.350350
1983.595224	143.344056
1985.313182	144.490909
1987.032513	143.118881
1988.748045	148.196503
1990.468397	148.414685
1992.184951	145.016084
1993.897708	147.911888
1995.613562	148.796503
1997.327342	150.216084
1999.040773	148.241259
2000.752133	145.990210
2002.464866	143.417483
2004.173807	141.774126
2005.885842	138.487413
2007.592367	136.179021
2009.301985	139.290210
2011.009535	137.201399
2012.716738	137.439161
2014.421875	142.931469
2016.126665	145.781818
2017.832827	147.331469
2019.535207	146.023776
2021.238959	146.607692
2022.940647	145.498601
2024.641991	143.902797
2026.342989	141.044755
2028.041927	142.385315
2029.742235	145.711888
2031.438769	142.733566
2033.136674	144.540559
2034.832520	144.595804
2036.531452	146.313287
2038.224898	146.653846
2039.919715	144.960140
2041.614190	144.095105
2043.304896	141.415385
2044.998686	137.832867
2046.688709	139.458042
2048.380103	140.270629
2050.069444	140.858042
2051.760155	137.428671
2053.447103	137.705594
2055.133712	137.132867
2056.821691	137.311189
2058.505910	135.351748
2060.191499	134.289510
2061.876749	131.750350
2063.559951	127.697902
2065.244522	128.212587
2066.923631	131.918881
2068.607525	133.818881
2070.285959	135.712587
2071.967469	136.890909
2073.645229	137.426573
2075.322651	137.413986
2077.001443	136.587413
2078.678193	134.979021
2080.352901	138.531469
2082.028978	137.855944
2083.703015	135.183217
2085.376716	137.100000
2087.050082	137.653846
2088.721410	136.980420
2090.392403	135.898601
2092.063062	130.902797
2093.733386	129.228671
2095.403377	126.461538
2097.071332	125.890210
2098.738954	126.302098
2100.404541	131.486713
2102.071498	134.958042
2103.736420	135.110490
2105.401011	136.023077
2107.063570	136.742657
2108.727497	136.128671
2110.389394	137.349650
2112.050959	135.330769
2113.712193	136.802098
2115.371399	134.085315
2117.030274	135.420280
2118.688820	133.860140
2120.347036	134.796503
2122.001528	136.002098
2123.659085	136.974825
2125.316313	137.923077
2126.969819	137.653846
2128.624693	137.732867
2130.275849	139.920280
2131.930066	137.662238
2133.580567	139.495804
2135.232434	137.767133
2136.878893	139.151748
2138.530107	136.915385
2140.177607	136.474825
2141.826474	137.589510
2143.473323	137.586713
2145.119845	136.819580
2146.766042	133.202797
2148.408531	132.844056
2150.054078	133.619580
2151.695918	132.857343
2153.340815	133.413287
2154.982007	132.898601
2156.622875	137.363636
2158.263419	138.551049
2159.901951	141.667832
2161.541849	142.515385
2163.178047	144.431469
2164.815612	146.769231
2166.452853	146.164336
2168.088085	146.441958
2169.722996	144.145455
2171.357585	142.259441
2172.991852	137.462238
2174.622426	133.941259
2176.256052	133.231469
2177.885986	131.365035
2179.517285	131.881818
2181.146579	129.895804
2182.775554	134.475524
2184.404210	135.918881
2186.032546	136.500000
2187.658879	136.232168
2189.284894	135.957343
2190.908908	138.203497
2192.534286	138.926573
2194.157665	137.495804
2195.782407	138.051049
2197.403469	137.715385
2199.024214	135.900699
2200.646324	135.867832
2202.266436	137.832867
2203.884551	135.830070
2205.502351	137.895804
2207.119836	137.822378
2208.737005	140.753846
2210.353859	144.448951
2211.970398	144.586713
2213.584943	142.185315
2215.197496	140.593007
2216.811413	136.667133
2218.423339	132.079021
2220.036628	130.757343
2221.647927	129.493007
2223.257236	127.804196
2224.867909	130.109091
2226.476593	133.769231
2228.084965	136.952448
2229.691349	141.065734
2231.299097	141.404895
2232.904858	139.548252
2234.510308	138.271329
2236.113773	134.902098
2237.718601	134.181119
2239.321445	135.158741
2240.922307	133.476224
2242.524530	132.202098
2244.124772	132.888112
2245.726376	136.032867
2247.324328	137.288112
2248.923642	140.574126
2250.520976	141.003497
2252.118001	138.720979
2253.716389	142.898601
2255.311128	141.786713
2256.903890	140.800000
2258.498015	141.781119
2260.093501	138.984615
2261.685343	139.393706
2263.276878	140.051049
2264.869774	140.707692
2266.457361	142.576224
2268.049645	140.717483
2269.636621	141.456643
2271.226626	138.988112
2272.811326	143.317483
2274.400719	139.913986
2275.984811	137.797203
2277.570264	140.927273
2279.153747	138.081119
2280.740257	139.339860
2282.323133	139.447552
2283.905705	140.701748
2285.487974	142.617483
2287.066614	139.575874
2288.648277	139.277622
2290.226312	139.047902
2291.807370	141.820979
2293.384801	139.912238
2294.960269	138.942657
2296.538759	137.312937
2298.113625	135.137762
2299.688190	136.755594
2301.262455	135.331469
2302.836419	137.019231
2304.410083	137.344056
2305.983446	134.904196
2307.553191	134.101399
2309.122637	135.131469
2310.695101	135.386014
2312.262291	132.780420
2313.832499	132.594406
2315.399092	130.864336
2316.967045	134.466434
2318.533042	136.021678
2320.098742	136.770629
2321.664145	141.869231
2323.227593	148.761538
2324.792401	154.944755
2326.353601	160.345455
2327.917815	160.888811
2329.476767	160.965734
2331.038734	157.077622
2332.598750	154.918881
2334.158470	152.188811
2335.716241	149.303497
2337.273717	144.913287
2338.830899	141.155944
2340.386134	138.965734
2341.941074	141.712587
2343.495721	144.226573
2345.050074	143.672727
2346.604133	143.427273
2348.157898	142.491608
2349.709720	140.475524
2351.259598	139.183217
2352.812484	138.348951
2354.360128	137.711189
2355.910779	137.780420
2357.457839	136.481818
2359.006258	133.982517
2360.554384	137.398601
2362.098922	139.598601
2363.644818	139.727972
2365.188776	141.929371
2366.734091	141.661538
2368.275821	141.052448
2369.818908	140.727273
2371.360060	140.492308
2372.900922	141.591608
2374.441495	143.206294
2375.981778	141.425175
2377.521773	138.716783
2379.058190	140.913287
2380.597608	139.152448
2382.133449	141.313287
2383.670646	142.860140
2385.204268	143.869930
2386.740891	144.218182
2388.275582	143.711888
2389.808344	144.195804
2391.340819	146.969930
2392.871367	150.082517
2394.404912	150.571329
2395.933245	151.809091
2397.462936	156.147552
2398.992341	158.937762
2400.521460	162.300000
2402.050295	163.022378
2403.573924	163.911888
2405.102190	165.085315
2406.625252	165.801399
2408.152948	168.670629
2409.673805	170.333566
2411.199295	169.870629
2412.721224	169.661538
2414.244509	171.990210
2415.765873	174.619580
2417.285317	176.969231
2418.806116	177.519580
2420.324996	178.474126
2421.843594	179.025874
2423.360275	181.899301
2424.878310	184.497902
2426.396064	182.672727
2427.910267	180.653147
2429.424189	177.179021
2430.937831	177.381818
2432.452828	178.586014
2433.964276	179.999301
2435.477079	181.670629
2436.987968	182.899301
2438.498579	183.477622
2440.007278	185.695804
2441.518963	187.762937
2443.027105	189.318881
2444.534969	186.081818
2446.042555	183.316084
2447.546600	179.600699
2449.053631	179.748252
2450.558753	176.496503
2452.063598	177.120280
2453.566535	174.746853
2455.069197	175.123077
2456.571582	176.234266
2458.072062	174.267832
2459.573895	173.067832
2461.073824	172.874825
2462.573477	170.261538
2464.072854	165.235664
2465.570329	166.829371
2467.065902	168.057343
2468.564455	166.893007
2470.059480	167.520979
2471.555858	167.169231
2473.048708	167.758741
2474.542912	168.602098
2476.036842	166.532867
2477.527248	167.660140
2479.020632	168.145455
2480.512118	167.957343
2482.001707	165.517483
2483.491024	169.036364
2484.978446	169.758042
2486.468843	167.229371
2487.955721	165.062238
2489.443951	164.751748
2490.928665	161.816783
2492.413108	160.599301
2493.898903	157.834266
2495.382805	156.992308
2496.868059	153.667832
2498.348178	151.144755
2499.831271	147.862238
2501.312473	149.689510
2502.793406	150.483916
2504.272450	150.179021
2505.751225	153.122378
2507.229732	154.678322
2508.707971	157.318182
2510.185941	157.767133
2511.660407	157.682517
2513.137841	158.368531
2514.611772	155.333566
2516.087053	152.969231
2517.562068	150.993007
2519.033581	153.412587
2520.506444	152.903497
2521.977425	154.730769
2523.449756	158.178322
2524.916974	161.065734
2526.387157	163.111189
2527.855460	162.841259
2529.323498	162.729371
2530.791271	161.495105
2532.258779	159.916783
2533.726022	157.470629
2535.189773	158.279720
2536.654874	158.765734
2538.118098	158.634965
2539.582672	160.681119
2541.043756	161.475524
2542.506190	161.219580
2543.968361	161.217483
2545.427046	163.781818
2546.890303	164.304196
2548.348463	166.402797
2549.807972	170.423776
2551.262388	171.576923
2552.721373	171.746154
2554.178487	173.230070
2555.633730	174.400000
2557.088712	173.496503
2558.541824	171.200699
2559.996285	172.709091
2561.448877	175.004196
2562.901209	177.252448
2564.351673	178.183916
2565.805093	179.676923
2567.253431	180.470629
2568.704725	181.672727
2570.154152	180.527273
2571.600107	183.109091
2573.049018	184.518881
2574.494457	186.693706
2575.941245	191.351049
2577.386169	197.018182
2578.830835	201.089510
2580.276850	203.769930
2581.719397	203.358741
2583.163292	200.563636
2584.603722	202.069930
2586.045499	203.153147
2587.485417	202.363636
2588.926682	201.595105
2590.364486	202.895804
2591.805239	203.727273
2593.240929	209.097203
2594.679569	210.574825
2596.116352	214.777622
2597.551278	214.413986
2598.989153	214.216084
2600.421969	215.258042
2601.856133	218.578322
2603.288443	221.460839
2604.722099	225.695804
2606.153902	226.406993
2607.585452	232.614685
2609.016748	236.731469
2610.446192	245.403497
2611.875384	249.420280
2613.302726	253.542657
2614.731414	255.303497
2616.159849	259.626573
2617.584837	263.429371
2619.011172	266.175524
2620.435658	272.915385
2621.861490	279.558741
2623.283878	285.762238
2624.707612	292.865035
2626.129499	299.988112
2627.551137	311.448252
2628.970929	320.195105
2630.392067	327.742657
2631.812955	333.451049
2633.230405	340.202797
2634.650794	348.269930
2636.067746	355.610490
2637.484449	367.607692
2638.900905	376.273427
2640.317111	386.860839
2641.733070	392.181818
2643.147188	403.855944
2644.561059	415.588112
2645.973090	425.589510
2647.386466	433.227972
2648.796412	441.758042
2650.209293	451.497902
2651.618746	461.624476
2653.027954	470.420979
2654.435324	482.287413
2655.845630	494.585315
2657.254099	507.485315
2658.660733	516.186014
2660.067122	528.815385
2661.471677	539.892308
2662.877576	551.027972
2664.281642	559.376224
2665.685463	571.358042
2667.089041	580.463636
2668.490786	586.265035
2669.893875	592.748252
2671.293546	603.588811
2672.694561	613.780420
2674.092160	618.248252
2675.492689	620.455245
2676.889803	624.348951
2678.288260	629.238462
2679.684889	632.515385
2681.081276	634.583217
2682.477422	634.430070
2683.871741	633.765734
2685.267403	629.718182
2686.659655	628.452448
2688.053250	632.619580
2689.445022	627.464336
2690.838135	620.750350
2692.229425	614.523776
2693.618892	611.720280
2695.008119	606.666434
2696.397107	600.276923
2697.787437	590.899301
2699.172782	580.893007
2700.561051	576.832867
2701.947500	567.017483
2703.333710	559.595804
2704.719682	550.003497
2706.102254	534.328671
2707.486169	522.720979
2708.869846	510.588112
2710.253285	500.716084
2711.633328	489.851748
2713.014713	477.883916
2714.394282	467.459441
2715.775193	457.997902
2717.154288	448.804895
2718.531570	432.473427
2719.910193	417.703497
2721.287003	400.148252
2722.663577	385.847552
2724.039915	370.998601
2725.414441	354.916783
2726.790308	341.983916
2728.162788	330.037063
2729.538184	319.460140
2730.908620	307.057343
2732.280397	296.765734
2733.651939	287.461538
2735.021673	278.998601
2736.392748	270.341259
2737.762014	261.751748
2739.131048	256.890210
2740.498274	248.700699
2741.865268	241.587413
2743.232029	235.764336
2744.598557	231.924476
2745.963280	229.238462
2747.327772	221.553846
2748.692031	217.692308
2750.056058	211.559441
2751.419854	208.487413
2752.780276	202.573427
2754.143609	197.952448
2755.501999	193.997203
2756.863299	189.486014
2758.221228	183.367832
2759.582067	181.337762
2760.941105	177.584615
2762.296775	175.794406
2763.655353	172.069231
2765.010564	171.083916
2766.365547	171.601399
2767.718732	174.339161
2769.074824	175.710490
2770.427552	179.586014
2771.780051	179.535664
2773.132322	178.359441
2774.485932	174.225874
2775.836180	173.046853
2777.184635	164.686713
2778.535994	162.923077
2779.883994	161.086713
2781.233332	161.912587
2782.580879	158.950350
2783.928198	158.027972
2785.275291	160.611189
2786.620593	162.204895
2787.965669	163.041259
2789.310518	162.066434
2790.655142	161.229371
2791.996414	159.173427
2793.339024	153.367133
2794.681408	153.062937
2796.023568	152.406294
2797.362378	153.226573
2798.704087	151.866434
2800.042449	153.323077
2801.382148	156.869930
2802.720061	156.658741
2804.056190	157.632168
2805.392095	154.869231
2806.729338	155.886014
2808.064797	155.020280
2809.400033	151.027972
2810.733486	150.316783
2812.068277	151.467133
2813.399726	151.598601
2814.734071	151.906294
2816.063518	152.008392
2817.394302	154.813986
2818.724864	152.390909
2820.053647	151.598601
2821.383766	148.368531
2822.712107	149.127972
2824.040227	147.960839
2825.366569	144.927273
2826.694248	144.372727
2828.018593	142.520280
2829.344275	140.540559
2830.668181	140.809091
2831.991868	143.091608
2833.316890	142.730769
2834.638582	140.992308
2835.960056	139.672727
2837.281311	135.418881
2838.602347	136.159441
2839.921611	135.973427
2841.242210	134.706294
2842.561037	134.967832
2843.879646	135.148252
2845.196484	138.043357
2846.513105	139.340559
2847.829509	141.486014
2849.144144	137.364336
2850.460113	135.574126
2851.772762	131.274825
2853.086747	130.072727
2854.400514	129.153846
2855.714066	126.044755
2857.025850	125.589510
2858.335868	124.474825
2859.647221	127.802098
2860.955259	133.190909
2862.264632	136.093007
2863.573789	139.325874
2864.882731	140.022378
2866.189909	138.823776
2867.495325	138.296503
2868.802075	139.197203
2870.107062	136.262937
2871.411836	131.650350
2872.714848	129.785315
2874.020742	127.716084
2875.321780	133.430769
2876.624153	135.277622
2877.924766	136.558042
2879.226713	139.744056
2880.528447	141.045455
2881.826876	140.574126
2883.126640	140.839161
2884.424645	141.084615
2885.722439	139.085315
2887.018477	137.743357
2888.315848	138.858741
2889.611463	140.793007
2890.906867	141.779720
2892.202061	138.541958
2893.493956	136.542657
2894.788728	133.916783
2896.080203	132.364336
2897.373011	130.240559
2898.665609	125.716783
2899.954913	124.651748
2901.245549	125.485315
2902.534434	126.195804
2903.824652	127.140559
2905.111577	129.388811
2906.399836	130.080420
2907.686344	132.200000
2908.972645	132.402098
2910.258737	135.897203
2911.543081	137.655245
2912.830296	138.055944
2914.112685	135.573427
2915.396406	138.225874
2916.678381	140.586014
2917.960148	137.476923
2919.240171	136.390909
2920.523063	136.459441
2921.804210	134.792308
2923.082075	135.289510
2924.362809	132.851049
2925.640262	132.844755
2926.917509	130.063636
2928.193015	128.153147
2929.471388	124.926573
2930.744946	124.722378
2932.021372	125.379021
2933.296057	124.613986
2934.569002	124.699301
2935.843277	126.361538
2937.115813	127.338462
2938.388145	129.274126
2939.657203	128.422378
2940.929127	129.769930
2942.199313	131.076923
2943.469296	129.455944
2944.739075	128.322378
2946.007117	128.239161
2947.273424	128.155944
2948.539528	126.442657
2949.806962	124.040559
2951.072662	124.381119
2952.338159	122.286014
2953.603454	120.941958
2954.865484	118.830769
2956.128845	120.907692
2957.392003	122.299301
2958.653430	123.664336
2959.916186	124.802797
2961.177211	124.386713
2962.436504	125.875524
2963.695598	127.056643
2964.954491	129.700000
2966.213184	130.811189
2967.471677	128.387413
2968.728441	128.964336
2969.985005	126.986713
2971.239842	128.502098
2972.496007	126.144755
2973.748918	124.134266
2975.003158	119.735664
2976.257199	118.355245
2977.509514	119.052448
2978.761631	118.474126
2980.012022	119.382517
2981.265269	117.628671
2982.513739	116.544056
2983.765064	119.190909
2985.013139	118.581818
2986.261018	117.643357
2987.508699	117.523776
2988.756184	117.055245
2990.001946	115.392308
2991.247513	115.529371
2992.494407	112.279021
2993.738057	112.464336
2994.983035	114.328671
2996.224769	112.560839
2997.469355	111.450350
2998.712222	113.342657
2999.951848	112.940559
3001.194324	113.992308
3002.433561	116.516783
3003.674125	115.060839
3004.912972	115.018182
3006.151625	116.714685
3007.388562	116.731469
3008.626826	117.689510
3009.863376	119.094406
3011.099731	118.009790
3012.335893	117.158042
3013.570342	119.776224
3014.804597	121.599301
3016.038659	124.360140
3017.271009	122.090909
3018.501647	122.619580
3019.735131	123.881818
3020.966903	123.065035
3022.196965	122.174825
3023.426835	120.486014
3024.654995	119.828671
3025.884481	121.225175
3027.112259	120.060140
3028.339845	119.858042
3029.568757	119.034965
3030.792927	119.413986
3032.019940	117.716084
3033.243729	115.809091
3034.468845	111.381818
3035.692254	107.601399
3036.915473	108.847552
3038.136987	109.223776
3039.361343	109.727972
3040.580962	111.179720
3041.801908	111.444755
3043.022665	112.886014
3044.241718	114.982517
3045.462097	115.904196
3046.679259	112.934965
3047.897746	107.308392
3049.114531	103.522378
3050.331129	101.611189
3051.547538	102.702797
3052.760735	104.083916
3053.976769	104.018182
3055.189591	107.471329
3056.405250	109.216084
3057.616186	110.316084
3058.828447	111.071329
3060.040522	111.743357
3061.252410	109.723776
3062.462600	108.268531
3063.672604	106.452797
3064.882423	105.317483
3066.090545	106.989860
3067.298481	108.736364
3068.504723	108.680070
3069.712288	112.236364
3070.918160	111.896853
3072.123846	112.211888
3073.329347	115.170979
3074.533155	115.935664
3075.738287	116.976573
3076.941727	114.718182
3078.143474	110.459091
3079.345038	110.825874
3080.546417	110.431469
3081.747614	107.841259
3082.947119	105.307692
3084.146442	106.285315
3085.347088	104.320979
3086.546044	104.909091
3087.741806	107.113287
3088.940397	104.120280
3090.135794	106.674126
3091.332514	103.183916
3092.526042	102.444056
3093.722398	103.834266
3094.917068	104.545455
3096.108547	105.172028
3097.304357	104.090210
3098.495474	105.711888
3099.687913	105.690909
3100.877165	106.939161
3102.069243	108.161538
3103.259636	107.934266
3104.446844	110.239161
3105.635375	110.693706
3106.825228	110.788112
3108.011896	110.970629
3109.198385	113.282517
3110.384694	111.936364
3111.572325	108.417483
3112.756775	109.753846
3113.939544	107.620280
3115.125136	106.869231
3116.309049	106.077622
3117.491283	106.940559
3118.673338	109.205594
3119.855216	109.077622
3121.036915	106.986014
3122.216936	109.246853
3123.395281	111.662238
3124.576447	109.468531
3125.754437	108.382517
3126.932250	105.334266
3128.109886	101.913287
3129.285847	101.255944
3130.461631	96.085315
3131.638737	98.108392
3132.814168	98.920280
3133.987926	100.433566
3135.160012	106.130769
3136.333418	113.188811
3137.506649	117.553846
3138.678207	118.152448
3139.851086	117.430070
3141.020799	114.469930
3142.191831	113.283916
3143.361194	112.579021
3144.528887	109.090909
3145.699395	106.671329
3146.865244	104.588811
3148.035403	104.424476
3149.200904	104.389510
3150.366232	100.779021
3151.531386	102.527972
3152.696366	103.154545
3153.862667	102.358741
3155.024314	105.031469
3156.187282	105.119580
3157.350076	109.416084
3158.512698	109.378322
3159.673655	109.339860
3160.834439	109.851049
3161.995051	106.132867
3163.154000	104.511189
3164.312776	103.706993
3165.471381	107.060140
3166.629814	106.085315
3167.788075	105.074825
3168.944674	103.767133
3170.099612	99.165734
3171.255869	100.159441
3172.410466	97.406294
3173.564891	97.248252
3174.717657	94.151049
3175.870253	92.777622
3177.022678	96.700000
3178.174934	99.658741
3179.327019	100.800000
3180.475959	105.176224
3181.627705	106.585315
3182.777793	108.321678
3183.926225	108.597902
3185.074488	109.407692
3186.222581	109.578322
3187.370506	110.659441
3188.516776	110.391608
3189.662877	110.359441
3190.807323	111.200699
3191.951602	110.866434
3193.095713	109.411888
3194.241142	110.641259
3195.383431	107.387413
3196.525554	106.102797
3197.667509	104.810490
3198.809298	107.156643
3199.950919	109.852448
3201.089404	112.432867
3202.229207	115.081818
3203.370328	114.756643
3204.508314	117.602098
3205.644651	120.459441
3206.780822	119.567832
3207.918311	116.668531
3209.054150	114.535664
3210.191307	112.514685
3211.323851	112.598601
3212.460677	114.813986
3213.592891	112.612587
3214.726422	113.389510
3215.859789	115.911189
3216.990028	116.153147
3218.123065	119.310490
3219.252976	123.000000
3220.384203	121.854545
3221.512306	120.888112
3222.643205	119.456643
3223.772460	115.829371
3224.900072	112.406294
3226.024562	110.008392
3227.153326	106.369231
3228.278970	104.571329
3229.404450	104.079021
3230.528289	104.306294
3231.654922	104.906993
3232.776958	107.681818
3233.900310	110.637762
3235.023500	112.878322
3236.146528	111.704196
3237.267916	110.632168
3238.389143	109.132168
3239.508731	107.277622
3240.628158	105.927273
3241.745947	102.336364
3242.866529	99.339860
3243.983996	97.269231
3245.101303	93.492308
3246.218450	93.937063
3247.333961	97.900699
3248.450787	96.709091
3249.564502	95.939860
3250.681007	95.800699
3251.795878	93.993706
3252.907640	92.830769
3254.019243	91.732867
3255.132160	91.770629
3256.244919	92.681818
3257.354571	93.374825
3258.465537	91.493007
3259.576345	92.207692
3260.685522	91.403497
3261.793067	90.620979
3262.901926	90.398601
3264.010628	91.062937
3265.116227	89.858042
3266.223140	90.632168
3267.328424	89.233566
3268.435023	90.758741
3269.538521	91.551049
3270.643333	93.647552
3271.747988	91.106294
3272.849544	91.734266
3273.950945	88.179720
3275.053659	89.343357
3276.156216	89.567832
3277.255677	90.030769
3278.357922	88.636364
3279.457071	87.709790
3280.554596	84.939860
3281.651965	84.517483
3282.752117	82.334266
3283.849175	83.430769
3284.946078	84.523077
3286.042826	86.134965
3287.135016	86.425175
3288.231454	91.144755
3289.326270	91.741259
3290.420932	93.765035
3291.513972	95.004895
3292.606858	95.527273
3293.698123	94.108392
3294.790701	91.476923
3295.881658	87.921678
3296.970996	88.993007
3298.060181	90.447552
3299.150679	89.155944
3300.238092	86.783916
3301.325353	86.684615
3302.413926	85.534266
3303.502346	88.327972
3304.586219	89.617483
3305.674334	88.450350
3306.759368	85.500699
3307.842785	85.427972
3308.927515	88.655245
3310.010630	93.080420
3311.095056	96.526573
3312.176404	97.141958
3313.259064	93.801399
3314.340110	92.264336
3315.421005	91.600699
3316.500286	91.440559
3317.579418	90.107692
3318.659860	86.035664
3319.737229	84.865035
3320.815908	85.298601
3321.892977	87.311189
3322.969895	89.583916
3324.045202	90.716084
3325.120360	89.251049
3326.196829	88.025175
3327.270228	87.504895
3328.343478	87.775524
3329.418038	90.222378
3330.490990	90.779021
3331.562333	90.888811
3332.634988	93.913287
3333.704575	91.768531
3334.775473	88.794406
3335.844764	87.079720
3336.915366	87.338462
3337.984361	85.690210
3339.051750	85.816084
3340.117534	83.202797
3341.187544	82.901399
3342.254491	86.412587
3343.318376	86.955245
3344.385029	88.448252
3345.450077	89.877622
3346.513522	88.605594
3347.576821	88.580420
3348.639973	89.246154
3349.702979	90.220979
3350.765839	88.096503
3351.827097	85.453846
3352.885298	83.925874
3353.947720	86.967133
3355.007085	88.255944
3356.066305	86.603497
3357.126835	85.062238
3358.182855	82.611189
3359.241640	83.367832
3360.295917	87.367832
3361.352957	88.974126
3362.408400	85.820979
3363.465151	85.921678
3364.520304	86.109790
3365.573861	87.520979
3366.625820	88.042657
3367.680541	84.339860
3368.732213	81.439161
3369.783742	80.995804
3370.836579	79.516084
3371.886369	81.295804
3372.937468	87.308392
3373.985521	88.137063
3375.036334	85.453147
3376.084101	87.200000
3377.131726	87.665734
3378.179208	83.880420
3379.225098	80.816783
3380.272296	77.257343
3381.316452	75.355944
3382.363366	75.902797
3383.408688	74.590210
3384.450969	75.101399
3385.493110	75.838462
3386.536558	78.679720
3387.579866	79.329371
3388.621583	81.757343
3389.663159	82.661538
3390.704595	82.811888
3391.744441	85.184615
3392.782700	84.595105
3393.822266	83.558741
3394.861691	82.803497
3395.899529	81.282517
3396.935780	79.232168
3397.971892	76.068531
3399.009311	76.189510
3400.043697	73.529371
3401.079390	74.106993
3402.114944	76.143357
3403.147467	79.790210
3404.182743	81.996503
3405.214988	82.346154
3406.247095	84.259441
3407.277618	84.906294
3408.309448	84.718182
3409.341140	82.590210
3410.369805	81.062238
3411.398331	78.630769
3412.428165	76.316783
3413.457860	74.292308
3414.484530	76.015385
3415.512507	76.097203
3416.537459	76.479021
3417.565161	78.059441
3418.589840	80.861538
3419.615825	84.719580
3420.640230	86.514685
3421.664499	87.764336
3422.687189	88.681119
3423.709743	87.879021
3424.733603	85.337762
3425.754443	83.116783
3426.775148	81.692008
3427.797158	80.970729
3428.816150	81.259940
3429.835007	82.866633
3430.855169	86.097802
3431.872315	91.260440
