-118.187858	8.544231
-115.518258	2.450549
-112.851593	-1.378771
-110.185680	-3.365934
-107.522699	-3.933142
-104.858289	-3.502597
-102.196809	-2.496503
-99.533899	-2.535664
-96.876097	-2.888811
-94.216864	-2.094406
-91.558380	-1.811189
-88.902821	-2.217483
-86.245833	-3.779021
-83.593942	-4.228671
-80.940622	-3.809790
-78.290222	-2.272028
-75.638392	-1.982517
-72.991653	0.467133
-70.343484	3.258042
-67.696059	3.955245
-65.051547	4.845455
-62.405607	5.058741
-59.764748	3.804895
-57.122460	3.369231
-54.483080	0.606993
-51.842272	-0.380420
-49.202204	-2.459441
-46.567208	-2.078322
-43.930783	-2.021678
-41.297262	0.605594
-38.662312	1.027972
-36.032427	0.979720
-33.398950	2.551748
-30.770535	3.356643
-28.142853	2.146853
-25.513744	1.209091
-22.889691	-15.286713
-20.262049	-64.704196
-17.639460	-203.365734
-15.017602	-282.518881
-12.396476	163.997902
-9.776079	894.455245
-7.158570	1527.041958
-4.539633	1973.134965
-1.923582	2228.330070
0.691741	2290.101399
3.306337	2161.013287
5.918050	1844.576923
8.531192	1345.264336
11.139300	704.889510
13.750990	31.647552
16.357649	-360.066434
18.965736	-224.295804
21.573099	-37.853147
24.175437	1.993007
26.781353	1.883916
29.382247	1.832168
31.984570	1.204196
34.581874	2.975524
37.182754	5.593706
39.778620	7.778322
42.375913	9.374825
44.972487	9.432867
47.564052	6.916084
50.157045	4.642657
52.747177	4.939860
55.338737	2.601399
57.927437	2.283217
60.517564	2.712587
63.102693	2.618881
65.689249	2.574825
68.275090	3.462238
70.858078	2.475524
73.442493	0.231469
76.019778	-2.089510
78.600630	-3.310490
81.178633	-4.313287
83.755926	-4.294406
86.334645	-4.965734
88.908383	-7.335664
91.483547	-7.713287
94.055868	-5.726573
96.627481	-4.848951
99.196255	-2.546154
101.766455	-3.164336
104.333816	-2.687413
106.902604	-2.167832
109.468554	-0.655245
112.031670	-0.842657
114.598342	-1.170629
117.155793	-3.188811
119.718929	-5.120979
122.277106	-2.559441
124.838836	2.254545
127.395611	9.455944
129.953811	17.597902
132.507059	26.012587
135.059608	38.581818
137.615708	49.104895
140.166861	59.010490
142.717315	66.517483
145.267073	73.623776
147.814011	80.036364
150.360253	85.991608
152.907922	89.880420
155.454894	93.438462
157.996930	96.739161
160.538273	97.884615
163.078924	99.054545
165.620999	99.303497
168.160264	96.125175
170.696719	92.977622
173.232484	91.648951
175.769674	91.008392
178.306172	91.890210
180.839865	92.369231
183.370755	91.289510
185.900956	92.532168
188.432582	94.155944
190.961407	95.065734
193.487433	96.573427
196.012774	96.676224
198.539539	95.361538
201.063508	95.278322
203.586791	95.328671
206.109390	95.737063
208.629196	96.044755
211.148319	93.606294
213.666759	92.075524
216.186623	93.279720
218.699486	93.613986
221.215880	94.004895
223.731592	94.656643
226.242415	94.118881
228.754662	95.564336
231.264126	96.676224
233.772912	97.697902
236.281020	99.634965
238.790551	99.309790
241.295203	96.581818
243.799178	95.139860
246.304577	93.924476
248.805101	92.716084
251.309148	94.602797
253.806225	93.928671
256.306824	95.690909
258.804652	98.149650
261.301807	100.109790
263.798289	101.273427
266.289909	101.708392
268.785047	103.030070
271.277420	101.279720
273.769122	100.127273
276.258061	100.305594
278.748423	101.069930
281.236024	102.925874
283.720865	102.438462
286.209220	102.721678
288.690636	100.832867
291.175566	100.041259
293.655651	97.309790
296.139248	97.283916
298.618002	98.834266
301.098180	99.209091
303.575605	98.667832
306.052367	101.909091
308.528466	104.883217
311.001816	110.872727
313.474504	117.231469
315.946531	122.832867
318.417897	127.749650
320.886519	129.186713
323.354481	127.589510
325.823866	126.392308
328.288428	123.862937
330.756493	119.613986
333.219739	114.797902
335.682328	115.044755
338.144259	112.334965
340.605534	111.276923
343.064075	110.539860
345.524038	112.278322
347.981269	111.111888
350.437844	107.968531
352.893766	106.856643
355.346959	105.692308
357.801573	104.551049
360.251386	104.095804
362.704696	105.178322
365.153206	108.624476
367.601066	105.146853
370.050347	104.002797
372.494835	104.937762
374.940745	106.602797
377.386006	108.371329
379.828548	109.418881
382.270442	108.601399
384.711688	105.604895
387.150219	104.189510
389.590172	103.720280
392.027411	103.446154
394.461938	104.771329
396.899953	104.639860
399.333191	106.614685
401.767851	106.855245
404.197737	108.603497
406.631109	110.963636
409.059711	106.374825
411.487672	104.826573
413.917053	103.815385
416.341669	103.868531
418.767707	101.821678
421.193104	101.074126
423.617861	103.470629
426.037860	105.326573
428.459280	105.704895
430.878003	104.811189
433.298147	105.597203
435.715596	105.109790
438.134465	104.495105
440.550641	106.916783
442.962070	106.751049
445.376975	106.062937
447.789190	104.212587
450.200771	106.696503
452.611718	107.211888
455.019979	106.681818
457.427607	105.654545
459.834604	104.300699
462.240968	102.041259
464.644650	100.959441
467.047702	99.342657
469.450124	98.108392
471.851917	98.122378
474.251031	100.962937
476.651565	102.543357
479.051470	104.583916
481.446652	105.690909
483.845301	106.516084
486.239230	107.470629
488.632533	108.005594
491.025210	106.103497
493.417262	104.577622
495.810733	100.344755
498.199491	97.915385
500.585583	95.648252
502.973095	93.126573
505.359983	86.818881
507.744208	83.193007
510.129852	78.713287
512.512833	74.629371
514.893154	71.082517
517.274894	66.674825
519.653975	64.742657
522.034475	63.093007
524.412317	61.965734
526.787504	62.093706
529.162073	62.296503
531.538061	62.144755
533.911395	62.407692
536.286148	64.254545
538.656214	61.619580
541.025665	60.723776
543.396535	58.060140
545.762723	57.503497
548.130330	58.065035
550.495291	59.307692
552.859639	59.898601
555.223375	58.680420
557.588528	58.893706
559.949008	58.244755
562.310907	58.192308
564.670166	57.180420
567.026786	55.285315
569.386851	55.493706
571.740226	56.296503
574.097045	57.213986
576.451228	56.625175
578.804804	55.866434
581.157771	54.589510
583.508107	53.515385
585.859859	53.669231
588.204935	52.627273
590.555475	52.260839
592.899342	52.120979
595.248669	51.247552
597.593349	51.150350
599.935404	51.374825
602.278875	50.476224
604.619724	49.624476
606.959971	49.109790
609.297597	51.341259
611.638658	54.067133
613.975082	54.815385
616.312922	56.087413
618.648144	55.904895
620.980751	55.542657
623.314775	52.591608
625.646184	50.708392
627.976995	52.027972
630.307208	53.162238
632.636823	51.788112
634.961816	52.826573
637.292250	54.806993
639.618062	55.968531
641.941268	54.781818
644.265889	54.002098
646.587906	52.189510
648.909328	51.783916
651.228147	49.943357
653.548382	48.430769
655.868024	48.332867
658.185065	47.443357
660.501515	45.431469
662.815366	46.027972
665.130632	45.646853
667.443302	44.061538
669.757387	43.386014
672.066872	43.821678
674.377773	45.204895
676.686081	47.191608
678.993801	48.220979
681.302936	47.771329
683.607478	48.495105
685.911434	49.209091
688.214803	50.938462
690.519587	49.251049
692.819785	48.657343
695.121398	47.862937
697.422425	47.748252
699.718870	46.825175
702.016731	46.338462
704.314008	46.097902
706.610702	46.371329
708.902820	43.959441
711.198349	44.348951
713.489305	43.760140
715.781675	45.593706
718.071469	43.696503
720.360684	45.260140
722.649318	45.736364
724.935381	46.119580
727.222857	46.083217
729.507763	46.161538
731.792090	45.613287
734.073849	44.180420
736.357023	41.325874
738.639618	41.562937
740.917659	40.885315
743.197113	40.346154
745.475992	40.513986
747.754295	41.241259
750.028049	42.431469
752.303217	43.742657
754.577811	44.722378
756.849846	45.720979
759.123293	46.824476
761.394183	47.656643
763.662517	46.767133
765.932264	48.279021
768.199457	48.198601
770.466079	47.649650
772.732132	48.465035
774.995632	47.228671
777.260546	48.973427
779.524890	49.429371
781.784705	50.676224
784.045933	51.954545
786.306593	52.202797
788.564706	51.920280
790.820275	50.621678
793.079235	50.656643
795.331696	50.347552
797.589524	49.932168
799.842832	48.906993
802.093601	48.459441
804.345782	51.137762
806.595425	51.349650
808.846479	52.001399
811.093022	50.917483
813.340978	48.067832
815.586398	46.383217
817.833230	45.100699
820.079501	43.604196
822.321268	42.983916
824.566417	42.530769
826.805094	40.939860
829.047154	40.555944
831.284715	41.811888
833.523687	41.308392
835.760133	41.810490
837.997991	40.725175
840.233323	39.832867
842.466131	40.140559
844.700351	41.829371
846.932049	41.030769
849.163192	43.523776
851.393780	43.620979
853.623814	43.858042
855.853293	45.017483
858.078291	46.162238
860.306664	45.965734
862.530558	45.106294
864.755862	43.400000
866.976691	40.933566
869.200892	38.305594
871.420620	36.860140
873.641759	34.525175
875.862347	35.348951
878.080425	35.107692
880.299914	36.950350
882.514936	39.407692
884.729410	40.539161
886.943337	41.151049
889.156716	42.157343
891.369549	43.481119
893.581834	41.798601
895.791618	40.611888
898.000856	41.102797
900.209548	40.153846
902.415742	40.201399
904.623345	40.425175
906.828451	41.028671
909.033013	41.292308
911.235079	40.132867
913.438555	39.924476
915.639537	39.701399
917.839978	41.360140
920.041827	39.968531
922.237284	40.878322
924.436101	40.937762
926.630480	42.408392
928.828215	42.300000
931.021515	41.672727
933.216224	42.973427
935.408447	42.534965
937.600132	41.681818
939.791279	40.133566
941.979943	39.912587
944.168070	42.503497
946.353717	41.848951
948.542716	43.260140
950.727292	43.690909
952.911333	45.385315
955.098724	43.676923
957.277812	42.834965
959.460249	43.969930
961.642153	43.083217
963.821583	45.226573
965.998540	46.764336
968.176905	49.776224
970.356676	51.748951
972.530099	53.607692
974.706868	54.300000
976.879231	53.928671
979.053000	53.817483
981.222366	54.069231
983.395077	52.753846
985.565321	52.725874
987.735037	54.052448
989.904224	57.578322
992.069014	59.459441
994.237145	61.379021
996.400882	60.603497
998.566025	59.709790
1000.728710	59.151748
1002.890868	58.604895
1005.050570	59.219580
1007.209748	60.150350
1009.370332	60.702797
1011.528461	61.624476
1013.686066	63.998601
1015.843148	64.664336
1017.999707	63.393706
1020.151886	62.852448
1022.305471	61.309790
1024.458535	59.710490
1026.609151	61.457343
1028.761172	61.490210
1030.908820	63.738462
1033.059800	65.447552
1035.206409	66.844755
1037.352500	67.099301
1039.498071	66.806294
1041.645048	68.068531
1043.785737	66.488112
1045.929754	68.441259
1048.071331	69.859441
1050.212392	71.320979
1052.354857	73.246853
1054.491043	74.155944
1056.630555	74.071329
1058.765711	73.958042
1060.904192	73.929371
1063.038320	72.735664
1065.171933	70.054545
1067.306952	70.990210
1069.437621	69.691608
1071.569695	70.324476
1073.699340	69.813287
1075.828473	69.045455
1077.957094	68.772028
1080.085204	66.988112
1082.210888	66.411888
1084.336062	65.438462
1086.462640	63.837063
1088.584881	62.294406
1090.708525	61.409790
1092.827836	61.188112
1094.952375	62.081818
1097.070669	62.784615
1099.190368	62.707692
1101.307648	65.069231
1103.424422	66.739161
1105.540689	66.580420
1107.654541	66.777622
1109.769796	65.793706
1111.880729	64.932867
1113.994973	64.478322
1116.104897	63.385315
1118.216225	61.637063
1120.327049	62.192308
1122.433556	58.860839
1124.543372	58.721678
1126.648874	59.943357
1128.755779	58.169231
1130.856469	56.220979
1132.962371	54.630769
1135.063964	54.515385
1137.166960	54.023077
1139.269455	53.746154
1141.365744	54.949650
1143.467239	54.063636
1145.564432	53.628671
1147.661126	53.428671
1149.757323	56.716783
1151.853021	57.146154
1153.948222	58.855245
1156.041026	59.270629
1158.135232	60.727273
1160.223247	61.858042
1162.316460	62.370629
1164.403485	60.213986
1166.493810	61.411888
1168.579846	58.090210
1170.669180	57.069231
1172.752333	56.975524
1174.836889	55.884615
1176.922845	55.550350
1179.004520	55.639860
1181.087597	55.334266
1183.168288	56.465035
1185.248487	57.011189
1187.328195	56.129371
1189.407412	56.544755
1191.484247	59.366434
1193.558701	59.499301
1195.636447	59.576224
1197.709922	61.320979
1199.784798	61.608392
1201.855407	62.302797
1203.927418	59.694406
1205.997052	59.726573
1208.068087	59.758741
1210.138634	59.740559
1212.204920	57.962238
1214.272607	59.377622
1216.337922	58.462238
1218.404637	57.902797
1220.467096	57.415385
1222.532840	57.593706
1224.594331	57.758042
1226.657221	57.002797
1228.717744	57.086713
1230.777784	57.499301
1232.837340	58.088811
1234.894531	58.123776
1236.951241	58.318881
1239.005588	59.232168
1241.063215	60.368531
1243.118480	60.279720
1245.169504	60.653147
1247.221928	61.562238
1249.273873	62.408392
1251.323458	61.755245
1253.372565	61.013986
1255.421194	58.937762
1257.469344	58.705594
1259.517016	57.507692
1261.560457	58.777622
1263.607173	58.288112
1265.651537	61.693706
1267.695423	62.279021
1269.736959	63.568531
1271.776145	65.147552
1273.818603	65.308392
1275.856839	65.494406
1277.896474	63.863636
1279.935634	65.198601
1281.970576	65.882517
1284.006916	65.290909
1286.040911	67.853147
1288.076305	67.653846
1290.107485	70.381818
1292.140064	71.404196
1294.172170	71.801399
1296.201936	73.073427
1298.233100	74.944056
1300.260056	77.443357
1302.288410	79.453846
1304.312560	83.711189
1306.339974	87.873427
1308.363187	89.674126
1310.387796	91.093706
1312.410072	90.257343
1314.433745	92.305594
1316.455085	93.211189
1318.475957	93.949650
1320.496363	95.077622
1322.512574	96.958042
1324.530184	99.798601
1326.545465	100.491608
1328.564005	102.363636
1330.578355	105.622378
1332.590380	104.139860
1334.605662	105.472727
1336.616759	104.806294
1338.629253	105.778322
1340.637564	105.349650
1342.649131	102.892308
1344.654658	101.516783
1346.663441	99.997203
1348.668046	98.416783
1350.675905	96.783916
1352.683302	95.895105
1354.684668	95.683217
1356.687431	92.854545
1358.689733	92.990909
1360.691576	90.599301
1362.692960	88.829371
1364.692029	85.286014
1366.690640	81.141259
1368.688793	78.167133
1370.686488	73.939860
1372.680019	74.246853
1374.674947	74.064336
1376.669418	72.534266
1378.663432	71.302098
1380.655139	70.047552
1382.646390	69.992308
1384.635336	70.706993
1386.625677	70.930769
1388.615563	69.532168
1390.603146	69.783217
1392.590275	69.620280
1394.575102	67.795804
1396.561323	67.876224
1398.545245	67.550350
1400.528714	67.011189
1402.511731	65.912587
1404.492450	66.067832
1406.474563	65.724476
1408.454379	65.386713
1410.433745	66.024476
1412.408971	65.969231
1414.387437	66.751748
1416.363609	67.500699
1418.339331	63.522378
1420.314604	62.586713
1422.287586	65.548951
1424.260120	64.683217
1426.232207	64.287413
1428.203845	65.342657
1430.171355	66.676224
1432.143940	66.463636
1434.108718	67.256643
1436.078569	67.986713
1438.044295	67.902797
1440.011415	65.745455
1441.976250	60.983217
1443.936967	62.855245
1445.902751	64.890909
1447.862580	62.828671
1449.823802	63.237762
1451.786417	64.534965
1453.744917	67.109091
1455.702975	66.048252
1457.660590	67.654545
1459.617764	68.563636
1461.572662	68.308392
1463.528952	66.483217
1465.482968	67.736364
1467.436544	69.625874
1469.387847	68.927273
1471.340542	68.243357
1473.290966	69.325874
1475.240951	70.620280
1477.190496	71.873427
1479.137773	70.056643
1481.082783	72.149650
1483.029184	72.138462
1484.975149	72.259441
1486.920675	71.581119
1488.863937	71.609790
1490.806762	69.162238
1492.747324	67.755944
1494.689277	68.755245
1496.628969	70.348951
1498.568225	72.409790
1500.507047	73.190909
1502.443608	73.606294
1504.381561	78.756643
1506.317256	81.682517
1508.252517	83.769930
1510.185521	83.520979
1512.118093	83.365734
1514.050233	81.882517
1515.981941	83.548951
1517.911395	84.345455
1519.842240	86.231469
1521.772654	90.057343
1523.698995	90.390909
1525.626726	93.055944
1527.552207	98.006993
1529.477259	101.546853
1531.401882	107.795804
1533.326076	111.909091
1535.248023	118.295105
1537.171359	125.872028
1539.092450	137.023077
1541.011296	146.979021
1542.931532	160.452448
1544.849524	179.975524
1546.767090	199.218182
1548.682414	226.496503
1550.599128	258.453147
1552.511787	297.027972
1554.427650	343.056643
1556.341273	389.883916
1558.252659	433.800000
1560.165433	469.281119
1562.074158	493.955944
1563.984273	502.360839
1565.893964	492.564336
1567.803231	469.900699
1569.710265	433.093706
1571.615066	388.632168
1573.521256	342.230769
1575.425214	297.597902
1577.328752	260.562238
1579.231868	228.216783
1581.132756	200.512587
1583.035031	179.943357
1584.935079	165.241958
1586.836515	152.448252
1588.733916	142.506294
1590.630899	135.204196
1592.527464	129.427273
1594.425417	125.076224
1596.317535	122.901399
1598.212846	119.220280
1600.107740	117.338462
1602.000412	113.598601
1603.892668	111.797902
1605.782704	108.790909
1607.672324	104.241259
1609.561529	101.200000
1611.450318	99.497902
1613.336891	95.493706
1615.224850	92.429371
1617.108793	88.457343
1618.994124	84.390210
1620.879040	78.277622
1622.761744	74.434965
1624.645833	70.773427
1626.525912	68.703497
1628.407377	63.210490
1630.286632	62.509790
1632.167273	63.165734
1634.042110	63.714685
1635.921929	63.261538
1637.797742	64.932168
1639.673145	64.632867
1641.549935	61.841259
1643.420927	62.013986
1645.295101	62.917483
1647.165277	61.520280
1649.038633	59.853846
1650.909786	54.160839
1652.778737	55.976923
1654.649074	53.358042
1656.515417	50.395804
1658.383146	50.929371
1660.248677	49.497902
1662.115592	47.156643
1663.978519	45.486713
1665.842831	49.277622
1667.704947	49.600699
1669.566659	46.644755
1671.429755	44.262238
1673.290657	41.502098
1675.149365	43.515385
1677.007670	43.047552
1678.867360	42.924476
1680.721283	44.822378
1682.578378	44.648252
1684.435071	45.394406
1686.287788	45.403497
1688.143676	44.945455
1689.995589	42.823077
1691.847102	40.017483
1693.698215	38.964336
1695.548926	40.004196
1697.399237	41.390210
1699.247364	43.316783
1701.096874	43.181818
1702.940636	43.304196
1704.789348	43.982517
1706.632313	42.408392
1708.478444	40.423077
1710.320614	38.358741
1712.165948	35.127273
1714.005542	33.925874
1715.846520	32.803497
1717.688881	32.787413
1719.527286	32.489510
1721.367074	33.890909
1723.204687	35.480420
1725.041904	37.265035
1726.876948	38.936364
1728.713375	41.681119
1730.547630	42.713986
1732.381490	44.021678
1734.214957	43.176923
1736.044477	42.825175
1737.877156	42.523776
1739.705891	41.817483
1741.537784	39.822378
1743.365734	39.169231
1745.193292	38.576224
1747.020458	38.656643
1748.847233	37.685315
1750.673617	37.056643
1752.496064	35.323077
1754.321665	34.910490
1756.143332	34.787413
1757.966381	33.999301
1759.787269	34.583217
1761.607767	34.444755
1763.429647	32.593706
1765.245827	33.194406
1767.065159	33.365734
1768.880564	35.190210
1770.699119	34.090909
1772.513749	34.052448
1774.327993	35.920979
1776.141849	37.075524
1777.955319	39.130070
1779.766636	38.613287
1781.579334	38.444755
1783.391645	38.520280
1785.200039	38.950350
1787.009814	39.325874
1788.815673	37.851748
1790.624679	35.986014
1792.429771	34.346154
1794.236243	35.125175
1796.042332	35.739161
1797.844511	36.030769
1799.649833	35.686713
1801.451247	35.906993
1803.254041	39.455944
1805.052929	41.316783
1806.853198	42.144755
1808.653085	42.223776
1810.450831	41.202797
1812.248196	40.872028
1814.045180	41.272028
1815.841784	40.602098
1817.636249	38.452448
1819.432093	38.494406
1821.222283	35.426573
1823.017369	34.578322
1824.806802	34.819580
1826.599372	31.045455
1828.389807	30.488112
1830.178108	31.556643
1831.969544	32.127972
1833.755334	32.823776
1835.542504	34.729371
1837.327542	35.362238
1839.115714	34.820280
1840.900000	36.769930
1842.682157	35.890909
1844.465692	36.446154
1846.247099	36.204196
1848.029885	35.411888
1849.808791	35.533566
1851.589075	35.611888
1853.367233	35.813287
1855.146770	35.633566
1856.924182	37.046154
1858.699470	37.151748
1860.476137	37.781119
1862.250681	38.943357
1864.026602	37.611888
1865.796904	36.576224
1867.570332	34.962937
1869.341641	32.624476
1871.112580	31.061538
1872.884895	29.460839
1874.651598	29.302797
1876.421425	30.770629
1878.187389	33.722378
1879.956477	36.679021
1881.721703	37.633566
1883.486561	38.840559
1885.252795	37.153147
1887.015171	35.251748
1888.777180	32.739161
1890.538822	30.180420
1892.300096	29.075524
1894.061003	27.784615
1895.821544	27.597902
1897.579975	28.586713
1899.338041	31.698601
1901.093998	34.427972
1902.851333	37.247552
1904.608301	40.324476
1906.363164	40.843357
1908.115921	40.627273
1909.868315	39.882517
1911.622084	38.739161
1913.373750	36.934266
1915.123314	34.652448
1916.874254	31.416783
1918.624830	30.279021
1920.371568	30.169231
1922.119681	30.559441
1923.865695	28.970629
1925.613085	27.567133
1927.358376	28.697203
1929.101570	29.092308
1930.846140	30.934266
1932.588613	32.317483
1934.330726	33.865035
1936.072479	34.381469
1937.813873	34.983916
1939.553173	38.009441
1941.292114	39.509790
1943.030696	40.763287
1944.767186	39.358042
1946.503319	39.206643
1948.240826	38.110490
1949.974512	36.505944
1951.709571	38.094406
1953.442543	37.324126
1955.175158	36.582517
1956.907416	34.644406
1958.639318	33.051049
1960.369134	33.648252
1962.096866	34.618881
1963.825971	34.951049
1965.554722	34.095804
1967.281389	33.313986
1969.007702	32.700000
1970.735388	32.728671
1972.457538	33.381119
1974.182789	32.196503
1975.904234	32.487413
1977.628778	30.735664
1979.351243	29.146154
1981.069904	29.678322
1982.791664	29.213986
1984.509622	28.746853
1986.228954	28.261538
1987.944485	29.158741
1989.664838	30.027273
1991.381391	31.893007
1993.094149	33.063636
1994.810002	34.990210
1996.523782	36.452448
1998.237213	36.081818
1999.948573	36.374126
2001.661306	36.104895
2003.370247	32.086713
2005.082282	30.915385
2006.788807	25.306993
2008.498425	25.023776
2010.205975	26.869930
2011.913178	29.581119
2013.618315	29.708392
2015.323105	31.762238
2017.029267	34.381818
2018.731647	35.953846
2020.435399	36.528671
2022.137087	36.542657
2023.838431	37.718881
2025.539429	39.039161
2027.238367	35.329371
2028.938675	36.759441
2030.635209	38.583217
2032.333114	35.159441
2034.028961	32.551049
2035.727892	33.711189
2037.421338	33.290210
2039.116156	31.573427
2040.810630	30.586713
2042.501336	31.265035
2044.195126	33.060839
2045.885149	34.799301
2047.576543	33.639860
2049.265884	35.251049
2050.956595	36.659441
2052.643544	33.916783
2054.330152	34.529371
2056.018131	35.574825
2057.702350	34.292308
2059.387939	32.831469
2061.073189	31.753846
2062.756391	29.747552
2064.440962	29.716783
2066.120071	29.418881
2067.803965	29.104895
2069.482399	29.742657
2071.163909	29.376224
2072.841669	28.418182
2074.519091	29.574126
2076.197884	28.979720
2077.874633	29.124476
2079.549341	29.997902
2081.225418	32.034266
2082.899455	33.841259
2084.573156	35.186014
2086.246522	34.411888
2087.917850	36.306294
2089.588843	36.397902
2091.259502	38.574825
2092.929826	39.559441
2094.599817	38.719580
2096.267772	36.667832
2097.935394	36.195804
2099.600982	36.759441
2101.267938	36.541259
2102.932861	36.300699
2104.597451	33.572727
2106.260010	33.707692
2107.923937	35.572727
2109.585834	36.320979
2111.247399	39.463636
2112.908634	39.391608
2114.567839	37.713287
2116.226715	36.837063
2117.885260	37.883916
2119.543476	36.353846
2121.197968	35.572727
2122.855525	34.810490
2124.512753	32.306993
2126.166259	33.604196
2127.821133	33.504196
2129.472289	34.722378
2131.126506	36.643357
2132.777007	34.597203
2134.428874	34.910490
2136.075333	34.812587
2137.726547	36.439860
2139.374047	34.059441
2141.022914	33.452448
2142.669763	33.100000
2144.316285	31.961538
2145.962482	33.627273
2147.604971	34.086014
2149.250518	35.843357
2150.892358	38.691608
2152.537255	36.348951
2154.178447	35.909091
2155.819315	33.849650
2157.459860	32.511888
2159.098392	29.795804
2160.738290	28.404895
2162.374488	28.906294
2164.012052	28.920280
2165.649293	31.028671
2167.284525	32.139860
2168.919436	34.580420
2170.554025	36.725175
2172.188292	35.313986
2173.818867	35.884615
2175.452492	35.618182
2177.082426	36.288811
2178.713725	37.494406
2180.343020	37.907692
2181.971994	38.220280
2183.600650	39.218182
2185.228986	39.095105
2186.855319	37.402797
2188.481334	37.383916
2190.105348	36.001399
2191.730726	34.404895
2193.354105	32.893007
2194.978847	29.796503
2196.599909	30.033566
2198.220654	30.196503
2199.842764	30.696503
2201.462876	32.253846
2203.080991	35.020979
2204.698791	35.888811
2206.316276	38.723077
2207.933445	40.710490
2209.550299	41.304196
2211.166838	39.558042
2212.781383	37.990210
2214.393936	35.171329
2216.007853	34.600000
2217.619779	31.376923
2219.233068	30.803497
2220.844367	29.495804
2222.453676	28.279021
2224.064349	28.920280
2225.673033	32.071329
2227.281405	32.334266
2228.887789	33.142657
2230.495537	34.123077
2232.101298	33.884615
2233.706748	32.053846
2235.310214	31.395105
2236.915042	29.995804
2238.517886	30.230070
2240.118747	29.972028
2241.720971	27.533566
2243.321212	27.989510
2244.922816	29.839161
2246.520768	29.986713
2248.120082	31.648951
2249.717416	33.013287
2251.314442	34.261538
2252.912829	33.893706
2254.507568	35.600000
2256.100331	39.074126
2257.694455	39.158042
2259.289941	40.293706
2260.881783	39.113986
2262.473318	36.632168
2264.066214	35.069930
2265.653801	32.926573
2267.246085	32.790909
2268.833061	30.464336
2270.423066	32.665035
2272.007766	30.944056
2273.597160	33.483916
2275.181251	35.955245
2276.766704	36.361538
2278.350187	39.684615
2279.936697	39.669930
2281.519573	38.371329
2283.102145	37.717483
2284.684414	36.545455
2286.263054	35.148252
2287.844717	32.034266
2289.422752	31.132867
2291.003810	29.116783
2292.581242	30.344755
2294.156710	29.683217
2295.735199	29.159441
2297.310065	30.894406
2298.884630	31.126573
2300.458895	33.705594
2302.032859	34.567832
2303.606523	35.104196
2305.179886	35.981818
2306.749631	37.153846
2308.319077	37.525874
2309.891542	38.213986
2311.458731	38.111189
2313.028939	35.962238
2314.595532	34.400000
2316.163485	34.916783
2317.729483	34.313287
2319.295182	35.802098
2320.860585	35.606993
2322.424034	37.491608
2323.988841	40.397902
2325.550041	43.049650
2327.114255	45.526573
2328.673208	44.860839
2330.235174	45.737063
2331.795190	43.749650
2333.354910	42.157343
2334.912681	40.423077
2336.470158	36.916084
2338.027339	37.355245
2339.582574	35.802098
2341.137514	36.144056
2342.692161	34.979720
2344.246514	35.427273
2345.800573	36.551748
2347.354338	35.066434
2348.906160	35.191608
2350.456038	33.988112
2352.008924	33.690909
2353.556568	32.804196
2355.107219	32.300000
2356.654280	34.518881
2358.202698	34.467133
2359.750824	35.542657
2361.295363	34.679720
2362.841259	36.706993
2364.385216	34.891608
2365.930531	35.934266
2367.472261	34.576224
2369.015348	34.288112
2370.556500	32.615385
2372.097362	32.534266
2373.637935	32.125874
2375.178219	31.637063
2376.718214	31.747552
2378.254630	31.302797
2379.794048	31.712587
2381.329889	33.350350
2382.867086	32.337762
2384.400709	35.200699
2385.937331	34.954545
2387.472022	34.090210
2389.004784	34.843357
2390.537260	37.679021
2392.067807	38.057343
2393.601352	38.802797
2395.129686	36.854545
2396.659376	35.704895
2398.188781	36.424476
2399.717900	35.337762
2401.246735	35.737762
2402.770365	36.159441
2404.298630	36.949650
2405.821692	36.992308
2407.349388	40.560839
2408.870245	43.236364
2410.395735	43.424476
2411.917664	43.580420
2413.440949	40.453147
2414.962313	38.100000
2416.481757	36.393007
2418.002556	34.961538
2419.521436	34.857343
2421.040034	35.280420
2422.556715	38.153147
2424.074750	41.627273
2425.592504	45.694406
2427.106707	48.353147
2428.620629	48.830070
2430.134272	48.579720
2431.649268	47.541958
2433.160716	44.318881
2434.673519	42.747552
2436.184409	39.606993
2437.695019	37.630070
2439.203718	40.073427
2440.715404	40.647552
2442.223546	42.301399
2443.731409	43.931469
2445.238995	42.667832
2446.743040	42.102098
2448.250071	41.479021
2449.755193	41.749650
2451.260038	38.893706
2452.762976	37.134965
2454.265637	34.885315
2455.768022	33.671329
2457.268502	34.889510
2458.770335	34.418182
2460.270264	36.444056
2461.769917	38.667133
2463.269295	38.066434
2464.766769	39.744056
2466.262343	41.983217
2467.760896	42.204196
2469.255920	40.850350
2470.752298	39.821678
2472.245149	38.182517
2473.739352	35.672727
2475.233282	35.272028
2476.723689	35.418881
2478.217072	35.888112
2479.708558	36.056643
2481.198147	34.351049
2482.687464	35.290210
2484.174886	35.816084
2485.665283	36.762238
2487.152161	36.547552
2488.640391	36.380420
2490.125105	35.937063
2491.609548	36.359441
2493.095343	36.030769
2494.579245	34.844755
2496.064499	34.055944
2497.544619	33.434266
2499.027711	31.869231
2500.508913	32.592308
2501.989846	33.449650
2503.468890	35.839860
2504.947666	36.153846
2506.426172	36.655944
2507.904411	34.044056
2509.382381	34.135664
2510.856847	31.672028
2512.334281	29.612587
2513.808212	28.400000
2515.283494	27.761538
2516.758508	27.505594
2518.230021	28.973427
2519.702885	28.835664
2521.173865	30.402098
2522.646196	33.235664
2524.113414	32.691608
2525.583597	31.411888
2527.051900	33.337063
2528.519938	33.638462
2529.987711	33.736364
2531.455219	33.579021
2532.922462	34.526573
2534.386213	35.600699
2535.851315	35.930070
2537.314538	36.254545
2538.779112	38.418881
2540.240196	39.996503
2541.702630	37.085315
2543.164801	37.039161
2544.623486	36.922378
2546.086743	37.294406
2547.544903	38.316084
2549.004412	39.030769
2550.458828	40.236364
2551.917813	42.034266
2553.374927	43.482517
2554.830170	46.078322
2556.285152	46.839161
2557.738264	45.705594
2559.192725	41.913986
2560.645317	40.369930
2562.097649	38.815385
2563.548113	37.637063
2565.001533	36.972028
2566.449871	37.095804
2567.901165	36.393007
2569.350592	35.730070
2570.796548	36.327273
2572.245458	37.902098
2573.690897	38.692308
2575.137685	41.476923
2576.582609	43.910490
2578.027276	45.941259
2579.473290	49.055944
2580.915837	49.755245
2582.359732	51.086014
2583.800162	50.358042
2585.241940	48.081119
2586.681857	46.674825
2588.123122	46.694406
2589.560926	44.591608
2591.001679	46.230070
2592.437369	47.437762
2593.876009	48.841259
2595.312792	48.739161
2596.747718	50.540559
2598.185593	50.937063
2599.618410	52.968531
2601.052573	52.979720
2602.484883	53.313986
2603.918539	54.895804
2605.350342	55.542657
2606.781892	54.975524
2608.213188	55.411189
2609.642633	53.520979
2611.071825	56.937063
2612.499166	56.509790
2613.927854	57.727972
2615.356289	59.160140
2616.781277	61.963636
2618.207612	63.946154
2619.632098	64.230070
2621.057930	65.691608
2622.480318	66.679720
2623.904052	66.401399
2625.325940	66.562937
2626.747577	69.832867
2628.167369	72.451049
2629.588507	71.504895
2631.009395	73.602797
2632.426845	73.670629
2633.847234	76.684615
2635.264186	80.458042
2636.680890	75.652448
2638.097345	81.067832
2639.513552	88.080420
2640.929510	94.236364
2642.343628	100.778322
2643.757499	107.293706
2645.169530	109.965035
2646.582906	111.241958
2647.992852	110.007692
2649.405733	107.522378
2650.815187	105.924476
2652.224394	103.372028
2653.631765	97.557343
2655.042070	101.634965
2656.450539	102.812587
2657.857173	104.939860
2659.263562	106.792308
2660.668117	110.979021
2662.074016	114.087413
2663.478082	113.953147
2664.881904	114.679021
2666.285481	117.706294
2667.687226	120.254545
2669.090315	122.962937
2670.489987	125.282517
2671.891001	125.938462
2673.288600	126.081119
2674.689129	126.760839
2676.086243	124.618182
2677.484700	123.467133
2678.881329	123.918182
2680.277716	122.822378
2681.673862	122.064336
2683.068181	121.565035
2684.463843	122.565035
2685.856095	121.918182
2687.249691	122.535664
2688.641462	121.022378
2690.034575	120.663636
2691.425865	120.586713
2692.815332	117.659441
2694.204560	115.947552
2695.593547	118.795105
2696.983877	116.412587
2698.369222	114.639860
2699.757491	112.719580
2701.143940	111.237762
2702.530150	108.904196
2703.916122	105.953147
2705.298695	101.776923
2706.682609	99.478322
2708.066286	97.165734
2709.449725	94.044056
2710.829768	90.203497
2712.211153	89.321678
2713.590722	85.983217
2714.971633	83.332867
2716.350729	78.548252
2717.728010	76.651748
2719.106633	75.512587
2720.483443	72.176224
2721.860017	69.786014
2723.236355	67.333566
2724.610881	65.816084
2725.986748	63.520280
2727.359228	61.717483
2728.734625	61.758042
2730.105060	61.785315
2731.476837	56.871329
2732.848380	53.736364
2734.218114	53.255944
2735.589188	51.248951
2736.958455	49.297203
2738.327488	48.337762
2739.694714	46.777622
2741.061708	45.034965
2742.428469	44.428671
2743.794997	45.060140
2745.159720	45.799301
2746.524212	45.645455
2747.888471	40.811189
2749.252499	38.786014
2750.616294	39.994406
2751.976716	39.374126
2753.340049	41.051748
2754.698439	42.462937
2756.059739	43.790210
2757.417668	44.269930
2758.778507	44.877622
2760.137545	45.331469
2761.493215	43.020979
2762.851793	43.474126
2764.207005	43.004895
2765.561987	43.632867
2766.915172	45.218182
2768.271264	43.345455
2769.623992	42.911888
2770.976491	42.088112
2772.328762	40.415385
2773.682372	38.042657
2775.032620	34.772727
2776.381075	33.722378
2777.732434	32.888112
2779.080434	37.454545
2780.429773	37.835664
2781.777319	38.471329
2783.124638	39.163636
2784.471731	36.385315
2785.817033	35.293007
2787.162109	35.063636
2788.506959	34.234266
2789.851582	32.367133
2791.192854	32.937063
2792.535464	35.623776
2793.877848	37.476224
2795.220008	37.844755
2796.558818	39.064336
2797.900527	40.197203
2799.238889	38.814685
2800.578588	33.620280
2801.916501	31.813986
2803.252630	32.398601
2804.588536	31.439860
2805.925778	29.840559
2807.261237	31.087413
2808.596473	32.629371
2809.929927	35.082517
2811.264717	35.417483
2812.596166	37.588811
2813.930511	36.529371
2815.259958	32.386713
2816.590742	29.671329
2817.921304	29.503497
2819.250087	29.093007
2820.580207	26.530769
2821.908547	24.566434
2823.236667	25.448951
2824.563010	27.537762
2825.890688	30.633566
2827.215034	31.113287
2828.540715	31.579720
2829.864621	31.636364
2831.188308	30.039161
2832.513330	29.180420
2833.835023	29.358042
2835.156496	26.704196
2836.477751	24.130769
2837.798787	23.106294
2839.118051	24.243357
2840.438650	25.225874
2841.757477	26.572028
2843.076086	25.871329
2844.392925	25.918881
2845.709546	24.281818
2847.025949	24.389510
2848.340584	24.797902
2849.656553	28.504196
2850.969202	28.067832
2852.283187	28.100000
2853.596955	27.789510
2854.910506	29.278322
2856.222290	30.713986
2857.532309	31.223776
2858.843661	32.702797
2860.151699	34.139860
2861.461072	32.359441
2862.770229	34.688112
2864.079171	34.801399
2865.386350	35.091608
2866.691765	31.500000
2867.998515	30.669231
2869.303502	30.058042
2870.608276	31.523077
2871.911288	31.239860
2873.217182	32.529371
2874.518220	32.900699
2875.820593	31.418881
2877.121206	29.688112
2878.423153	29.166434
2879.724887	25.452448
2881.023317	24.627972
2882.323080	24.069231
2883.621085	25.778322
2884.918879	24.988112
2886.214917	27.670629
2887.512288	29.605594
2888.807903	33.235664
2890.103307	33.023077
2891.398501	33.796503
2892.690396	34.540559
2893.985168	33.046853
2895.276643	32.390210
2896.569452	32.659441
2897.862049	31.760140
2899.151353	30.908392
2900.441989	30.495804
2901.730874	32.328671
2903.021092	34.192308
2904.308018	35.489510
2905.596276	34.608392
2906.882784	34.078322
2908.169085	31.066434
2909.455177	28.318881
2910.739521	26.917483
2912.026737	24.668531
2913.309126	24.001399
2914.592846	23.461538
2915.874821	23.232168
2917.156589	22.525874
2918.436611	24.768531
2919.719503	25.428671
2921.000650	24.680420
2922.278515	24.837762
2923.559249	22.945455
2924.836702	24.283916
2926.113950	24.339161
2927.389455	25.904196
2928.667828	27.329371
2929.941386	29.269231
2931.217812	29.420280
2932.492497	29.560140
2933.765442	31.902797
2935.039717	29.877622
2936.312253	27.181818
2937.584585	27.380420
2938.853644	23.811888
2940.125567	23.631469
2941.395753	21.621678
2942.665736	22.127273
2943.935515	20.659441
2945.203557	21.766434
2946.469864	21.598601
2947.735968	24.872028
2949.003402	25.728671
2950.269102	24.625874
2951.534599	25.458741
2952.799894	28.519580
2954.061924	28.425175
2955.325285	28.111189
2956.588444	27.234965
2957.849870	26.020979
2959.112626	25.852448
2960.373651	25.956643
2961.632945	26.238462
2962.892038	26.676923
2964.150931	25.372028
2965.409624	23.058042
2966.668117	23.444056
2967.924881	24.423077
2969.181445	23.633566
2970.436282	25.246853
2971.692448	27.018881
2972.945358	25.712587
2974.199598	28.444056
2975.453639	28.316084
2976.705954	29.495804
2977.958071	31.203497
2979.208463	31.141259
2980.461710	27.712587
2981.710180	27.676923
2982.961504	28.814685
2984.209580	28.525874
2985.457458	31.237762
2986.705139	27.595105
2987.952624	25.811189
2989.198387	25.507692
2990.443953	24.569930
2991.690848	23.957343
2992.934497	23.601399
2994.179475	20.720280
2995.421210	20.164336
2996.665796	18.005594
2997.908662	20.844755
2999.148288	21.291608
3000.390765	23.589510
3001.630001	23.291608
3002.870565	25.188112
3004.109412	27.051049
3005.348065	27.412587
3006.585002	26.639860
3007.823266	26.289510
3009.059816	23.552448
3010.296171	23.049650
3011.532333	19.763636
3012.766782	21.240559
3014.001037	20.841259
3015.235099	19.855944
3016.467449	19.856643
3017.698087	20.485315
3018.931571	23.335664
3020.163343	23.562238
3021.393405	24.977622
3022.623275	27.588811
3023.851435	29.002098
3025.080921	30.569231
3026.308699	28.495804
3027.536285	28.431469
3028.765197	26.349650
3029.989367	22.285315
3031.216380	20.441259
3032.440170	18.881818
3033.665285	17.472028
3034.888694	15.755944
3036.111914	13.853846
3037.333428	13.402797
3038.557783	14.014685
3039.777403	14.085315
3040.998348	16.060839
3042.219105	18.478322
3043.438158	20.411189
3044.658537	21.234266
3045.875699	22.330769
3047.094186	24.441259
3048.310972	25.234266
3049.527569	23.065734
3050.743979	18.020979
3051.957175	16.618182
3053.173209	16.200000
3054.386031	16.759441
3055.601690	17.379720
3056.812626	16.809091
3058.024887	17.989510
3059.236962	17.813287
3060.448850	19.854545
3061.659040	22.160839
3062.869045	23.197552
3064.078863	22.472028
3065.286985	22.045105
3066.494921	23.276224
3067.701163	21.129720
3068.908728	20.701399
3070.114600	18.461888
3071.320286	19.655944
3072.525787	19.686364
3073.729596	18.886014
3074.934728	19.150000
3076.138167	18.988112
3077.339914	19.497552
3078.541478	19.347552
3079.742858	20.684615
3080.944054	20.190210
3082.143560	20.429371
3083.342882	22.147552
3084.543528	23.216783
3085.742485	24.493706
3086.938246	22.574825
3088.136837	20.809091
3089.332234	19.851049
3090.528954	19.803497
3091.722482	17.227972
3092.918839	16.788811
3094.113508	18.485315
3095.304987	19.830769
3096.500797	22.065035
3097.691914	23.004196
3098.884353	24.211189
3100.073605	24.075524
3101.265683	23.243357
3102.456076	23.171329
3103.643284	22.983217
3104.831815	21.299301
3106.021668	20.704196
3107.208336	21.770629
3108.394825	22.626573
3109.581134	21.390210
3110.768765	19.543357
3111.953215	18.289510
3113.135984	18.881119
3114.321577	18.427273
3115.505489	18.932867
3116.687723	18.602098
3117.869779	18.755245
3119.051656	18.948951
3120.233355	20.139860
3121.413376	18.562238
3122.591721	19.506294
3123.772887	16.271329
3124.950877	15.965734
3126.128690	15.753147
3127.306326	14.369930
3128.482287	13.785315
3129.658072	14.267832
3130.835177	15.128671
3132.010608	15.505594
3133.184366	15.404196
3134.356452	16.087413
3135.529858	16.481818
3136.703089	17.882517
3137.874647	16.337063
3139.047527	19.758741
3140.217239	19.921678
3141.388272	19.603497
3142.557634	20.799301
3143.725327	21.766434
3144.895835	22.235664
3146.061684	21.860140
3147.231843	20.932867
3148.397344	20.745455
3149.562672	20.746853
3150.727826	19.072727
3151.892806	18.210490
3153.059107	19.348252
3154.220754	19.215385
3155.383722	21.379720
3156.546516	20.558741
3157.709138	18.693007
3158.870095	17.802098
3160.030879	19.165035
3161.191491	17.509091
3162.350440	16.348951
3163.509216	17.568531
3164.667821	15.378322
3165.826254	16.360839
3166.984515	16.840559
3168.141114	18.797203
3169.296052	20.291608
3170.452309	17.970629
3171.606906	16.370629
3172.761331	16.265734
3173.914097	17.763636
3175.066693	16.818182
3176.219118	16.866434
3177.371374	17.713986
3178.523460	17.774126
3179.672399	20.279720
3180.824145	20.100000
3181.974234	20.874825
3183.122665	20.517483
3184.270928	19.309091
3185.419021	17.793007
3186.566946	16.853846
3187.713216	17.354545
3188.859317	17.283217
3190.003763	19.600000
3191.148042	20.424476
3192.292153	20.816783
3193.437582	21.886014
3194.579872	20.851748
3195.721994	19.783217
3196.863950	17.915385
3198.005738	18.848252
3199.147359	18.484615
3200.285844	19.679720
3201.425647	20.683916
3202.566768	21.607692
3203.704754	23.700699
3204.841091	23.655245
3205.977262	23.729371
3207.114751	23.068531
3208.250591	21.266434
3209.387747	19.693007
3210.520291	19.427972
3211.657117	21.070629
3212.789331	20.078322
3213.922863	20.592308
3215.056229	20.241958
3216.186468	18.486713
3217.319505	17.444755
3218.449416	15.718182
3219.580644	12.707692
3220.708746	12.296503
3221.839645	12.673427
3222.968901	16.783916
3224.096512	19.341259
3225.221002	20.599301
3226.349767	19.181818
3227.475410	19.946853
3228.600890	20.302797
3229.724729	20.414685
3230.851362	20.234266
3231.973398	18.380420
3233.096750	17.713986
3234.219940	18.418182
3235.342968	18.690210
3236.464356	20.195804
3237.585583	17.751049
3238.705171	14.337762
3239.824598	12.390210
3240.942387	12.878322
3242.062969	14.193007
3243.180436	14.486014
3244.297744	14.388112
3245.414890	14.502098
3246.530401	15.435664
3247.647227	15.100000
3248.760942	15.452448
3249.877448	14.704895
3250.992318	12.325874
3252.104080	10.794406
3253.215683	12.245455
3254.328600	12.472028
3255.441359	14.069930
3256.551011	14.825874
3257.661978	15.225874
3258.772786	16.028671
3259.881962	13.953846
3260.989507	15.098601
3262.098367	16.790909
3263.207068	17.889510
3264.312667	17.024476
3265.419581	16.748252
3266.524865	15.681119
3267.631463	15.295804
3268.734961	15.239161
3269.839773	17.786014
3270.944428	16.245455
3272.045984	15.966434
3273.147385	13.247552
3274.250099	15.459441
3275.352656	15.829371
3276.452118	17.569930
3277.554362	17.542657
3278.653512	15.428671
3279.751036	13.455245
3280.848405	12.748252
3281.948557	10.842657
3283.045615	12.968531
3284.142518	10.440559
3285.239267	11.689510
3286.331456	10.769930
3287.427895	12.454545
3288.522711	12.637063
3289.617372	15.074825
3290.710412	16.846853
3291.803298	16.748252
3292.894563	16.722378
3293.987141	17.239161
3295.078098	15.806294
3296.167437	16.095105
3297.256621	12.209091
3298.347119	12.043357
3299.434532	9.334965
3300.521793	8.547552
3301.610366	6.786014
3302.698786	6.523776
3303.782659	6.785315
3304.870774	7.864336
3305.955808	7.870629
3307.039226	7.949650
3308.123955	9.346154
3309.207070	11.306993
3310.291496	11.265035
3311.372844	14.076923
3312.455504	13.990210
3313.536550	14.391608
3314.617445	15.938462
3315.696727	13.754545
3316.775858	12.258042
3317.856300	13.744755
3318.933669	11.128671
3320.012349	9.849650
3321.089417	12.490909
3322.166335	13.357343
3323.241642	12.169231
3324.316800	11.544056
3325.393270	10.754545
3326.466668	9.483916
3327.539918	8.693007
3328.614479	5.374825
3329.687430	6.579720
3330.758774	7.900000
3331.831428	6.890909
3332.901015	8.124476
3333.971913	11.819580
3335.041204	12.618881
3336.111806	10.868531
3337.180801	10.325175
3338.248190	9.965734
3339.313974	6.322378
3340.383984	6.987413
3341.450931	9.133566
3342.514816	10.029371
3343.581469	9.693706
3344.646517	9.324476
3345.709963	10.751748
3346.773261	14.096503
3347.836414	12.127273
3348.899420	10.260839
3349.962279	9.748252
3351.023537	7.088112
3352.081738	5.141958
3353.144160	6.665734
3354.203525	7.474126
3355.262745	7.327972
3356.323275	6.339161
3357.379295	6.152448
3358.438080	6.388112
3359.492357	5.999301
3360.549397	2.929371
3361.604840	3.621678
3362.661591	4.185315
3363.716745	3.482517
3364.770301	5.075524
3365.822260	6.507692
3366.876981	9.440559
3367.928653	9.904895
3368.980182	9.246853
3370.033020	9.851049
3371.082810	9.313287
3372.133908	6.445455
3373.181961	6.767832
3374.232774	7.951748
3375.280541	8.928671
3376.328166	8.379720
3377.375649	8.300699
3378.421538	8.969930
3379.468736	10.295804
3380.512892	9.025874
3381.559806	9.313287
3382.605128	8.786713
3383.647410	8.884615
3384.689550	7.750350
3385.732998	9.292308
3386.776306	8.707692
3387.818023	6.964336
3388.859599	6.640559
3389.901035	7.149650
3390.940881	7.500000
3391.979140	8.341958
3393.018706	7.434965
3394.058131	8.289510
3395.095970	8.762937
3396.132221	11.291608
3397.168332	10.618182
3398.205751	8.908392
3399.240137	8.825175
3400.275830	6.576923
3401.311384	7.198601
3402.343907	6.325874
3403.379183	4.832168
3404.411428	6.105594
3405.443535	6.460839
3406.474058	7.395804
3407.505889	8.802797
3408.537580	11.101399
3409.566245	9.046154
3410.594771	9.643357
3411.624605	11.196503
3412.654300	10.584615
3413.680970	10.473427
3414.708947	10.660839
3415.733899	9.996503
3416.761601	8.858042
3417.786280	5.183916
3418.812265	3.039860
3419.836670	2.231469
3420.860939	2.281119
3421.883629	0.711888
3422.906183	4.730769
3423.930043	6.841958
3424.950883	10.111888
3425.971588	12.926873
3426.993598	14.357218
3428.012590	13.733167
3429.031447	10.384965
3430.051609	3.642857
3431.068755	-7.162912
