-117.384298	-0.600549
-114.714698	-3.067033
-112.048033	-4.061339
-109.382120	-3.915984
-106.719139	-2.963487
-104.054729	-1.536364
-101.393249	0.032867
-98.730339	-0.410490
-96.072537	-0.730769
-93.413304	1.348951
-90.754821	0.537063
-88.099261	0.883217
-85.442273	2.322378
-82.790382	-0.060839
-80.137062	-1.518881
-77.486662	-0.844056
-74.834832	-2.140559
-72.188093	-0.144056
-69.539924	-2.844056
-66.892499	-4.481818
-64.247987	-6.212587
-61.602047	-4.964336
-58.961188	-8.827273
-56.318900	-7.871329
-53.679520	-4.782517
-51.038712	-5.831469
-48.398644	-3.816783
-45.763648	-0.562937
-43.127224	-0.512587
-40.493702	1.818881
-37.858752	2.106993
-35.228867	4.079720
-32.595390	5.047552
-29.966975	6.974825
-27.339293	4.453846
-24.710184	1.058042
-22.086131	-13.190210
-19.458489	-71.483916
-16.835900	-188.286014
-14.214043	-120.938462
-11.592916	267.374126
-8.972519	858.907692
-6.355010	1341.679021
-3.736073	1673.008392
-1.120022	1846.217483
1.495301	1861.925874
4.109897	1716.690210
6.721610	1423.243357
9.334752	984.688811
11.942860	449.053147
14.554550	-54.305594
17.161209	-248.632867
19.769296	-162.375524
22.376659	-16.313986
24.978997	3.993007
27.584913	6.218881
30.185807	4.951049
32.788129	4.512587
35.385434	1.505594
37.986314	1.941958
40.582180	-4.049650
43.179473	-0.990210
45.776047	-2.728671
48.367612	-2.330769
50.960605	-6.615385
53.550737	-3.795105
56.142297	-2.120280
58.730997	-1.091608
61.321124	-0.903497
63.906253	3.018881
66.492808	1.208392
69.078650	0.698601
71.661638	-0.600000
74.246052	1.135664
76.823338	-2.060140
79.404190	-0.921678
81.982193	-1.262937
84.559486	3.469930
87.138205	3.938462
89.711943	2.855245
92.287107	2.157343
94.859428	3.273427
97.431041	-0.858042
99.999814	-0.968531
102.570014	-3.123077
105.137376	-4.802797
107.706163	-8.028671
110.272114	-5.732168
112.835230	-7.078322
115.401902	-5.266434
117.959353	-2.215385
120.522489	1.304196
123.080666	3.825175
125.642396	9.888811
128.199170	22.897902
130.757371	42.760839
133.310619	63.879720
135.863168	92.843357
138.419268	121.400699
140.970421	155.525874
143.520875	183.695804
146.070632	210.825874
148.617571	233.737063
151.163813	249.621678
153.711481	256.933566
156.258453	264.314685
158.800490	269.300699
161.341833	267.506993
163.882483	263.361538
166.424559	260.498601
168.963823	255.814685
171.500279	254.441958
174.036043	249.892308
176.573233	247.936364
179.109732	245.551049
181.643425	246.009091
184.174315	246.496503
186.704516	250.819580
189.236142	252.634965
191.764967	253.952448
194.290993	254.474126
196.816333	256.911888
199.343099	259.345455
201.867067	263.646154
204.390351	263.726573
206.912950	265.858741
209.432756	263.055245
211.951879	263.285315
214.470319	261.791608
216.990183	264.057343
219.503046	263.890909
222.019440	262.589510
224.535152	260.199301
227.045974	260.725175
229.558222	263.450350
232.067686	264.451748
234.576472	265.164336
237.084580	267.757343
239.594111	268.465734
242.098762	271.499301
244.602738	271.439161
247.108137	273.941259
249.608661	273.725175
252.112708	271.871329
254.609785	269.241259
257.110384	270.455944
259.608212	271.730070
262.105367	273.118881
264.601849	276.805594
267.093468	281.505594
269.588607	289.066434
272.080980	292.837063
274.572682	293.143357
277.061620	299.490210
279.551983	297.381818
282.039583	295.874825
284.524425	294.833566
287.012780	292.665035
289.494196	289.273427
291.979126	287.543357
294.459211	286.074825
296.942808	284.726573
299.421562	283.633566
301.901740	281.500699
304.379165	280.735664
306.855927	282.209790
309.332026	283.820979
311.805376	298.873427
314.278064	316.386713
316.750091	330.502797
319.221457	339.397902
321.690079	344.409091
324.158041	346.514685
326.627425	339.313986
329.091987	328.277622
331.560053	316.525874
334.023299	300.931469
336.485887	287.345455
338.947819	280.625175
341.409094	282.667832
343.867635	287.279021
346.327598	286.383916
348.784828	286.010490
351.241404	288.671329
353.697326	288.209790
356.150519	287.569930
358.605133	288.597203
361.054946	290.387413
363.508255	288.311189
365.956766	289.148951
368.404626	289.025175
370.853907	291.122378
373.298395	290.319580
375.744305	285.106294
378.189566	286.209790
380.632107	286.580420
383.074001	283.923776
385.515248	289.612587
387.953779	291.612587
390.393732	291.662238
392.830971	291.498601
395.265498	292.430070
397.703513	292.953846
400.136751	294.281818
402.571411	287.557343
405.001297	284.652448
407.434669	284.664336
409.863271	283.348252
412.291232	283.936364
414.720613	286.949650
417.145229	288.558741
419.571267	289.146154
421.996664	290.341958
424.421421	289.966434
426.841420	289.923776
429.262840	290.358042
431.681563	284.524476
434.101707	284.656643
436.519156	283.895105
438.938025	284.142657
441.354201	284.104196
443.765630	284.362238
446.180535	285.751049
448.592750	287.207692
451.004331	287.869930
453.415278	286.861538
455.823539	285.069231
458.231167	281.824476
460.638164	276.160839
463.044528	273.651049
465.448210	270.729371
467.851262	270.530070
470.253684	265.963636
472.655477	265.076923
475.054591	265.497902
477.455125	267.294406
479.855030	269.694406
482.250212	270.964336
484.648861	270.813287
487.042790	269.099301
489.436093	264.934965
491.828770	264.124476
494.220822	255.267832
496.614292	251.120280
499.003051	242.301399
501.389143	234.019580
503.776654	226.322378
506.163543	217.556643
508.547768	209.876224
510.933412	204.434266
513.316393	196.393706
515.696714	192.422378
518.078454	187.430070
520.457535	184.977622
522.838035	176.604196
525.215877	173.881818
527.591064	170.346154
529.965633	170.504196
532.341621	169.703497
534.714955	166.648252
537.089707	162.031469
539.459774	163.357343
541.829225	160.105594
544.200094	158.947552
546.566283	156.281119
548.933890	155.484615
551.298851	151.195804
553.663199	151.266434
556.026935	153.588811
558.392088	156.069231
560.752568	157.467133
563.114467	157.128671
565.473726	157.034965
567.830346	158.971329
570.190411	157.234266
572.543786	156.118182
574.900605	155.571329
577.254788	154.229371
579.608364	151.159441
581.961331	150.272028
584.311667	147.381818
586.663419	146.679720
589.008495	151.522378
591.359035	150.790909
593.702901	151.311189
596.052229	152.897902
598.396909	152.690909
600.738963	154.090909
603.082435	153.766434
605.423284	150.350350
607.763531	147.854545
610.101157	145.080420
612.442218	145.408392
614.778641	147.511888
617.116481	147.730070
619.451704	143.501399
621.784311	142.321678
624.118334	142.255245
626.449744	140.575524
628.780555	141.558741
631.110768	138.072727
633.440383	134.200000
635.765376	134.031469
638.095810	134.907692
640.421622	136.400699
642.744828	136.016084
645.069449	132.202797
647.391465	131.968531
649.712888	134.679720
652.031707	136.937762
654.351942	136.348951
656.671584	137.893007
658.988625	135.402098
661.305074	134.546154
663.618925	134.296503
665.934192	135.200000
668.246862	132.023776
670.560947	130.880420
672.870432	130.189510
675.181333	133.785315
677.489641	133.169930
679.797361	132.891608
682.106496	128.604196
684.411038	130.340559
686.714993	125.800699
689.018363	124.492308
691.323147	121.514685
693.623345	121.018182
695.924957	118.371329
698.225985	118.868531
700.522430	119.696503
702.820291	121.388112
705.117568	118.730769
707.414262	119.130769
709.706380	117.378322
712.001909	118.966434
714.292865	116.776224
716.585235	118.378322
718.875029	115.727273
721.164243	114.364336
723.452878	115.804196
725.738941	116.541958
728.026417	115.444056
730.311322	114.816783
732.595650	112.690909
734.877409	113.854545
737.160582	114.953147
739.443178	113.441958
741.721219	116.695105
744.000673	117.880420
746.279552	119.461538
748.557855	123.506294
750.831609	125.368531
753.106777	125.882517
755.381371	124.093706
757.653405	121.913986
759.926853	119.739161
762.197743	118.288811
764.466077	113.812587
766.735824	113.872727
769.003017	118.153147
771.269639	122.637063
773.535691	125.509091
775.799192	130.581119
778.064106	130.719580
780.328450	133.006993
782.588265	130.637762
784.849493	129.111189
787.110152	124.945455
789.368266	121.794406
791.623835	121.014685
793.882795	124.967832
796.135256	127.828671
798.393084	128.762238
800.646392	125.181119
802.897161	126.493706
805.149342	123.969930
807.398985	124.172028
809.650039	120.138462
811.896582	118.420280
814.144537	115.457343
816.389958	118.530769
818.636790	121.104196
820.883061	123.865035
823.124828	125.280420
825.369977	121.493706
827.608654	119.024476
829.850713	118.200000
832.088274	114.600000
834.327247	113.134266
836.563693	109.523776
838.801550	107.400000
841.036882	108.301399
843.269691	109.893706
845.503911	109.965035
847.735609	111.683217
849.966751	111.959441
852.197340	113.185315
854.427373	112.728671
856.656853	112.228671
858.881851	110.259441
861.110224	109.795804
863.334118	109.581119
865.559422	111.179720
867.780251	112.111189
870.004452	110.926573
872.224180	108.025874
874.445319	107.916783
876.665907	107.367133
878.883985	107.929371
881.103474	108.915385
883.318495	111.334965
885.532970	111.904895
887.746896	112.669930
889.960276	114.436364
892.173108	117.796503
894.385394	119.055245
896.595177	119.503497
898.804415	116.158741
901.013108	117.218881
903.219302	112.704895
905.426905	112.014685
907.632010	113.304196
909.836572	115.068531
912.038639	113.458042
914.242115	114.151049
916.443097	113.657343
918.643538	115.959441
920.845386	117.638462
923.040844	118.500699
925.239661	116.821678
927.434039	116.548252
929.631775	113.283217
931.825075	115.152448
934.019784	116.734266
936.212007	118.472028
938.403692	117.918881
940.594839	118.560140
942.783503	116.928671
944.971630	119.921678
947.157277	117.501399
949.346276	117.279720
951.530852	115.786713
953.714893	116.703497
955.902284	116.137762
958.081371	117.517483
960.263809	117.473427
962.445713	121.637063
964.625143	124.070629
966.802099	127.855245
968.980464	132.076923
971.160236	137.408392
973.333659	137.970629
975.510428	144.140559
977.682790	146.641958
979.856560	150.100000
982.025926	148.621678
984.198637	149.903497
986.368881	149.974126
988.538597	152.337762
990.707784	151.239161
992.872574	152.290909
995.040705	153.693007
997.204442	156.019580
999.369585	158.367832
1001.532270	161.628671
1003.694428	161.366434
1005.854130	163.041259
1008.013308	160.836364
1010.173892	162.579021
1012.332021	161.937063
1014.489626	162.173427
1016.646708	162.627972
1018.803267	163.624476
1020.955446	165.467133
1023.109031	169.767133
1025.262095	172.270629
1027.412711	171.281818
1029.564732	169.167133
1031.712380	170.394406
1033.863360	173.259441
1036.009969	177.260140
1038.156060	178.076224
1040.301631	181.300000
1042.448608	184.336364
1044.589296	187.020979
1046.733314	189.508392
1048.874891	193.881119
1051.015952	193.091608
1053.158417	190.276224
1055.294603	190.517483
1057.434115	192.455944
1059.569271	192.360839
1061.707752	189.816783
1063.841879	186.637063
1065.975493	186.565734
1068.110512	187.811888
1070.241181	185.195105
1072.373255	184.537762
1074.502900	183.527972
1076.632033	182.259441
1078.760654	182.265035
1080.888764	184.053846
1083.014448	182.774126
1085.139622	176.932867
1087.266200	177.527273
1089.388441	171.390210
1091.512085	170.322378
1093.631396	167.490210
1095.755935	162.111189
1097.874229	160.124476
1099.993928	157.970629
1102.111208	157.341958
1104.227982	155.713986
1106.344249	155.356643
1108.458101	153.441958
1110.573356	151.032168
1112.684289	154.160140
1114.798533	151.558042
1116.908457	154.737063
1119.019785	155.364336
1121.130608	155.851748
1123.237115	156.382517
1125.346932	157.169231
1127.452434	156.372727
1129.559339	156.758042
1131.660029	154.062937
1133.765931	151.978322
1135.867524	149.486713
1137.970520	148.168531
1140.073015	146.966434
1142.169303	146.376923
1144.270799	142.405594
1146.367992	142.123776
1148.464686	141.266434
1150.560882	143.913986
1152.656581	144.290210
1154.751781	145.751748
1156.844586	144.556643
1158.938792	147.940559
1161.026807	146.505594
1163.120020	143.411189
1165.207045	143.141958
1167.297369	139.321678
1169.383406	136.674126
1171.472740	138.039860
1173.555893	136.674126
1175.640448	139.515385
1177.726405	138.925175
1179.808080	140.427972
1181.891157	141.529371
1183.971848	143.395105
1186.052047	143.602797
1188.131755	141.143357
1190.210972	139.567832
1192.287807	135.511189
1194.362261	135.676224
1196.440006	134.581119
1198.513482	130.406294
1200.588358	129.721678
1202.658967	128.067133
1204.730978	129.251748
1206.800612	129.312587
1208.871647	128.619580
1210.942194	130.049650
1213.008480	128.708392
1215.076167	127.506993
1217.141482	128.858741
1219.208197	130.493007
1221.270656	130.711189
1223.336400	128.688811
1225.397891	127.977622
1227.460781	129.106993
1229.521304	132.858741
1231.581343	132.024476
1233.640900	133.716084
1235.698091	135.216783
1237.754801	136.788112
1239.809148	137.865035
1241.866775	140.993706
1243.922040	138.937762
1245.973064	140.039860
1248.025488	138.285315
1250.077432	137.406294
1252.127018	136.590210
1254.176125	138.041958
1256.224754	137.120280
1258.272904	141.572028
1260.320575	140.909091
1262.364017	142.536364
1264.410733	142.424476
1266.455096	143.885315
1268.498983	139.475524
1270.540519	140.473427
1272.579704	138.239860
1274.622163	140.610490
1276.660399	138.662937
1278.700034	140.684615
1280.739194	143.865035
1282.774135	145.805594
1284.810475	146.334266
1286.844471	150.059441
1288.879865	153.452448
1290.911045	158.055944
1292.943624	157.879720
1294.975730	161.527273
1297.005496	165.981818
1299.036660	171.987413
1301.063616	173.057343
1303.091970	176.716084
1305.116120	183.693007
1307.143534	187.118182
1309.166746	193.946853
1311.191356	200.314685
1313.213632	206.983217
1315.237305	212.865734
1317.258645	218.639161
1319.279517	229.747552
1321.299922	238.037762
1323.316134	246.054545
1325.333743	254.265035
1327.349024	263.262937
1329.367564	272.088112
1331.381915	279.497902
1333.393940	286.769231
1335.409222	291.569231
1337.420319	295.072727
1339.432813	296.830070
1341.441124	298.287413
1343.452691	300.941259
1345.458218	299.035664
1347.467001	296.615385
1349.471606	295.753846
1351.479465	287.374126
1353.486862	278.004895
1355.488228	270.439860
1357.490991	260.095105
1359.493293	250.384615
1361.495136	239.691608
1363.496519	229.167133
1365.495589	220.095804
1367.494200	212.973427
1369.492353	202.807692
1371.490047	195.462937
1373.483579	189.943357
1375.478507	181.446853
1377.472977	175.778322
1379.466992	171.223776
1381.458698	165.866434
1383.449950	163.065035
1385.438896	158.717483
1387.429237	157.671329
1389.419123	154.849650
1391.406706	152.218881
1393.393834	146.371329
1395.378662	144.871329
1397.364883	142.737063
1399.348805	141.437063
1401.332274	139.320280
1403.315291	139.414685
1405.296009	137.070629
1407.278123	137.206294
1409.257939	138.703497
1411.237305	142.056643
1413.212531	138.806294
1415.190997	139.469231
1417.167168	136.755245
1419.142891	135.282517
1421.118164	133.376224
1423.091146	129.540559
1425.063680	128.393706
1427.035767	129.139860
1429.007405	126.179720
1430.974915	128.518182
1432.947500	132.172727
1434.912278	136.004895
1436.882128	138.732867
1438.847855	141.410490
1440.814974	144.139860
1442.779810	144.461538
1444.740526	143.346154
1446.706311	142.477622
1448.666140	141.497203
1450.627362	139.995105
1452.589977	136.639161
1454.548477	138.644755
1456.506534	141.458042
1458.464150	147.965734
1460.421324	152.906294
1462.376222	154.579720
1464.332512	159.559441
1466.286528	158.199301
1468.240104	156.925874
1470.191407	155.686713
1472.144102	152.013287
1474.094526	151.906294
1476.044510	149.688112
1477.994056	151.587413
1479.941333	153.253147
1481.886343	156.812587
1483.832744	157.036364
1485.778708	158.569231
1487.724235	160.509790
1489.667497	159.804895
1491.610322	161.093706
1493.550884	163.700699
1495.492837	165.960839
1497.432528	167.484615
1499.371785	166.564336
1501.310606	171.046853
1503.247168	172.010490
1505.185121	174.061538
1507.120815	173.644755
1509.056076	176.944755
1510.989081	181.026573
1512.921653	186.627972
1514.853793	191.816084
1516.785501	197.247552
1518.714955	201.981119
1520.645800	205.667832
1522.576213	211.438462
1524.502554	221.039161
1526.430286	229.466434
1528.355767	240.706294
1530.280819	252.377622
1532.205442	265.100000
1534.129636	281.211888
1536.051583	301.534965
1537.974919	325.278322
1539.896010	354.900000
1541.814856	388.742657
1543.735092	431.807692
1545.653084	487.866434
1547.570650	561.764336
1549.485974	652.900699
1551.402688	764.523077
1553.315347	891.526573
1555.231210	1031.373427
1557.144833	1173.680420
1559.056219	1312.208392
1560.968993	1425.667133
1562.877718	1513.538462
1564.787833	1561.381818
1566.697523	1570.021678
1568.606791	1538.341958
1570.513825	1471.877622
1572.418626	1378.753147
1574.324816	1266.746853
1576.228774	1143.275524
1578.132312	1020.266434
1580.035428	897.106294
1581.936316	786.844755
1583.838591	683.988811
1585.738639	600.993706
1587.640074	529.487413
1589.537476	472.844056
1591.434459	429.230769
1593.331024	397.006294
1595.228977	373.901399
1597.121095	356.197203
1599.016406	341.187413
1600.911300	330.449650
1602.803972	318.666434
1604.696228	308.539161
1606.586263	294.698601
1608.475884	281.883217
1610.365088	267.321678
1612.253878	253.891608
1614.140450	241.016084
1616.028410	224.879021
1617.912353	212.458741
1619.797684	206.520280
1621.682600	198.101399
1623.565303	191.560839
1625.449393	183.481119
1627.329472	176.504196
1629.210937	173.514685
1631.090192	168.388112
1632.970833	163.307692
1634.845670	160.257343
1636.725489	153.660839
1638.601302	145.765035
1640.476705	143.721678
1642.353495	144.141259
1644.224487	141.669930
1646.098661	139.399301
1647.968837	138.936364
1649.842193	139.328671
1651.713346	140.012587
1653.582297	138.938462
1655.452634	136.944755
1657.318977	136.176923
1659.186706	134.539860
1661.052237	131.832867
1662.919152	130.611888
1664.782079	131.383217
1666.646391	130.747552
1668.508507	131.465734
1670.370219	133.718182
1672.233315	134.888811
1674.094217	134.446154
1675.952925	136.967832
1677.811230	133.445455
1679.670920	132.216783
1681.524843	132.458042
1683.381938	127.862238
1685.238631	123.796503
1687.091348	123.912587
1688.947235	120.983217
1690.799149	121.373427
1692.650662	121.412587
1694.501774	123.227273
1696.352486	122.552448
1698.202797	123.954545
1700.050924	122.109790
1701.900434	121.461538
1703.744196	122.662238
1705.592907	118.576224
1707.435873	116.339161
1709.282004	119.473427
1711.124174	119.552448
1712.969508	119.352448
1714.809102	119.628671
1716.650080	121.382517
1718.492441	120.541958
1720.330846	122.324476
1722.170634	122.194406
1724.008247	125.440559
1725.845464	126.436364
1727.680508	126.874126
1729.516935	129.134266
1731.351190	129.748951
1733.185050	126.748252
1735.018517	123.576923
1736.848037	119.551748
1738.680716	117.228671
1740.509451	115.133566
1742.341344	112.188811
1744.169294	110.120979
1745.996852	109.512587
1747.824018	107.177622
1749.650793	109.135664
1751.477177	109.460839
1753.299623	108.228671
1755.125225	108.362937
1756.946892	110.536364
1758.769941	112.560839
1760.590828	114.804895
1762.411327	113.542657
1764.233207	112.155944
1766.049387	112.893007
1767.868719	111.987413
1769.684124	109.351748
1771.502679	110.024476
1773.317309	108.372727
1775.131553	105.486014
1776.945409	104.673427
1778.758879	103.357343
1780.570196	103.653846
1782.382894	103.554545
1784.195205	102.174126
1786.003599	105.078322
1787.813373	107.473427
1789.619233	111.470629
1791.428238	111.718182
1793.233330	115.210490
1795.039803	114.581818
1796.845892	115.506294
1798.648071	115.682517
1800.453393	112.951049
1802.254807	110.180420
1804.057601	108.693007
1805.856489	105.505594
1807.656758	104.973427
1809.456645	104.997902
1811.254391	106.338462
1813.051755	107.304895
1814.848740	111.376224
1816.645344	113.125175
1818.439809	118.297902
1820.235653	118.793706
1822.025843	119.380420
1823.820928	116.230070
1825.610362	113.204895
1827.402932	111.044056
1829.193367	109.282517
1830.981668	108.525874
1832.773104	107.819580
1834.558894	108.290909
1836.346064	109.838462
1838.131102	107.706294
1839.919274	109.962238
1841.703560	111.554545
1843.485717	115.459441
1845.269252	111.661538
1847.050659	108.825175
1848.833445	105.434266
1850.612350	105.272028
1852.392635	103.617483
1854.170793	102.611888
1855.950330	102.883916
1857.727742	103.925874
1859.503030	101.787413
1861.279697	103.469231
1863.054240	107.727273
1864.830162	111.984615
1866.600463	112.233566
1868.373892	112.825874
1870.145201	112.346853
1871.916140	113.474825
1873.688455	111.527972
1875.455157	112.706993
1877.224985	111.906993
1878.990949	112.632168
1880.760037	111.744755
1882.525263	111.948951
1884.290120	114.241259
1886.056355	115.365734
1887.818731	114.186713
1889.580740	113.094406
1891.342381	109.893706
1893.103656	108.632168
1894.864563	106.179021
1896.625104	106.849650
1898.383535	105.337063
1900.141601	107.604895
1901.897558	107.508392
1903.654892	108.724476
1905.411861	109.594406
1907.166724	109.602098
1908.919481	107.354545
1910.671875	104.463636
1912.425644	102.100000
1914.177310	103.160140
1915.926874	101.238462
1917.677813	102.852448
1919.428390	101.460839
1921.175127	101.181818
1922.923241	98.910490
1924.669255	97.219580
1926.416645	97.428671
1928.161936	97.309091
1929.905130	97.637762
1931.649699	99.185315
1933.392173	100.611189
1935.134286	105.239860
1936.876039	107.865734
1938.617433	111.010490
1940.356732	110.169231
1942.095673	110.728671
1943.834256	109.311189
1945.570746	109.384615
1947.306879	110.479021
1949.044386	110.564336
1950.778071	110.204196
1952.513131	109.379021
1954.246103	105.509091
1955.978718	105.100699
1957.710976	103.871329
1959.442878	100.522378
1961.172694	96.548252
1962.900425	95.947552
1964.629531	98.330070
1966.358282	101.054545
1968.084949	102.809091
1969.811262	106.727273
1971.538948	108.195105
1973.261098	109.824476
1974.986349	111.333566
1976.707794	114.018881
1978.432338	116.581119
1980.154803	116.941958
1981.873464	114.769231
1983.595224	113.761538
1985.313182	114.150350
1987.032513	113.718182
1988.748045	111.012587
1990.468397	111.241958
1992.184951	108.838462
1993.897708	108.553147
1995.613562	108.020979
1997.327342	110.865734
1999.040773	112.367133
2000.752133	114.808392
2002.464866	112.173427
2004.173807	111.138462
2005.885842	111.290210
2007.592367	109.662937
2009.301985	106.888112
2011.009535	107.348252
2012.716738	107.795804
2014.421875	111.872727
2016.126665	110.056643
2017.832827	113.179021
2019.535207	114.348252
2021.238959	115.774825
2022.940647	114.111189
2024.641991	114.437063
2026.342989	113.330070
2028.041927	109.290210
2029.742235	106.922378
2031.438769	109.500000
2033.136674	109.000699
2034.832520	110.541958
2036.531452	105.484615
2038.224898	108.507692
2039.919715	107.214685
2041.614190	106.572727
2043.304896	104.152448
2044.998686	104.398601
2046.688709	102.796503
2048.380103	100.865035
2050.069444	103.018881
2051.760155	108.625175
2053.447103	105.627972
2055.133712	106.205594
2056.821691	107.034266
2058.505910	109.006294
2060.191499	106.760839
2061.876749	104.491608
2063.559951	101.200699
2065.244522	99.939860
2066.923631	97.309790
2068.607525	98.768531
2070.285959	101.879021
2071.967469	102.453147
2073.645229	100.237063
2075.322651	101.820280
2077.001443	104.190909
2078.678193	105.397203
2080.352901	106.688811
2082.028978	106.025874
2083.703015	103.483217
2085.376716	101.813287
2087.050082	99.026573
2088.721410	99.255245
2090.392403	97.139860
2092.063062	94.203497
2093.733386	94.711888
2095.403377	95.947552
2097.071332	99.070629
2098.738954	101.892308
2100.404541	103.632867
2102.071498	108.061538
2103.736420	106.291608
2105.401011	106.928671
2107.063570	102.745455
2108.727497	102.218881
2110.389394	103.230070
2112.050959	101.783217
2113.712193	101.138462
2115.371399	102.686014
2117.030274	105.249650
2118.688820	106.518881
2120.347036	106.819580
2122.001528	111.011189
2123.659085	107.468531
2125.316313	103.860140
2126.969819	102.255944
2128.624693	104.309790
2130.275849	104.053147
2131.930066	103.231469
2133.580567	103.154545
2135.232434	106.692308
2136.878893	106.021678
2138.530107	105.237063
2140.177607	102.956643
2141.826474	100.462238
2143.473323	97.452448
2145.119845	96.816783
2146.766042	98.739860
2148.408531	102.756643
2150.054078	103.358042
2151.695918	106.215385
2153.340815	107.755245
2154.982007	109.920280
2156.622875	109.558042
2158.263419	107.087413
2159.901951	105.511189
2161.541849	103.411189
2163.178047	103.656643
2164.815612	105.190909
2166.452853	103.669231
2168.088085	106.428671
2169.722996	106.111189
2171.357585	107.611189
2172.991852	109.922378
2174.622426	110.335664
2176.256052	109.435664
2177.885986	107.130070
2179.517285	108.262238
2181.146579	110.393007
2182.775554	107.535664
2184.404210	105.849650
2186.032546	102.339161
2187.658879	105.151049
2189.284894	105.653846
2190.908908	104.602797
2192.534286	104.548951
2194.157665	102.872028
2195.782407	100.882517
2197.403469	101.675524
2199.024214	101.509790
2200.646324	106.055944
2202.266436	101.633566
2203.884551	101.096503
2205.502351	102.316783
2207.119836	104.702797
2208.737005	101.755944
2210.353859	101.347552
2211.970398	101.626573
2213.584943	101.295804
2215.197496	101.504895
2216.811413	101.649650
2218.423339	99.940559
2220.036628	101.081119
2221.647927	97.309091
2223.257236	98.274126
2224.867909	100.382517
2226.476593	100.593706
2228.084965	100.608392
2229.691349	103.714685
2231.299097	103.472028
2232.904858	105.785315
2234.510308	105.628671
2236.113773	105.751049
2237.718601	104.086014
2239.321445	106.350350
2240.922307	104.318881
2242.524530	105.709790
2244.124772	105.223776
2245.726376	104.145455
2247.324328	103.717483
2248.923642	103.931469
2250.520976	103.002797
2252.118001	107.955944
2253.716389	107.383916
2255.311128	112.240559
2256.903890	113.759441
2258.498015	116.771329
2260.093501	113.095105
2261.685343	112.318182
2263.276878	107.596503
2264.869774	107.070629
2266.457361	104.280420
2268.049645	102.434266
2269.636621	102.050350
2271.226626	107.376923
2272.811326	104.094406
2274.400719	106.927273
2275.984811	106.290210
2277.570264	103.844755
2279.153747	101.016783
2280.740257	100.595804
2282.323133	100.184615
2283.905705	102.677972
2285.487974	102.525175
2287.066614	103.315035
2288.648277	105.453147
2290.226312	108.750699
2291.807370	105.918881
2293.384801	106.856993
2294.960269	105.402098
2296.538759	104.398951
2298.113625	100.925175
2299.688190	102.861888
2301.262455	102.361538
2302.836419	102.602448
2304.410083	102.177622
2305.983446	102.725874
2307.553191	103.509790
2309.122637	104.201399
2310.695101	101.769930
2312.262291	101.976923
2313.832499	102.572727
2315.399092	103.590909
2316.967045	102.120979
2318.533042	104.288112
2320.098742	102.106294
2321.664145	105.334965
2323.227593	113.969930
2324.792401	121.435664
2326.353601	122.966434
2327.917815	125.429371
2329.476767	123.823776
2331.038734	126.182517
2332.598750	123.230769
2334.158470	118.493706
2335.716241	111.912587
2337.273717	104.155944
2338.830899	96.917483
2340.386134	99.592308
2341.941074	101.434965
2343.495721	100.483916
2345.050074	97.823776
2346.604133	100.071329
2348.157898	102.560839
2349.709720	107.139860
2351.259598	107.906993
2352.812484	109.614685
2354.360128	109.669930
2355.910779	110.344056
2357.457839	108.686713
2359.006258	109.172727
2360.554384	106.018182
2362.098922	106.939161
2363.644818	104.076923
2365.188776	105.397902
2366.734091	105.863636
2368.275821	109.531469
2369.818908	108.583916
2371.360060	109.323776
2372.900922	112.560140
2374.441495	111.913287
2375.981778	111.720280
2377.521773	112.262937
2379.058190	110.200000
2380.597608	109.439161
2382.133449	106.286014
2383.670646	107.597203
2385.204268	106.406993
2386.740891	110.463636
2388.275582	110.137762
2389.808344	114.523776
2391.340819	118.234965
2392.871367	117.027273
2394.404912	119.491608
2395.933245	118.123776
2397.462936	117.029371
2398.992341	119.642657
2400.521460	119.614685
2402.050295	121.482517
2403.573924	120.105594
2405.102190	123.841958
2406.625252	124.208392
2408.152948	123.995105
2409.673805	123.493706
2411.199295	125.199301
2412.721224	127.681818
2414.244509	128.827972
2415.765873	133.218182
2417.285317	138.692308
2418.806116	138.381119
2420.324996	139.276923
2421.843594	140.881119
2423.360275	140.939161
2424.878310	137.869930
2426.396064	137.843357
2427.910267	137.865035
2429.424189	138.176923
2430.937831	138.858741
2432.452828	139.488112
2433.964276	139.020280
2435.477079	140.625175
2436.987968	138.646853
2438.498579	139.911189
2440.007278	141.934965
2441.518963	141.184615
2443.027105	139.569930
2444.534969	140.985315
2446.042555	140.305594
2447.546600	138.085315
2449.053631	138.525874
2450.558753	139.122378
2452.063598	136.362238
2453.566535	137.153846
2455.069197	134.804895
2456.571582	136.734266
2458.072062	134.006294
2459.573895	133.342657
2461.073824	130.120979
2462.573477	127.666434
2464.072854	126.045455
2465.570329	121.982517
2467.065902	121.620280
2468.564455	121.117483
2470.059480	120.696503
2471.555858	123.516084
2473.048708	121.274126
2474.542912	121.529371
2476.036842	119.196503
2477.527248	120.300699
2479.020632	122.173427
2480.512118	121.582517
2482.001707	123.542657
2483.491024	124.885315
2484.978446	128.374126
2486.468843	129.813986
2487.955721	132.553147
2489.443951	131.819580
2490.928665	126.324476
2492.413108	124.203497
2493.898903	121.492308
2495.382805	120.050350
2496.868059	119.079720
2498.348178	118.065734
2499.831271	115.232867
2501.312473	113.901399
2502.793406	114.921678
2504.272450	112.304196
2505.751225	111.203497
2507.229732	111.196503
2508.707971	112.798601
2510.185941	117.351049
2511.660407	117.574825
2513.137841	120.015385
2514.611772	122.851049
2516.087053	123.742657
2517.562068	120.053846
2519.033581	120.862937
2520.506444	123.106294
2521.977425	120.281818
2523.449756	119.385315
2524.916974	122.423776
2526.387157	122.830070
2527.855460	124.103497
2529.323498	121.558042
2530.791271	120.511888
2532.258779	116.139860
2533.726022	113.863636
2535.189773	111.529371
2536.654874	112.411189
2538.118098	114.881818
2539.582672	117.227273
2541.043756	120.959441
2542.506190	126.583916
2543.968361	129.055944
2545.427046	133.020979
2546.890303	134.769231
2548.348463	134.669930
2549.807972	132.868531
2551.262388	134.032867
2552.721373	133.158741
2554.178487	134.608392
2555.633730	133.906294
2557.088712	135.188811
2558.541824	136.913986
2559.996285	139.465035
2561.448877	142.046853
2562.901209	143.674825
2564.351673	146.197902
2565.805093	148.209091
2567.253431	146.728671
2568.704725	146.095105
2570.154152	147.371329
2571.600107	148.429371
2573.049018	146.344755
2574.494457	146.879720
2575.941245	147.451748
2577.386169	148.587413
2578.830835	148.135664
2580.276850	145.327273
2581.719397	146.918182
2583.163292	148.526573
2584.603722	147.502098
2586.045499	150.588811
2587.485417	155.176224
2588.926682	161.642657
2590.364486	163.447552
2591.805239	167.557343
2593.240929	171.067133
2594.679569	172.247552
2596.116352	172.178322
2597.551278	170.195804
2598.989153	170.002797
2600.421969	170.741958
2601.856133	170.192308
2603.288443	173.267133
2604.722099	178.689510
2606.153902	184.157343
2607.585452	185.402098
2609.016748	190.164336
2610.446192	194.428671
2611.875384	197.436364
2613.302726	201.316084
2614.731414	203.459441
2616.159849	205.540559
2617.584837	209.190909
2619.011172	211.439161
2620.435658	217.983916
2621.861490	223.534965
2623.283878	228.237063
2624.707612	230.565035
2626.129499	234.843357
2627.551137	239.500000
2628.970929	247.026573
2630.392067	257.627273
2631.812955	265.318881
2633.230405	271.658741
2634.650794	277.632168
2636.067746	283.472727
2637.484449	291.518881
2638.900905	298.149650
2640.317111	302.239860
2641.733070	307.539161
2643.147188	313.576923
2644.561059	323.932867
2645.973090	334.762238
2647.386466	344.117483
2648.796412	351.613287
2650.209293	359.932867
2651.618746	369.233566
2653.027954	377.768531
2654.435324	384.476224
2655.845630	390.422378
2657.254099	392.767133
2658.660733	398.701399
2660.067122	403.765035
2661.471677	409.577622
2662.877576	412.469231
2664.281642	417.842657
2665.685463	425.618881
2667.089041	433.221678
2668.490786	443.116084
2669.893875	446.537762
2671.293546	453.920979
2672.694561	461.511888
2674.092160	464.553147
2675.492689	469.142657
2676.889803	472.852448
2678.288260	476.110490
2679.684889	477.120979
2681.081276	477.941958
2682.477422	475.878322
2683.871741	476.329371
2685.267403	471.933566
2686.659655	468.655245
2688.053250	468.025175
2689.445022	463.693007
2690.838135	458.406993
2692.229425	455.406993
2693.618892	449.893706
2695.008119	442.047552
2696.397107	433.446853
2697.787437	427.098601
2699.172782	421.151748
2700.561051	415.988112
2701.947500	409.011189
2703.333710	403.002098
2704.719682	395.138462
2706.102254	390.864336
2707.486169	385.225874
2708.869846	377.671329
2710.253285	368.297203
2711.633328	357.438462
2713.014713	348.904895
2714.394282	339.732168
2715.775193	328.956643
2717.154288	317.036364
2718.531570	306.364336
2719.910193	292.014685
2721.287003	283.890210
2722.663577	273.767133
2724.039915	263.446853
2725.414441	256.158741
2726.790308	249.287413
2728.162788	241.606993
2729.538184	236.560140
2730.908620	227.800699
2732.280397	221.258042
2733.651939	218.266434
2735.021673	210.979720
2736.392748	205.280420
2737.762014	198.662937
2739.131048	189.894406
2740.498274	184.494406
2741.865268	177.937762
2743.232029	174.647552
2744.598557	169.595105
2745.963280	167.333566
2747.327772	160.230070
2748.692031	159.365035
2750.056058	158.707692
2751.419854	156.284615
2752.780276	155.088811
2754.143609	153.376224
2755.501999	153.396503
2756.863299	150.486713
2758.221228	145.840559
2759.582067	145.072727
2760.941105	142.972727
2762.296775	141.413287
2763.655353	136.813287
2765.010564	136.662937
2766.365547	136.267832
2767.718732	135.922378
2769.074824	133.309790
2770.427552	132.563636
2771.780051	134.107692
2773.132322	131.881818
2774.485932	130.234266
2775.836180	127.234965
2777.184635	128.033566
2778.535994	125.786713
2779.883994	125.337063
2781.233332	125.116084
2782.580879	123.514685
2783.928198	121.395804
2785.275291	118.245455
2786.620593	118.541958
2787.965669	119.242657
2789.310518	117.358741
2790.655142	113.289510
2791.996414	108.639860
2793.339024	109.956643
2794.681408	110.533566
2796.023568	112.855245
2797.362378	116.145455
2798.704087	117.993007
2800.042449	120.111189
2801.382148	120.434965
2802.720061	120.949650
2804.056190	119.225175
2805.392095	117.155245
2806.729338	113.616783
2808.064797	113.699301
2809.400033	113.305594
2810.733486	113.272727
2812.068277	114.068531
2813.399726	114.363636
2814.734071	111.179021
2816.063518	110.925175
2817.394302	109.165035
2818.724864	107.707692
2820.053647	107.215385
2821.383766	107.844755
2822.712107	110.290909
2824.040227	113.306993
2825.366569	112.311189
2826.694248	113.356643
2828.018593	114.524476
2829.344275	113.292308
2830.668181	111.613287
2831.991868	111.306294
2833.316890	107.560839
2834.638582	107.655944
2835.960056	106.599301
2837.281311	108.753846
2838.602347	108.714685
2839.921611	109.297902
2841.242210	107.557343
2842.561037	105.881818
2843.879646	107.891608
2845.196484	106.673427
2846.513105	104.853846
2847.829509	103.921678
2849.144144	101.690909
2850.460113	104.461538
2851.772762	104.132168
2853.086747	107.747552
2854.400514	105.173427
2855.714066	106.093706
2857.025850	105.504895
2858.335868	105.192308
2859.647221	103.970629
2860.955259	100.123077
2862.264632	98.590909
2863.573789	98.483217
2864.882731	97.914685
2866.189909	99.083916
2867.495325	101.217483
2868.802075	103.553147
2870.107062	104.110490
2871.411836	108.353147
2872.714848	107.960839
2874.020742	106.640559
2875.321780	102.431469
2876.624153	102.543357
2877.924766	102.406993
2879.226713	102.137762
2880.528447	103.099301
2881.826876	102.479021
2883.126640	103.286014
2884.424645	102.708392
2885.722439	104.509091
2887.018477	106.161538
2888.315848	103.414685
2889.611463	101.881119
2890.906867	100.866434
2892.202061	101.828671
2893.493956	100.511189
2894.788728	102.242657
2896.080203	101.473427
2897.373011	101.393706
2898.665609	102.062238
2899.954913	105.145455
2901.245549	106.248951
2902.534434	108.057343
2903.824652	104.961538
2905.111577	102.746154
2906.399836	102.371329
2907.686344	102.798601
2908.972645	102.016783
2910.258737	101.849650
2911.543081	100.564336
2912.830296	103.148951
2914.112685	104.483916
2915.396406	107.812587
2916.678381	108.116783
2917.960148	110.138462
2919.240171	105.388112
2920.523063	105.907692
2921.804210	107.402797
2923.082075	107.530070
2924.362809	106.302797
2925.640262	103.503497
2926.917509	101.659441
2928.193015	102.174126
2929.471388	101.230769
2930.744946	99.913986
2932.021372	101.243357
2933.296057	101.018881
2934.569002	98.083916
2935.843277	98.134965
2937.115813	99.734266
2938.388145	99.509091
2939.657203	98.379021
2940.929127	97.859441
2942.199313	96.693706
2943.469296	96.406294
2944.739075	95.062238
2946.007117	95.876923
2947.273424	96.496503
2948.539528	97.052448
2949.806962	96.393706
2951.072662	94.333566
2952.338159	94.826573
2953.603454	94.443357
2954.865484	94.367832
2956.128845	94.559441
2957.392003	92.030070
2958.653430	91.555245
2959.916186	95.685315
2961.177211	99.435664
2962.436504	99.012587
2963.695598	102.483217
2964.954491	99.197203
2966.213184	95.570629
2967.471677	93.355245
2968.728441	93.353147
2969.985005	92.486014
2971.239842	90.842657
2972.496007	88.789510
2973.748918	90.781818
2975.003158	91.903497
2976.257199	92.511888
2977.509514	89.509091
2978.761631	89.176923
2980.012022	85.051748
2981.265269	82.816084
2982.513739	82.786014
2983.765064	83.339860
2985.013139	83.534266
2986.261018	84.103497
2987.508699	85.052448
2988.756184	88.212587
2990.001946	88.635664
2991.247513	89.298601
2992.494407	86.788811
2993.738057	88.032168
2994.983035	87.998601
2996.224769	89.347552
2997.469355	88.517483
2998.712222	89.192308
2999.951848	89.609091
3001.194324	87.621678
3002.433561	87.945455
3003.674125	90.046853
3004.912972	91.527972
3006.151625	90.965734
3007.388562	93.094406
3008.626826	95.595105
3009.863376	95.881119
3011.099731	96.025175
3012.335893	93.861538
3013.570342	94.422378
3014.804597	91.521678
3016.038659	89.499301
3017.271009	89.114685
3018.501647	85.682517
3019.735131	85.411888
3020.966903	84.066434
3022.196965	82.048951
3023.426835	81.951748
3024.654995	83.354545
3025.884481	83.185315
3027.112259	81.193706
3028.339845	81.518182
3029.568757	81.156643
3030.792927	83.029371
3032.019940	82.420280
3033.243729	81.506993
3034.468845	83.417483
3035.692254	82.341259
3036.915473	80.593007
3038.136987	86.287413
3039.361343	88.735664
3040.580962	90.486713
3041.801908	88.025874
3043.022665	88.748252
3044.241718	86.171329
3045.462097	83.563636
3046.679259	82.219580
3047.897746	82.637063
3049.114531	81.814685
3050.331129	81.269930
3051.547538	82.246853
3052.760735	87.583916
3053.976769	87.430070
3055.189591	90.495105
3056.405250	89.327273
3057.616186	88.824476
3058.828447	83.951748
3060.040522	83.702797
3061.252410	82.363636
3062.462600	79.486014
3063.672604	77.765385
3064.882423	78.300699
3066.090545	81.192657
3067.298481	83.868531
3068.504723	82.463986
3069.712288	82.502098
3070.918160	82.242308
3072.123846	82.084615
3073.329347	78.077972
3074.533155	80.937063
3075.738287	75.447902
3076.941727	71.128671
3078.143474	71.354895
3079.345038	75.516084
3080.546417	77.309091
3081.747614	79.013287
3082.947119	79.061538
3084.146442	79.170629
3085.347088	80.004196
3086.546044	79.423077
3087.741806	75.875524
3088.940397	78.496503
3090.135794	74.965035
3091.332514	75.244755
3092.526042	76.814685
3093.722398	82.018182
3094.917068	79.822378
3096.108547	82.607692
3097.304357	79.526573
3098.495474	79.925874
3099.687913	79.369231
3100.877165	79.995804
3102.069243	80.100699
3103.259636	82.807692
3104.446844	80.774825
3105.635375	80.110490
3106.825228	81.616084
3108.011896	85.469930
3109.198385	83.063636
3110.384694	84.823776
3111.572325	81.930070
3112.756775	83.227273
3113.939544	83.695804
3115.125136	84.952448
3116.309049	82.462937
3117.491283	81.746853
3118.673338	76.794406
3119.855216	74.383217
3121.036915	75.547552
3122.216936	78.418182
3123.395281	76.634965
3124.576447	76.738462
3125.754437	76.976224
3126.932250	78.666434
3128.109886	79.009091
3129.285847	76.684615
3130.461631	73.642657
3131.638737	74.141259
3132.814168	73.104196
3133.987926	73.749650
3135.160012	77.162238
3136.333418	79.230070
3137.506649	77.506993
3138.678207	77.763636
3139.851086	79.510490
3141.020799	79.823776
3142.191831	77.290909
3143.361194	75.168531
3144.528887	73.348951
3145.699395	74.805594
3146.865244	76.004196
3148.035403	77.616783
3149.200904	81.004895
3150.366232	82.588112
3151.531386	83.420280
3152.696366	84.041259
3153.862667	82.790210
3155.024314	80.420280
3156.187282	78.052448
3157.350076	77.248252
3158.512698	75.028671
3159.673655	76.393706
3160.834439	75.951748
3161.995051	76.941259
3163.154000	78.471329
3164.312776	79.165035
3165.471381	77.036364
3166.629814	77.260839
3167.788075	74.534965
3168.944674	72.837063
3170.099612	71.545455
3171.255869	69.580420
3172.410466	70.085315
3173.564891	71.094406
3174.717657	71.774825
3175.870253	72.702797
3177.022678	73.047552
3178.174934	74.134266
3179.327019	74.753846
3180.475959	77.951049
3181.627705	76.031469
3182.777793	76.400699
3183.926225	76.021678
3185.074488	76.931469
3186.222581	77.774126
3187.370506	79.111189
3188.516776	81.081119
3189.662877	82.845455
3190.807323	84.508392
3191.951602	85.796503
3193.095713	84.299301
3194.241142	85.656643
3195.383431	84.200000
3196.525554	84.221678
3197.667509	84.906294
3198.809298	87.513986
3199.950919	86.672028
3201.089404	90.421678
3202.229207	91.344056
3203.370328	92.629371
3204.508314	92.327273
3205.644651	88.348252
3206.780822	87.755245
3207.918311	92.195105
3209.054150	88.890909
3210.191307	87.129371
3211.323851	86.662238
3212.460677	86.569231
3213.592891	84.513986
3214.726422	85.538462
3215.859789	86.228671
3216.990028	89.965734
3218.123065	89.330070
3219.252976	87.867133
3220.384203	89.841958
3221.512306	93.536364
3222.643205	90.406993
3223.772460	89.887413
3224.900072	87.768531
3226.024562	85.319580
3227.153326	80.402797
3228.278970	79.506993
3229.404450	79.995804
3230.528289	80.602797
3231.654922	76.258042
3232.776958	74.518182
3233.900310	75.516783
3235.023500	76.541958
3236.146528	75.086014
3237.267916	75.320280
3238.389143	76.358741
3239.508731	74.548951
3240.628158	71.980420
3241.745947	72.647552
3242.866529	74.705594
3243.983996	75.732168
3245.101303	76.580420
3246.218450	77.644056
3247.333961	77.487413
3248.450787	76.295804
3249.564502	73.479021
3250.681007	74.522378
3251.795878	73.488112
3252.907640	68.230769
3254.019243	64.839161
3255.132160	65.141259
3256.244919	65.027273
3257.354571	63.272028
3258.465537	61.309091
3259.576345	64.155245
3260.685522	64.665035
3261.793067	67.846853
3262.901926	68.744755
3264.010628	71.556643
3265.116227	69.706993
3266.223140	68.894406
3267.328424	70.060839
3268.435023	70.751748
3269.538521	70.348951
3270.643333	70.359441
3271.747988	69.955944
3272.849544	73.172727
3273.950945	73.063636
3275.053659	78.082517
3276.156216	76.545455
3277.255677	75.515385
3278.357922	73.517483
3279.457071	75.180420
3280.554596	74.001399
3281.651965	73.346154
3282.752117	72.811888
3283.849175	73.009091
3284.946078	71.616084
3286.042826	69.754545
3287.135016	69.784615
3288.231454	69.912587
3289.326270	66.102797
3290.420932	68.387413
3291.513972	66.351049
3292.606858	68.225175
3293.698123	65.800699
3294.790701	65.125175
3295.881658	62.771329
3296.970996	64.897902
3298.060181	63.640559
3299.150679	64.796503
3300.238092	62.794406
3301.325353	60.304895
3302.413926	60.842657
3303.502346	61.138462
3304.586219	60.300699
3305.674334	61.625874
3306.759368	61.464336
3307.842785	58.112587
3308.927515	58.164336
3310.010630	58.381818
3311.095056	58.942657
3312.176404	62.106294
3313.259064	61.858042
3314.340110	62.762238
3315.421005	64.205594
3316.500286	67.160140
3317.579418	69.510490
3318.659860	72.480420
3319.737229	73.205594
3320.815908	72.301399
3321.892977	69.695105
3322.969895	66.600000
3324.045202	65.504196
3325.120360	62.972028
3326.196829	60.414685
3327.270228	58.723077
3328.343478	58.572727
3329.418038	60.586014
3330.490990	61.259441
3331.562333	65.567133
3332.634988	67.118182
3333.704575	67.447552
3334.775473	65.293706
3335.844764	68.750350
3336.915366	65.047552
3337.984361	65.363636
3339.051750	65.560140
3340.117534	67.082517
3341.187544	67.665035
3342.254491	69.091608
3343.318376	70.100699
3344.385029	69.947552
3345.450077	66.255944
3346.513522	63.914685
3347.576821	62.616084
3348.639973	62.910490
3349.702979	56.809790
3350.765839	57.357343
3351.827097	57.289510
3352.885298	59.835664
3353.947720	57.468531
3355.007085	57.125874
3356.066305	56.131469
3357.126835	56.083217
3358.182855	57.780420
3359.241640	60.120280
3360.295917	61.659441
3361.352957	64.032168
3362.408400	61.944755
3363.465151	63.032168
3364.520304	64.072727
3365.573861	64.071329
3366.625820	60.100000
3367.680541	60.121678
3368.732213	62.313287
3369.783742	63.662937
3370.836579	64.052448
3371.886369	64.295105
3372.937468	65.132168
3373.985521	65.495105
3375.036334	63.716783
3376.084101	65.168531
3377.131726	62.620979
3378.179208	60.330070
3379.225098	60.013986
3380.272296	58.974126
3381.316452	58.876224
3382.363366	58.369231
3383.408688	56.793706
3384.450969	58.169231
3385.493110	59.124476
3386.536558	61.809091
3387.579866	63.768531
3388.621583	64.996503
3389.663159	63.095105
3390.704595	61.928671
3391.744441	60.839860
3392.782700	58.258042
3393.822266	57.397203
3394.861691	57.716084
3395.899529	57.464336
3396.935780	57.734965
3397.971892	58.773427
3399.009311	62.970629
3400.043697	63.460839
3401.079390	61.908392
3402.114944	62.453147
3403.147467	63.795105
3404.182743	62.808392
3405.214988	62.855944
3406.247095	63.288811
3407.277618	65.358741
3408.309448	66.520979
3409.341140	65.709091
3410.369805	68.085315
3411.398331	69.392308
3412.428165	67.444755
3413.457860	68.480420
3414.484530	71.028671
3415.512507	71.101399
3416.537459	69.305594
3417.565161	68.362937
3418.589840	66.591608
3419.615825	66.913986
3420.640230	64.873427
3421.664499	61.952448
3422.687189	62.045455
3423.709743	59.209091
3424.733603	60.259441
3425.754443	61.988811
3426.775148	62.223477
3427.797158	62.037537
3428.816150	61.270330
3429.835007	59.761189
3430.855169	57.349451
3431.872315	53.874451
