-118.448435	17.748626
-115.778835	10.924176
-113.112170	6.442208
-110.446257	3.957443
-107.783276	3.124600
-105.118866	3.598402
-102.457386	5.033566
-99.794476	9.046154
-97.136674	11.435664
-94.477441	12.216783
-91.818958	10.239161
-89.163398	7.469930
-86.506410	5.893007
-83.854519	4.322378
-81.201199	2.734266
-78.550799	4.301399
-75.898969	3.985315
-73.252230	4.213986
-70.604061	3.210490
-67.956636	9.604895
-65.312124	9.813986
-62.666184	10.675524
-60.025325	7.721678
-57.383037	9.625874
-54.743657	11.461538
-52.102849	10.448252
-49.462781	8.030769
-46.827785	8.917483
-44.191360	9.488811
-41.557839	12.958042
-38.922889	16.506993
-36.293004	21.185315
-33.659527	21.265734
-31.031112	23.269930
-28.403430	23.341958
-25.774321	18.588811
-23.150268	-31.695105
-20.522626	-233.106993
-17.900037	-806.925874
-15.278180	-765.218881
-12.657053	588.034965
-10.036656	3248.725175
-7.419147	5624.714685
-4.800210	7303.581818
-2.184159	8267.918182
0.431164	8521.587413
3.045760	8058.641958
5.657473	6891.156643
8.270615	5053.800699
10.878723	2671.981119
13.490413	206.404196
16.097072	-1053.985315
18.705159	-947.888811
21.312522	-162.497203
23.914860	21.991608
26.520776	24.723077
29.121670	24.921678
31.723992	25.409091
34.321297	18.678322
36.922177	14.493007
39.518043	15.535664
42.115336	13.847552
44.711910	14.753147
47.303475	18.023776
49.896468	20.842657
52.486600	23.313986
55.078160	18.839161
57.666860	17.690210
60.256987	18.367832
62.842116	16.777622
65.428671	12.996503
68.014513	12.183217
70.597501	13.591608
73.181915	15.161538
75.759201	15.125874
78.340053	17.086713
80.918056	14.964336
83.495349	15.820979
86.074068	10.852448
88.647806	11.686713
91.222970	13.549650
93.795291	12.216783
96.366904	9.509790
98.935677	9.192308
101.505877	10.001399
104.073239	12.513986
106.642026	12.541958
109.207977	15.547552
111.771093	17.434965
114.337765	22.596503
116.895216	28.109790
119.458352	35.473427
122.016529	47.092308
124.578259	70.672028
127.135034	106.959441
129.693234	165.693007
132.246482	250.918881
134.799031	359.532168
137.355131	486.641958
139.906284	625.028671
142.456738	760.803497
145.006496	889.840559
147.553434	997.595804
150.099676	1079.720280
152.647344	1135.410490
155.194317	1169.566434
157.736353	1175.883916
160.277696	1177.063636
162.818346	1174.542657
165.360422	1168.040559
167.899687	1162.091608
170.436142	1155.637063
172.971907	1148.404196
175.509097	1143.272727
178.045595	1144.046853
180.579288	1143.167133
183.110178	1139.706993
185.640379	1141.148252
188.172005	1140.087413
190.700830	1144.565035
193.226856	1148.527972
195.752197	1153.443357
198.278962	1157.812587
200.802930	1155.132168
203.326214	1148.593706
205.848813	1144.060140
208.368619	1139.010490
210.887742	1132.726573
213.406182	1125.640559
215.926046	1124.814685
218.438909	1119.833566
220.955303	1121.417483
223.471015	1124.991608
225.981838	1127.648951
228.494085	1131.521678
231.003549	1130.476923
233.512335	1131.709091
236.020443	1135.267133
238.529974	1129.964336
241.034625	1128.542657
243.538601	1123.262937
246.044000	1125.573427
248.544524	1125.817483
251.048571	1135.541259
253.545648	1136.805594
256.046247	1136.266434
258.544075	1134.740559
261.041230	1138.625874
263.537712	1138.209790
266.029331	1139.793706
268.524470	1139.639161
271.016843	1136.458042
273.508545	1135.897203
275.997483	1140.752448
278.487846	1143.423077
280.975447	1147.908392
283.460288	1144.936364
285.948643	1147.600699
288.430059	1151.851748
290.914989	1160.853846
293.395074	1164.210490
295.878671	1172.971329
298.357425	1177.678322
300.837603	1182.109091
303.315028	1186.684615
305.791790	1191.091608
308.267889	1200.951049
310.741239	1219.713986
313.213927	1243.701399
315.685954	1270.304895
318.157320	1290.539161
320.625942	1298.687413
323.093904	1298.831469
325.563289	1292.226573
328.027850	1272.369231
330.495916	1256.536364
332.959162	1229.946853
335.421750	1207.253846
337.883682	1195.216084
340.344957	1194.894406
342.803498	1193.272028
345.263461	1194.385315
347.720691	1194.246154
350.177267	1197.479720
352.633189	1198.593706
355.086382	1200.255944
357.540996	1197.731469
359.990809	1199.686713
362.444119	1193.255944
364.892629	1187.860839
367.340489	1184.177622
369.789770	1185.241259
372.234258	1177.502098
374.680168	1172.832867
377.125429	1171.986713
379.567970	1172.808392
382.009864	1170.355944
384.451111	1172.332168
386.889642	1175.916084
389.329595	1176.952448
391.766834	1177.517483
394.201361	1176.406993
396.639376	1179.706294
399.072614	1182.569930
401.507274	1179.954545
403.937160	1179.647552
406.370532	1185.591608
408.799134	1191.239860
411.227095	1191.531469
413.656476	1191.616783
416.081092	1195.639161
418.507130	1195.236364
420.932527	1197.460140
423.357284	1195.447552
425.777283	1197.431469
428.198703	1196.236364
430.617426	1192.967832
433.037570	1190.081818
435.455019	1191.509091
437.873888	1183.926573
440.290064	1175.788811
442.701493	1175.015385
445.116398	1176.526573
447.528613	1175.900000
449.940194	1174.959441
452.351141	1176.984615
454.759402	1180.715385
457.167030	1176.340559
459.574027	1169.600699
461.980391	1164.260839
464.384073	1152.000000
466.787125	1134.406294
469.189547	1125.326573
471.591340	1119.725175
473.990454	1116.517483
476.390988	1113.231469
478.790893	1109.632867
481.186075	1114.502797
483.584724	1113.060140
485.978653	1108.217483
488.371956	1103.588811
490.764633	1097.454545
493.156685	1081.251049
495.550156	1068.274825
497.938914	1054.303497
500.325006	1041.586014
502.712518	1028.972028
505.099406	1015.074126
507.483631	1005.008392
509.869275	999.159441
512.252256	981.102797
514.632577	969.449650
517.014317	956.985315
519.393398	943.199301
521.773898	932.637762
524.151740	927.774825
526.526927	917.486014
528.901496	913.639860
531.277484	909.914685
533.650818	911.841958
536.025570	913.755944
538.395637	912.200699
540.765088	904.150350
543.135957	904.495804
545.502146	899.907692
547.869753	895.855944
550.234714	898.131469
552.599062	896.918881
554.962798	891.582517
557.327951	895.183916
559.688431	896.820979
562.050330	898.244056
564.409589	900.195105
566.766209	897.853147
569.126274	897.235664
571.479649	893.706993
573.836468	891.484615
576.190651	889.356643
578.544227	889.358042
580.897194	882.223776
583.247530	877.899301
585.599282	877.138462
587.944358	874.983217
590.294898	876.800000
592.638765	881.824476
594.988092	881.916783
597.332772	881.106993
599.674826	879.847552
602.018298	878.631469
604.359147	875.432867
606.699394	872.217483
609.037020	868.640559
611.378081	860.425175
613.714504	854.220280
616.052345	847.581818
618.387567	842.797902
620.720174	832.605594
623.054197	828.525175
625.385607	822.673427
627.716418	816.675524
630.046631	810.658042
632.376246	812.468531
634.701239	814.420979
637.031673	818.620280
639.357485	815.549650
641.680691	821.989510
644.005312	823.318182
646.327329	822.194406
648.648751	826.693007
650.967570	835.661538
653.287805	837.865734
655.607447	840.968531
657.924488	844.893007
660.240937	851.439161
662.554788	853.729371
664.870055	851.112587
667.182725	849.953846
669.496810	852.951049
671.806295	851.374126
674.117196	851.276923
676.425504	854.984615
678.733224	857.438462
681.042359	852.497902
683.346901	851.419580
685.650856	851.962238
687.954226	849.920979
690.259010	845.868531
692.559208	841.840559
694.860820	843.679720
697.161848	844.202098
699.458293	840.180420
701.756154	836.144056
704.053431	832.643357
706.350125	829.445455
708.642243	818.228671
710.937772	820.644056
713.228728	820.808392
715.521098	818.720979
717.810892	819.857343
720.100107	822.293706
722.388741	825.262937
724.674804	827.621678
726.962280	826.451748
729.247186	827.797902
731.531513	827.745455
733.813272	824.202098
736.096445	825.838462
738.379041	829.285315
740.657082	827.381818
742.936536	827.617483
745.215415	828.041259
747.493718	829.006993
749.767472	831.423776
752.042640	837.876224
754.317234	838.154545
756.589268	838.860140
758.862716	841.764336
761.133606	844.686713
763.401940	848.431469
765.671687	849.288811
767.938880	848.564336
770.205502	848.544755
772.471555	848.253846
774.735055	850.800000
776.999969	854.948252
779.264313	858.682517
781.524128	855.856643
783.785356	857.397203
786.046015	858.303497
788.304129	860.165734
790.559698	859.526573
792.818658	858.739161
795.071119	858.348951
797.328947	862.032867
799.582255	862.446853
801.833024	863.748951
804.085205	862.772727
806.334848	861.679021
808.585902	857.339860
810.832445	853.827972
813.080400	847.147552
815.325821	845.498601
817.572653	843.386713
819.818924	836.368531
822.060691	836.531469
824.305840	835.879720
826.544517	831.943357
828.786577	827.851748
831.024138	825.498601
833.263110	823.732168
835.499556	823.201399
837.737413	820.835664
839.972745	819.315385
842.205554	822.285315
844.439774	821.118881
846.671472	818.894406
848.902615	816.861538
851.133203	815.374126
853.363236	813.553846
855.592716	815.965734
857.817714	816.746154
860.046087	817.537063
862.269981	822.685315
864.495285	822.146853
866.716114	820.604895
868.940315	821.888811
871.160043	819.951748
873.381182	819.292308
875.601770	819.005594
877.819848	824.509790
880.039337	827.761538
882.254359	829.520979
884.468833	827.344056
886.682760	827.765734
888.896139	828.138462
891.108971	826.417483
893.321257	824.936364
895.531040	822.548951
897.740278	822.131469
899.948971	824.223776
902.155165	828.411888
904.362768	833.913287
906.567874	834.220979
908.772436	836.320979
910.974502	839.302797
913.177978	846.447552
915.378960	850.445455
917.579401	855.551049
919.781249	859.230070
921.976707	862.419580
924.175524	870.579720
926.369902	876.466434
928.567638	880.000699
930.760938	883.934266
932.955647	886.561538
935.147870	892.393706
937.339555	897.452448
939.530702	902.067133
941.719366	903.446154
943.907493	909.497902
946.093140	912.041259
948.282139	920.219580
950.466715	930.559441
952.650756	938.355944
954.838147	945.078322
957.017234	950.316783
959.199672	957.346154
961.381576	964.788112
963.561006	970.616783
965.737963	976.591608
967.916327	983.367133
970.096099	992.278322
972.269522	998.350350
974.446291	1007.639860
976.618653	1017.479021
978.792423	1026.114685
980.961789	1028.591608
983.134500	1028.990909
985.304744	1034.279021
987.474460	1038.468531
989.643647	1038.127972
991.808437	1043.861538
993.976568	1049.288811
996.140305	1057.132168
998.305448	1066.924476
1000.468133	1078.108392
1002.630291	1085.783217
1004.789993	1091.977622
1006.949171	1091.085315
1009.109755	1093.240559
1011.267884	1095.595105
1013.425489	1101.040559
1015.582571	1101.695105
1017.739130	1113.010490
1019.891309	1120.203497
1022.044894	1130.600699
1024.197958	1139.799301
1026.348574	1152.490909
1028.500595	1156.042657
1030.648243	1165.420280
1032.799223	1172.112587
1034.945832	1183.964336
1037.091923	1194.734266
1039.237494	1205.458741
1041.384471	1212.042657
1043.525159	1222.660839
1045.669177	1224.475524
1047.810754	1227.593706
1049.951815	1229.883217
1052.094280	1235.656643
1054.230466	1231.828671
1056.369978	1237.632867
1058.505134	1242.386713
1060.643615	1247.725175
1062.777742	1253.706294
1064.911356	1255.259441
1067.046375	1258.458042
1069.177044	1258.433566
1071.309118	1253.450350
1073.438763	1249.528671
1075.567896	1245.201399
1077.696517	1237.990909
1079.824627	1230.428671
1081.950311	1229.155944
1084.075485	1229.886014
1086.202063	1229.416783
1088.324304	1232.721678
1090.447948	1238.005594
1092.567259	1245.086713
1094.691798	1252.263636
1096.810092	1257.255944
1098.929791	1259.220979
1101.047071	1267.412587
1103.163845	1269.340559
1105.280112	1271.376224
1107.393964	1275.562937
1109.509219	1278.144755
1111.620152	1280.666434
1113.734396	1282.443357
1115.844320	1284.954545
1117.955648	1287.165734
1120.066471	1287.744056
1122.172979	1286.258741
1124.282795	1288.822378
1126.388297	1293.962937
1128.495202	1297.783217
1130.595892	1301.328671
1132.701794	1305.974825
1134.803387	1304.818881
1136.906383	1307.046154
1139.008878	1309.462937
1141.105166	1312.840559
1143.206662	1320.009790
1145.303855	1325.204895
1147.400549	1333.837063
1149.496745	1345.415385
1151.592444	1355.118881
1153.687645	1372.177622
1155.780449	1385.833566
1157.874655	1397.304895
1159.962670	1407.220280
1162.055883	1415.954545
1164.142908	1423.420979
1166.233232	1429.413287
1168.319269	1434.537762
1170.408603	1434.970629
1172.491756	1434.197902
1174.576311	1433.360140
1176.662268	1433.506294
1178.743943	1434.595804
1180.827020	1442.651049
1182.907711	1450.453846
1184.987910	1457.781818
1187.067618	1462.917483
1189.146835	1473.692308
1191.223670	1486.246154
1193.298124	1493.702797
1195.375870	1503.004895
1197.449345	1510.101399
1199.524221	1523.510490
1201.594830	1535.204196
1203.666841	1546.227273
1205.736475	1557.462238
1207.807510	1560.907692
1209.878057	1565.555245
1211.944343	1576.176923
1214.012030	1586.767832
1216.077345	1597.955944
1218.144060	1605.907692
1220.206519	1618.893007
1222.272263	1630.446154
1224.333754	1651.316084
1226.396644	1671.832168
1228.457167	1691.041958
1230.517206	1704.798601
1232.576763	1720.679720
1234.633954	1742.174126
1236.690664	1762.369930
1238.745011	1772.660839
1240.802638	1784.398601
1242.857903	1794.376923
1244.908927	1801.404196
1246.961351	1808.740559
1249.013295	1814.031469
1251.062881	1825.604895
1253.111988	1834.933566
1255.160617	1845.799301
1257.208767	1869.940559
1259.256439	1897.977622
1261.299880	1924.499301
1263.346596	1948.304196
1265.390959	1972.774825
1267.434846	1999.267832
1269.476382	2018.269231
1271.515567	2042.248252
1273.558026	2060.079021
1275.596262	2085.507692
1277.635897	2099.109790
1279.675057	2117.923776
1281.709998	2139.388811
1283.746339	2163.747552
1285.780334	2184.865734
1287.815728	2202.702098
1289.846908	2222.846154
1291.879487	2241.700000
1293.911593	2266.988112
1295.941359	2297.288811
1297.972523	2322.604895
1299.999479	2346.004196
1302.027833	2372.653846
1304.051983	2394.712587
1306.079397	2415.090909
1308.102609	2438.269930
1310.127219	2451.834266
1312.149495	2463.305594
1314.173168	2472.284615
1316.194508	2483.737762
1318.215380	2509.228671
1320.235786	2525.769930
1322.251997	2542.474825
1324.269606	2562.299301
1326.284888	2591.277622
1328.303427	2600.881119
1330.317778	2614.075524
1332.329803	2617.907692
1334.345085	2613.601399
1336.356182	2611.856643
1338.368676	2604.295105
1340.376987	2602.009091
1342.388554	2605.799301
1344.394081	2600.988112
1346.402864	2608.465035
1348.407469	2618.152448
1350.415328	2622.476224
1352.422725	2617.607692
1354.424091	2620.446853
1356.426854	2611.582517
1358.429156	2604.755245
1360.430999	2597.016783
1362.432382	2578.463636
1364.431452	2563.793007
1366.430063	2544.978322
1368.428216	2526.234266
1370.425911	2516.400699
1372.419442	2500.997902
1374.414370	2481.032867
1376.408841	2469.424476
1378.402855	2466.523776
1380.394561	2455.667832
1382.385813	2452.210490
1384.374759	2442.818881
1386.365100	2435.961538
1388.354986	2428.463636
1390.342569	2416.213287
1392.329697	2410.708392
1394.314525	2405.607692
1396.300746	2396.279720
1398.284668	2388.545455
1400.268137	2380.457343
1402.251154	2372.427972
1404.231872	2360.495804
1406.213986	2348.462238
1408.193802	2332.082517
1410.173168	2324.948252
1412.148394	2310.316084
1414.126860	2298.847552
1416.103031	2289.693706
1418.078754	2281.032867
1420.054027	2272.588811
1422.027009	2263.202098
1423.999543	2250.341259
1425.971630	2242.088811
1427.943268	2228.190210
1429.910778	2217.273427
1431.883363	2208.296503
1433.848141	2204.084615
1435.817991	2196.916084
1437.783718	2192.706993
1439.750837	2188.155944
1441.715673	2187.681119
1443.676390	2186.960140
1445.642174	2189.764336
1447.602003	2195.375524
1449.563225	2197.288112
1451.525840	2197.504895
1453.484340	2205.208392
1455.442398	2208.348951
1457.400013	2211.670629
1459.357187	2212.261538
1461.312085	2213.412587
1463.268375	2206.753846
1465.222391	2200.420979
1467.175967	2192.441259
1469.127270	2188.648951
1471.079965	2179.975524
1473.030389	2167.925874
1474.980373	2160.768531
1476.929919	2157.626573
1478.877196	2146.270629
1480.822206	2145.307692
1482.768607	2138.920280
1484.714572	2141.816084
1486.660098	2142.345455
1488.603360	2146.554545
1490.546185	2154.097203
1492.486747	2160.531469
1494.428700	2162.726573
1496.368392	2170.257343
1498.307648	2175.430070
1500.246469	2184.646154
1502.183031	2184.931469
1504.120984	2196.734266
1506.056679	2206.232867
1507.991939	2230.007692
1509.924944	2248.575524
1511.857516	2268.631469
1513.789656	2289.688811
1515.721364	2307.618182
1517.650818	2320.474825
1519.581663	2340.965035
1521.512077	2351.688811
1523.438417	2366.535664
1525.366149	2382.128671
1527.291630	2395.913986
1529.216682	2418.383217
1531.141305	2449.025175
1533.065499	2484.282517
1534.987446	2526.509790
1536.910782	2570.707692
1538.831873	2620.744056
1540.750719	2668.480420
1542.670955	2723.899301
1544.588947	2776.591608
1546.506513	2838.377622
1548.421837	2907.190909
1550.338551	2969.247552
1552.251210	3048.035664
1554.167073	3145.901399
1556.080696	3260.611189
1557.992082	3401.027972
1559.904856	3565.275524
1561.813581	3749.956643
1563.723696	3940.395105
1565.633387	4130.271329
1567.542654	4300.524476
1569.449688	4429.929371
1571.354489	4503.462937
1573.260679	4511.761538
1575.164637	4459.244056
1577.068175	4365.868531
1578.971291	4229.681119
1580.872179	4077.904196
1582.774454	3918.527273
1584.674502	3766.030070
1586.575937	3627.023776
1588.473339	3508.723077
1590.370322	3407.997902
1592.266887	3324.513986
1594.164840	3254.334965
1596.056958	3190.200699
1597.952269	3139.800000
1599.847163	3095.176224
1601.739835	3052.273427
1603.632091	3006.639860
1605.522126	2964.062238
1607.411747	2916.569930
1609.300951	2870.475524
1611.189741	2824.411888
1613.076314	2774.847552
1614.964273	2722.665734
1616.848216	2662.169231
1618.733547	2600.797902
1620.618463	2540.750350
1622.501166	2465.090210
1624.385256	2387.676923
1626.265335	2308.685315
1628.146800	2229.207692
1630.026055	2154.073427
1631.906696	2087.675524
1633.781533	2025.695105
1635.661352	1962.807692
1637.537165	1902.486014
1639.412568	1850.325175
1641.289358	1806.279720
1643.160350	1757.193007
1645.034524	1709.027972
1646.904700	1662.209091
1648.778056	1623.305594
1650.649209	1581.557343
1652.518160	1551.381119
1654.388497	1514.279021
1656.254840	1486.821678
1658.122569	1455.872028
1659.988100	1429.818182
1661.855015	1403.971329
1663.717942	1378.679720
1665.582254	1346.758741
1667.444370	1320.492308
1669.306082	1293.458741
1671.169178	1268.963636
1673.030080	1241.549650
1674.888788	1217.689510
1676.747093	1187.278322
1678.606783	1164.188811
1680.460706	1141.136364
1682.317801	1122.109091
1684.174494	1103.679021
1686.027211	1090.033566
1687.883098	1074.821678
1689.735012	1060.462937
1691.586525	1047.079021
1693.437637	1039.256643
1695.288349	1032.151049
1697.138660	1021.779720
1698.986787	1011.338462
1700.836297	1002.633566
1702.680059	996.086713
1704.528770	992.895105
1706.371736	985.651049
1708.217867	982.746853
1710.060037	976.826573
1711.905371	967.967832
1713.744965	963.233566
1715.585943	959.491608
1717.428304	955.836364
1719.266709	948.600699
1721.106497	941.350350
1722.944110	932.796503
1724.781327	927.722378
1726.616371	919.088112
1728.452798	909.890210
1730.287053	906.893706
1732.120913	901.003497
1733.954380	897.148951
1735.783900	890.509091
1737.616579	885.764336
1739.445314	879.723776
1741.277207	874.557343
1743.105157	866.217483
1744.932715	857.996503
1746.759881	852.062238
1748.586656	848.098601
1750.413040	847.386014
1752.235487	848.572028
1754.061088	844.110490
1755.882755	842.030769
1757.705804	833.697902
1759.526692	833.141259
1761.347190	825.562238
1763.169070	824.469930
1764.985250	822.493706
1766.804582	820.237762
1768.619987	822.190210
1770.438542	827.269930
1772.253172	831.048252
1774.067416	832.132168
1775.881272	828.909091
1777.694742	829.674825
1779.506059	825.851748
1781.318757	824.646154
1783.131068	818.804196
1784.939462	811.311189
1786.749237	805.458741
1788.555096	799.831469
1790.364101	791.697203
1792.169193	786.532867
1793.975666	782.621678
1795.781755	776.867832
1797.583934	775.413986
1799.389256	776.435664
1801.190670	773.377622
1802.993464	773.751748
1804.792352	775.026573
1806.592621	775.395105
1808.392508	777.388811
1810.190254	777.333566
1811.987618	773.030070
1813.784603	777.355245
1815.581207	774.864336
1817.375672	775.055245
1819.171516	775.425874
1820.961706	776.588112
1822.756792	772.446853
1824.546225	774.478322
1826.338795	777.352448
1828.129230	776.826573
1829.917531	771.868531
1831.708967	767.350350
1833.494757	764.690909
1835.281927	764.902797
1837.066965	761.092308
1838.855137	761.862238
1840.639423	769.158741
1842.421580	772.233566
1844.205115	774.411888
1845.986522	774.763636
1847.769308	773.876224
1849.548214	767.514685
1851.328498	758.085315
1853.106656	747.771329
1854.886193	742.467832
1856.663605	738.617483
1858.438893	735.927972
1860.215560	730.696503
1861.990103	729.681119
1863.766025	724.300699
1865.536326	723.326573
1867.309755	722.222378
1869.081064	720.923077
1870.852003	722.027972
1872.624318	719.595804
1874.391020	722.032168
1876.160848	730.155944
1877.926812	735.239161
1879.695900	738.082517
1881.461126	732.165734
1883.225983	726.513287
1884.992218	719.613986
1886.754594	715.011888
1888.516603	710.359441
1890.278244	705.096503
1892.039519	703.874825
1893.800426	703.130769
1895.560967	707.058741
1897.319398	711.323077
1899.077464	710.462937
1900.833421	710.501399
1902.590756	703.972028
1904.347724	698.002098
1906.102587	690.690210
1907.855344	680.320280
1909.607738	671.671329
1911.361507	666.779021
1913.113173	666.513986
1914.862737	664.925175
1916.613677	671.547552
1918.364253	678.777622
1920.110990	685.567133
1921.859104	694.848951
1923.605118	703.487413
1925.352508	706.117483
1927.097799	704.967133
1928.840993	700.262937
1930.585563	700.509790
1932.328036	697.255245
1934.070149	698.432867
1935.811902	697.259441
1937.553296	703.314685
1939.292596	704.862238
1941.031536	708.872028
1942.770119	707.438462
1944.506609	706.438462
1946.242742	698.163636
1947.980249	696.387413
1949.713934	693.981119
1951.448994	693.910490
1953.181966	693.385315
1954.914581	697.050350
1956.646839	696.895804
1958.378741	696.937762
1960.108557	694.414685
1961.836289	697.815385
1963.565394	697.144755
1965.294145	701.297902
1967.020812	702.431469
1968.747125	710.197203
1970.474811	713.282517
1972.196961	720.383217
1973.922212	722.048951
1975.643657	724.423776
1977.368201	719.011189
1979.090666	716.895804
1980.809327	715.291608
1982.531087	721.038462
1984.249045	719.603497
1985.968376	721.363636
1987.683908	721.860140
1989.404261	723.265035
1991.120814	724.651049
1992.833571	729.402797
1994.549425	728.684615
1996.263205	730.213287
1997.976636	728.341958
1999.687996	730.299301
2001.400729	731.813986
2003.109670	735.774825
2004.821705	736.395105
2006.528230	738.885315
2008.237848	736.949650
2009.945398	736.861538
2011.652601	735.208392
2013.357738	734.564336
2015.062528	734.008392
2016.768690	733.064336
2018.471070	736.403497
2020.174822	740.318881
2021.876510	740.393007
2023.577854	741.928671
2025.278852	745.011888
2026.977790	745.880420
2028.678098	743.523776
2030.374632	742.944755
2032.072537	734.418182
2033.768383	728.641259
2035.467315	723.641259
2037.160761	721.060140
2038.855579	720.218881
2040.550053	719.896503
2042.240759	716.147552
2043.934549	713.188112
2045.624572	712.832168
2047.315966	713.069930
2049.005307	708.085315
2050.696018	704.556643
2052.382966	700.468531
2054.069575	698.965734
2055.757554	699.781818
2057.441773	706.249650
2059.127362	709.121678
2060.812612	712.840559
2062.495814	712.961538
2064.180385	711.167832
2065.859494	709.940559
2067.543388	710.228671
2069.221822	706.860839
2070.903332	706.266434
2072.581092	703.658741
2074.258514	702.911189
2075.937306	702.472727
2077.614056	706.173427
2079.288764	702.839860
2080.964841	700.311189
2082.638878	699.748252
2084.312579	701.145455
2085.985945	704.438462
2087.657273	710.845455
2089.328266	712.302098
2090.998925	712.716084
2092.669249	709.069930
2094.339240	708.925874
2096.007195	704.820280
2097.674817	703.396503
2099.340404	700.107692
2101.007361	699.323776
2102.672283	701.607692
2104.336874	702.811888
2105.999433	706.011888
2107.663360	710.788112
2109.325257	709.493007
2110.986822	707.649650
2112.648056	704.195105
2114.307262	704.554545
2115.966137	703.633566
2117.624683	706.531469
2119.282899	710.297902
2120.937391	714.717483
2122.594948	717.118881
2124.252176	716.206993
2125.905682	716.921678
2127.560556	717.451748
2129.211712	713.281818
2130.865929	710.679021
2132.516430	708.263636
2134.168297	712.834965
2135.814756	714.085315
2137.465970	719.627273
2139.113470	721.669930
2140.762337	723.586014
2142.409186	720.413986
2144.055708	721.369930
2145.701905	722.472727
2147.344394	726.067832
2148.989941	728.246154
2150.631781	731.383916
2152.276678	732.418881
2153.917870	735.281119
2155.558738	732.484615
2157.199282	733.820280
2158.837814	728.928671
2160.477712	728.715385
2162.113910	728.497902
2163.751475	730.765734
2165.388716	733.602098
2167.023948	736.795804
2168.658859	737.681818
2170.293448	737.548252
2171.927715	733.821678
2173.558289	731.733566
2175.191915	726.394406
2176.821849	725.132168
2178.453148	722.825874
2180.082442	724.730070
2181.711417	730.425175
2183.340073	731.246154
2184.968409	734.494406
2186.594742	735.471329
2188.220757	735.928671
2189.844771	735.165734
2191.470149	732.566434
2193.093528	729.704196
2194.718270	721.938462
2196.339332	717.702797
2197.960077	710.975524
2199.582187	708.288112
2201.202299	707.451748
2202.820414	702.620280
2204.438214	697.987413
2206.055699	697.111888
2207.672868	691.698601
2209.289722	691.079021
2210.906261	691.563636
2212.520806	691.827273
2214.133359	691.337063
2215.747276	691.291608
2217.359202	691.726573
2218.972491	697.404196
2220.583790	697.782517
2222.193099	695.529371
2223.803772	691.646154
2225.412456	689.656643
2227.020828	683.423776
2228.627212	685.843357
2230.234960	685.423077
2231.840721	685.906294
2233.446171	686.697902
2235.049636	688.548951
2236.654464	692.501399
2238.257309	696.052448
2239.858170	693.451748
2241.460393	693.618881
2243.060635	694.836364
2244.662239	692.320280
2246.260191	691.538462
2247.859505	696.525175
2249.456839	696.569930
2251.053864	703.215385
2252.652252	706.409790
2254.246991	711.523776
2255.839753	711.793007
2257.433878	713.435664
2259.029364	711.162238
2260.621206	712.161538
2262.212741	710.480420
2263.805637	706.607692
2265.393224	704.048951
2266.985508	701.516783
2268.572484	695.623776
2270.162489	697.708392
2271.747189	693.504196
2273.336583	693.945455
2274.920674	687.228671
2276.506127	684.287413
2278.089610	682.283217
2279.676120	679.897203
2281.258996	680.392308
2282.841568	681.531818
2284.423837	681.722378
2286.002477	681.898951
2287.584140	679.701399
2289.162175	684.966084
2290.743233	681.802797
2292.320665	678.356993
2293.896132	672.327972
2295.474622	668.350000
2297.049488	668.004196
2298.624053	662.452098
2300.198318	661.906993
2301.772282	660.356294
2303.345946	660.487413
2304.919309	659.518881
2306.489054	657.429371
2308.058500	659.065035
2309.630965	653.346853
2311.198154	650.242657
2312.768362	648.655245
2314.334955	649.382517
2315.902908	652.153846
2317.468905	653.958042
2319.034605	657.538462
2320.600008	666.094406
2322.163456	678.234266
2323.728264	686.500000
2325.289464	689.494406
2326.853678	691.082517
2328.412631	689.948252
2329.974597	686.634266
2331.534613	682.765035
2333.094333	678.376224
2334.652104	672.673427
2336.209580	675.744056
2337.766762	678.739161
2339.321997	686.720280
2340.876937	693.694406
2342.431584	698.831469
2343.985937	698.220979
2345.539996	698.071329
2347.093761	694.116084
2348.645583	688.099301
2350.195461	683.588112
2351.748347	682.292308
2353.295991	680.866434
2354.846642	686.958042
2356.393702	688.687413
2357.942121	689.478322
2359.490247	694.043357
2361.034785	694.444755
2362.580681	690.441259
2364.124639	684.688811
2365.669954	677.728671
2367.211684	675.246853
2368.754771	673.441958
2370.295923	674.950350
2371.836785	671.776923
2373.377358	676.439161
2374.917641	677.199301
2376.457636	679.575524
2377.994053	684.102098
2379.533471	685.811189
2381.069312	687.150350
2382.606509	688.017483
2384.140131	689.252448
2385.676754	690.256643
2387.211445	689.726573
2388.744207	688.225175
2390.276682	685.597902
2391.807230	686.945455
2393.340775	681.054545
2394.869109	682.622378
2396.398799	683.371329
2397.928204	686.734266
2399.457323	688.295105
2400.986158	691.853846
2402.509787	694.058042
2404.038053	696.065734
2405.561115	699.809790
2407.088811	700.048252
2408.609668	703.082517
2410.135158	707.523776
2411.657087	710.937063
2413.180372	716.710490
2414.701736	715.538462
2416.221180	721.697902
2417.741979	723.508392
2419.260859	725.390909
2420.779457	725.076923
2422.296138	724.907692
2423.814173	721.504895
2425.331927	719.773427
2426.846130	718.116084
2428.360052	717.941259
2429.873694	718.130769
2431.388691	717.065035
2432.900139	711.549650
2434.412942	714.525175
2435.923832	716.803497
2437.434442	718.031469
2438.943141	721.597902
2440.454827	724.112587
2441.962968	726.216783
2443.470832	732.762238
2444.978418	734.048252
2446.482463	735.256643
2447.989494	738.993706
2449.494616	741.920979
2450.999461	740.841259
2452.502399	744.149650
2454.005060	747.184615
2455.507445	746.128671
2457.007925	745.392308
2458.509758	744.718182
2460.009687	741.650350
2461.509340	741.081818
2463.008717	736.720979
2464.506192	734.206993
2466.001765	733.193007
2467.500319	728.841259
2468.995343	724.439161
2470.491721	722.886713
2471.984571	719.253147
2473.478775	719.748951
2474.972705	719.533566
2476.463112	718.016783
2477.956495	717.292308
2479.447981	723.026573
2480.937570	723.037063
2482.426887	727.480420
2483.914309	726.106294
2485.404706	728.394406
2486.891584	729.562937
2488.379814	729.272727
2489.864528	724.992308
2491.348971	724.739860
2492.834766	720.755245
2494.318668	715.560140
2495.803922	710.486713
2497.284042	704.459441
2498.767134	695.463636
2500.248336	689.855245
2501.729269	684.840559
2503.208313	688.955944
2504.687088	686.081818
2506.165595	686.622378
2507.643834	686.797902
2509.121804	691.590909
2510.596270	696.072028
2512.073704	700.447552
2513.547635	698.213287
2515.022916	699.015385
2516.497931	700.711888
2517.969444	698.770629
2519.442307	700.493706
2520.913288	702.923776
2522.385619	700.698601
2523.852837	702.260140
2525.323020	702.158042
2526.791323	705.697203
2528.259361	712.374825
2529.727134	716.671329
2531.194642	720.244755
2532.661885	729.239161
2534.125636	736.953147
2535.590737	741.140559
2537.053961	744.325874
2538.518535	748.397902
2539.979619	748.251748
2541.442053	745.632867
2542.904224	742.280420
2544.362909	744.412587
2545.826166	741.959441
2547.284326	742.738462
2548.743835	741.535664
2550.198251	740.857343
2551.657236	742.555245
2553.114350	745.307692
2554.569593	745.695804
2556.024575	747.487413
2557.477687	746.052448
2558.932148	746.656643
2560.384740	746.499301
2561.837072	751.893007
2563.287536	751.007692
2564.740956	756.079021
2566.189294	759.500000
2567.640588	762.913287
2569.090015	770.483916
2570.535970	775.325175
2571.984881	777.344755
2573.430320	781.275524
2574.877108	783.986014
2576.322032	783.399301
2577.766699	782.358741
2579.212713	782.794406
2580.655260	778.299301
2582.099155	777.056643
2583.539585	779.365035
2584.981362	775.239860
2586.421280	773.621678
2587.862545	773.562238
2589.300349	773.452448
2590.741102	774.708392
2592.176792	775.083217
2593.615432	770.102797
2595.052215	772.976224
2596.487141	777.236364
2597.925016	776.388811
2599.357832	781.932867
2600.791996	785.413287
2602.224306	786.929371
2603.657962	790.834266
2605.089765	793.920979
2606.521315	795.111189
2607.952611	798.423077
2609.382055	800.604895
2610.811248	801.968531
2612.238589	808.477622
2613.667277	813.448252
2615.095712	815.363636
2616.520700	824.570629
2617.947035	828.836364
2619.371521	835.748951
2620.797353	840.064336
2622.219741	840.706993
2623.643475	841.611888
2625.065362	845.515385
2626.487000	842.641259
2627.906792	844.184615
2629.327930	846.438462
2630.748818	851.951748
2632.166268	858.087413
2633.586657	869.823776
2635.003609	876.960140
2636.420313	883.709790
2637.836768	892.767832
2639.252975	898.407692
2640.668933	900.552448
2642.083051	904.056643
2643.496922	904.793007
2644.908953	911.582517
2646.322329	919.964336
2647.732275	931.890909
2649.145156	940.491608
2650.554610	957.987413
2651.963817	968.271329
2653.371187	977.328671
2654.781493	994.430769
2656.189962	1005.806993
2657.596596	1017.102098
2659.002985	1029.545455
2660.407540	1040.001399
2661.813439	1048.641259
2663.217505	1055.856643
2664.621326	1065.939860
2666.024904	1073.660140
2667.426649	1085.091608
2668.829738	1088.124476
2670.229409	1098.930769
2671.630424	1112.993706
2673.028023	1123.874126
2674.428552	1135.357343
2675.825666	1142.111888
2677.224123	1146.383217
2678.620752	1151.583916
2680.017139	1151.846154
2681.413285	1156.516084
2682.807604	1157.376224
2684.203266	1157.651748
2685.595518	1159.787413
2686.989114	1167.741958
2688.380885	1169.797203
2689.773998	1171.832867
2691.165288	1175.179021
2692.554755	1175.034965
2693.943982	1177.727972
2695.332970	1183.895804
2696.723300	1178.020280
2698.108645	1180.718182
2699.496914	1175.806993
2700.883363	1176.478322
2702.269573	1177.801399
2703.655545	1171.037063
2705.038117	1164.247552
2706.422032	1156.296503
2707.805709	1152.440559
2709.189148	1142.382517
2710.569191	1135.563636
2711.950576	1127.167133
2713.330145	1108.693007
2714.711056	1098.887413
2716.090151	1083.644755
2717.467433	1072.264336
2718.846056	1057.295105
2720.222866	1039.229371
2721.599440	1022.453846
2722.975778	1007.630070
2724.350304	997.000000
2725.726171	985.295105
2727.098651	972.727972
2728.474047	960.069231
2729.844483	943.333566
2731.216260	933.748252
2732.587802	920.674825
2733.957536	908.637762
2735.328611	897.169231
2736.697877	885.729371
2738.066911	871.126573
2739.434137	862.457343
2740.801131	852.146853
2742.167892	845.548252
2743.534420	838.288112
2744.899143	835.205594
2746.263635	827.119580
2747.627894	827.404196
2748.991921	824.631469
2750.355717	825.100000
2751.716139	827.305594
2753.079472	825.674126
2754.437862	820.605594
2755.799162	821.744056
2757.157091	819.162238
2758.517930	815.478322
2759.876968	813.807692
2761.232638	812.488112
2762.591216	805.581818
2763.946428	806.306294
2765.301410	806.716084
2766.654595	806.424476
2768.010687	807.253846
2769.363415	801.810490
2770.715914	796.642657
2772.068185	792.917483
2773.421795	787.598601
2774.772043	778.460839
2776.120498	774.185315
2777.471857	768.231469
2778.819857	761.662238
2780.169196	761.862238
2781.516742	761.283217
2782.864061	759.602797
2784.211154	758.828671
2785.556456	756.401399
2786.901532	754.998601
2788.246382	753.844056
2789.591005	755.067832
2790.932277	755.155944
2792.274887	755.441958
2793.617271	755.144056
2794.959431	755.009790
2796.298241	756.862937
2797.639950	757.011888
2798.978312	756.648951
2800.318011	758.516084
2801.655924	758.525874
2802.992053	760.828671
2804.327958	763.592308
2805.665201	764.378322
2807.000660	768.067133
2808.335896	769.134266
2809.669349	773.218881
2811.004140	774.261538
2812.335589	773.744056
2813.669934	771.450350
2814.999381	766.513287
2816.330165	764.920280
2817.660727	762.666434
2818.989510	762.399301
2820.319629	760.079720
2821.647970	755.072028
2822.976090	754.903497
2824.302432	749.877622
2825.630111	745.006294
2826.954457	737.684615
2828.280138	733.530769
2829.604044	729.148252
2830.927731	722.471329
2832.252753	720.157343
2833.574445	728.064336
2834.895919	729.077622
2836.217174	729.735664
2837.538210	727.506993
2838.857474	728.933566
2840.178073	726.911888
2841.496900	725.602098
2842.815509	723.706993
2844.132347	725.272028
2845.448968	722.641958
2846.765372	723.720280
2848.080007	728.316783
2849.395976	737.221678
2850.708625	740.282517
2852.022610	746.546853
2853.336377	749.916783
2854.649929	754.578322
2855.961713	759.555944
2857.271731	760.865035
2858.583084	752.035664
2859.891122	751.418182
2861.200495	745.523077
2862.509652	740.902797
2863.818594	733.390909
2865.125773	728.584615
2866.431188	728.927972
2867.737938	729.527972
2869.042925	725.637762
2870.347699	725.625874
2871.650711	730.664336
2872.956605	730.911888
2874.257643	727.613287
2875.560016	735.416783
2876.860629	731.931469
2878.162576	726.613986
2879.464310	718.586014
2880.762739	715.051748
2882.062503	708.605594
2883.360508	701.232168
2884.658302	690.922378
2885.954340	693.670629
2887.251711	694.419580
2888.547326	690.899301
2889.842730	691.430070
2891.137924	694.583916
2892.429819	696.670629
2893.724591	700.452448
2895.016066	702.858741
2896.308874	706.886014
2897.601472	707.025175
2898.890776	706.288811
2900.181412	709.139161
2901.470297	714.734965
2902.760515	712.906294
2904.047440	710.860839
2905.335699	707.099301
2906.622207	706.930070
2907.908508	706.658741
2909.194600	705.327972
2910.478944	706.206993
2911.766160	706.858042
2913.048548	705.111189
2914.332269	705.503497
2915.614244	706.888112
2916.896012	708.380420
2918.176034	710.320280
2919.458926	710.883916
2920.740073	705.627273
2922.017938	703.073427
2923.298672	695.109790
2924.576125	689.534965
2925.853372	685.543357
2927.128878	682.991608
2928.407251	677.160839
2929.680809	674.840559
2930.957235	671.376923
2932.231920	671.420280
2933.504865	667.472028
2934.779140	670.077622
2936.051676	667.596503
2937.324008	666.099301
2938.593066	664.372028
2939.864990	665.067133
2941.135176	662.952448
2942.405159	663.409091
2943.674938	658.157343
2944.942980	655.995804
2946.209287	652.447552
2947.475391	648.304196
2948.742825	644.143357
2950.008525	648.832168
2951.274022	647.536364
2952.539317	650.680420
2953.801347	654.595804
2955.064708	656.639161
2956.327866	654.030070
2957.589293	653.788811
2958.852049	652.455245
2960.113074	652.197203
2961.372367	648.992308
2962.631461	646.900000
2963.890354	643.514685
2965.149047	643.574825
2966.407540	640.407692
2967.664304	641.889510
2968.920868	639.146853
2970.175705	635.760839
2971.431871	631.320979
2972.684781	630.248252
2973.939021	628.164336
2975.193062	624.778322
2976.445377	622.739161
2977.697494	620.708392
2978.947886	619.930070
2980.201133	620.618881
2981.449603	616.646154
2982.700927	614.269930
2983.949003	609.234965
2985.196881	610.293007
2986.444562	610.148951
2987.692047	610.439161
2988.937810	612.505594
2990.183376	614.167133
2991.430270	616.225175
2992.673920	620.843357
2993.918898	626.676923
2995.160633	625.972727
2996.405218	619.858741
2997.648085	618.283916
2998.887711	614.860839
3000.130187	616.093706
3001.369424	614.886014
3002.609988	615.014685
3003.848835	616.963636
3005.087488	614.760140
3006.324425	613.727972
3007.562689	617.298601
3008.799239	614.960140
3010.035594	613.438462
3011.271756	612.182517
3012.506205	615.006993
3013.740460	612.967133
3014.974522	616.376923
3016.206872	615.514685
3017.437510	620.251049
3018.670994	621.412587
3019.902766	618.925874
3021.132828	616.898601
3022.362698	614.935664
3023.590858	607.725874
3024.820344	605.425874
3026.048122	602.324476
3027.275708	601.662238
3028.504620	600.817483
3029.728790	603.034266
3030.955803	599.818182
3032.179592	600.425874
3033.404708	600.339860
3034.628117	597.748252
3035.851337	596.190210
3037.072851	595.933566
3038.297206	594.977622
3039.516826	596.876923
3040.737771	598.374825
3041.958528	600.834266
3043.177581	603.787413
3044.397960	600.585315
3045.615122	591.192308
3046.833609	588.872028
3048.050394	586.907692
3049.266992	579.929371
3050.483401	576.311888
3051.696598	576.348951
3052.912632	575.244755
3054.125454	577.951049
3055.341113	578.215385
3056.552049	580.397203
3057.764310	585.086014
3058.976385	582.305594
3060.188273	581.537762
3061.398463	583.512587
3062.608467	581.589510
3063.818286	578.907692
3065.026408	571.664336
3066.234344	569.130769
3067.440586	561.969930
3068.648151	559.404196
3069.854023	557.766434
3071.059709	556.500699
3072.265210	553.713287
3073.469018	547.296503
3074.674150	543.059441
3075.877590	541.434266
3077.079337	539.044056
3078.280901	538.272727
3079.482281	532.581119
3080.683477	531.705594
3081.882983	532.623077
3083.082305	539.555944
3084.282951	546.431469
3085.481907	548.376224
3086.677669	550.088811
3087.876260	550.916783
3089.071657	549.134266
3090.268377	549.833566
3091.461905	548.007692
3092.658261	550.288811
3093.852931	547.642657
3095.044410	547.218881
3096.240220	548.515385
3097.431337	551.008392
3098.623776	550.172028
3099.813028	551.939161
3101.005106	553.679021
3102.195499	552.132867
3103.382707	551.273427
3104.571238	551.924476
3105.761091	552.675524
3106.947759	553.660839
3108.134248	552.504196
3109.320557	552.456643
3110.508188	551.104895
3111.692638	549.800000
3112.875407	547.895105
3114.061000	546.171329
3115.244912	542.386014
3116.427146	540.332867
3117.609201	539.137063
3118.791079	536.772028
3119.972778	534.603497
3121.152799	532.073427
3122.331144	532.500699
3123.512310	532.805594
3124.690300	532.028671
3125.868113	530.844056
3127.045749	525.782517
3128.221710	524.120979
3129.397494	521.777622
3130.574600	523.500699
3131.750031	523.623776
3132.923789	525.150350
3134.095875	526.144755
3135.269281	530.216783
3136.442512	535.548951
3137.614070	535.955245
3138.786950	536.002098
3139.956662	538.432168
3141.127695	535.229371
3142.297057	540.327972
3143.464750	539.256643
3144.635258	544.065035
3145.801107	547.069231
3146.971266	549.448951
3148.136767	550.439161
3149.302095	555.980420
3150.467249	556.692308
3151.632229	553.300699
3152.798530	551.281818
3153.960177	550.583916
3155.123145	545.690210
3156.285939	541.909091
3157.448561	534.730769
3158.609518	529.534266
3159.770302	523.725175
3160.930914	517.009091
3162.089863	511.334266
3163.248639	509.759441
3164.407244	507.193706
3165.565677	504.472727
3166.723938	507.548252
3167.880537	510.390909
3169.035475	508.134965
3170.191732	507.668531
3171.346329	506.349650
3172.500754	502.397203
3173.653520	496.688811
3174.806116	491.223776
3175.958541	487.609790
3177.110797	484.611888
3178.262883	480.516783
3179.411822	478.436364
3180.563568	480.000699
3181.713656	479.653147
3182.862088	477.040559
3184.010351	481.240559
3185.158444	484.072028
3186.306369	487.420280
3187.452639	488.486713
3188.598740	490.517483
3189.743186	490.446154
3190.887465	489.592308
3192.031576	484.798601
3193.177005	484.441259
3194.319294	479.518182
3195.461417	474.688811
3196.603372	472.439860
3197.745161	471.135664
3198.886782	471.340559
3200.025267	476.000699
3201.165070	480.404196
3202.306191	484.073427
3203.444177	485.544755
3204.580514	487.772727
3205.716685	488.553846
3206.854174	488.497902
3207.990013	486.446154
3209.127170	483.335664
3210.259714	481.823077
3211.396540	476.865734
3212.528754	475.120280
3213.662286	475.563636
3214.795652	473.435664
3215.925891	473.054545
3217.058928	469.829371
3218.188839	470.075524
3219.320067	470.123077
3220.448169	471.876923
3221.579068	472.991608
3222.708324	476.165035
3223.835935	477.653147
3224.960425	485.802098
3226.089190	490.004196
3227.214833	493.182517
3228.340313	491.373427
3229.464152	492.503497
3230.590785	489.937762
3231.712821	486.096503
3232.836173	481.421678
3233.959363	476.095804
3235.082391	465.853846
3236.203779	461.846853
3237.325006	451.032168
3238.444594	453.995804
3239.564021	448.353147
3240.681810	446.662238
3241.802392	443.696503
3242.919859	445.482517
3244.037167	447.358042
3245.154313	444.186713
3246.269824	443.341259
3247.386650	441.375524
3248.500365	438.510490
3249.616870	433.562238
3250.731741	427.381818
3251.843503	428.278322
3252.955106	425.599301
3254.068023	425.251049
3255.180782	422.626573
3256.290434	422.554545
3257.401400	419.245455
3258.512208	416.435664
3259.621385	414.804895
3260.728930	419.617483
3261.837790	420.823077
3262.946491	420.534266
3264.052090	421.654545
3265.159003	424.114685
3266.264288	421.563636
3267.370886	417.756643
3268.474384	412.490210
3269.579196	408.832168
3270.683851	400.225175
3271.785407	397.998601
3272.886808	397.048252
3273.989522	399.790909
3275.092079	399.011888
3276.191540	401.890210
3277.293785	403.648252
3278.392934	404.734266
3279.490459	399.644755
3280.587828	399.848252
3281.687980	398.602797
3282.785038	398.678322
3283.881941	396.679720
3284.978689	397.683217
3286.070879	398.549650
3287.167317	399.674126
3288.262134	399.123776
3289.356795	399.160839
3290.449835	396.865734
3291.542721	395.148951
3292.633986	390.684615
3293.726564	390.455245
3294.817521	388.092308
3295.906859	388.405594
3296.996044	388.646853
3298.086542	388.967832
3299.173955	388.300000
3300.261216	389.059441
3301.349789	385.226573
3302.438209	385.966434
3303.522082	383.136364
3304.610197	382.663636
3305.695231	380.257343
3306.778648	382.953147
3307.863378	381.733566
3308.946493	383.300699
3310.030919	384.118881
3311.112267	384.658042
3312.194927	382.116084
3313.275973	381.326573
3314.356868	379.517483
3315.436150	380.539161
3316.515281	376.027273
3317.595723	377.423776
3318.673092	376.623077
3319.751771	379.696503
3320.828840	377.875524
3321.905758	380.933566
3322.981065	380.453846
3324.056223	379.632867
3325.132692	379.937063
3326.206091	380.601399
3327.279341	379.310490
3328.353902	379.398601
3329.426853	375.440559
3330.498197	375.431469
3331.570851	373.615385
3332.640438	372.611888
3333.711336	370.315385
3334.780627	373.273427
3335.851229	372.700699
3336.920224	373.064336
3337.987613	372.511189
3339.053397	374.420979
3340.123407	372.405594
3341.190354	370.918182
3342.254239	366.871329
3343.320892	367.219580
3344.385940	364.234965
3345.449385	361.713986
3346.512684	359.411888
3347.575836	362.626573
3348.638842	364.817483
3349.701702	363.860140
3350.762960	360.495804
3351.821161	363.390909
3352.883583	360.942657
3353.942948	359.191608
3355.002168	359.379021
3356.062698	359.797203
3357.118718	356.353846
3358.177503	357.159441
3359.231780	358.246853
3360.288820	361.478322
3361.344263	365.783217
3362.401014	366.279021
3363.456168	365.669930
3364.509724	368.620280
3365.561683	369.510490
3366.616404	369.169930
3367.668076	368.630070
3368.719605	369.911888
3369.772443	368.838462
3370.822233	369.821678
3371.873331	368.752448
3372.921384	363.944056
3373.972197	363.267832
3375.019964	361.582517
3376.067589	360.222378
3377.115071	358.232168
3378.160961	356.041259
3379.208159	355.953147
3380.252315	354.565035
3381.299229	353.901399
3382.344551	354.088811
3383.386833	354.974126
3384.428973	355.370629
3385.472421	356.403497
3386.515729	357.055944
3387.557446	357.504895
3388.599022	357.839860
3389.640458	355.697902
3390.680304	355.620979
3391.718563	354.417483
3392.758129	351.518881
3393.797554	352.209091
3394.835392	352.581818
3395.871643	354.297902
3396.907755	357.344056
3397.945174	360.475524
3398.979560	358.013986
3400.015253	357.376224
3401.050807	356.124476
3402.083330	354.893706
3403.118606	351.107692
3404.150851	349.265035
3405.182958	349.602797
3406.213481	349.050350
3407.245312	342.873427
3408.277003	343.687413
3409.305668	342.846853
3410.334194	343.168531
3411.364028	339.738462
3412.393723	339.195105
3413.420393	340.036364
3414.448370	341.130769
3415.473322	341.124476
3416.501024	344.924476
3417.525703	344.813287
3418.551688	346.999301
3419.576093	346.493007
3420.600362	348.818881
3421.623052	346.724476
3422.645606	346.168531
3423.669466	342.820979
3424.690306	345.400699
3425.711011	345.763437
3426.733021	345.197328
3427.752013	343.202198
3428.770870	339.277872
3429.791032	332.924176
3430.808178	323.640934
