-118.187858	-6.184890
-115.518258	-6.672527
-112.851593	-6.542807
-110.185680	-5.933666
-107.522699	-4.983042
-104.858289	-3.828871
-102.196809	-2.609091
-99.533899	-3.246154
-96.876097	-0.931469
-94.216864	0.204895
-91.558380	1.676224
-88.902821	0.742657
-86.245833	0.431469
-83.593942	-1.811189
-80.940622	-0.238462
-78.290222	-0.250350
-75.638392	3.246154
-72.991653	0.520979
-70.343484	2.713986
-67.696059	-0.034266
-65.051547	2.358741
-62.405607	0.586713
-59.764748	-1.132867
-57.122460	-5.809091
-54.483080	-8.401399
-51.842272	-8.615385
-49.202204	-8.268531
-46.567208	-7.161538
-43.930783	-2.993706
-41.297262	-2.596503
-38.662312	0.748252
-36.032427	1.934266
-33.398950	7.312587
-30.770535	6.481119
-28.142853	6.844755
-25.513744	1.769930
-22.889691	-15.620280
-20.262049	-88.495804
-17.639460	-313.285315
-15.017602	-417.297902
-12.396476	259.606294
-9.776079	1330.442657
-7.158570	2249.871329
-4.539633	2897.774825
-1.923582	3264.965734
0.691741	3351.693706
3.306337	3158.893007
5.918050	2689.914685
8.531192	1958.739161
11.139300	1007.823077
13.750990	8.074825
16.357649	-536.055245
18.965736	-319.386713
21.573099	-55.123776
24.175437	-3.285315
26.781353	-3.980420
29.382247	-5.579021
31.984570	-6.338462
34.581874	-4.922378
37.182754	-2.592308
39.778620	0.785315
42.375913	2.465035
44.972487	3.876923
47.564052	3.132168
50.157045	3.991608
52.747177	2.267832
55.338737	-0.356643
57.927437	-5.572028
60.517564	-6.371329
63.102693	-8.883217
65.689249	-6.274825
68.275090	-7.153846
70.858078	-5.196503
73.442493	-5.793007
76.019778	-7.262937
78.600630	-9.208392
81.178633	-5.529371
83.755926	-5.951748
86.334645	-5.095804
88.908383	-7.152448
91.483547	-6.195105
94.055868	-5.652448
96.627481	-4.221678
99.196255	-5.276923
101.766455	-4.581119
104.333816	-4.016783
106.902604	-5.241259
109.468554	-4.936364
112.031670	-3.336364
114.598342	-3.583217
117.155793	-2.390210
119.718929	-3.182517
122.277106	-0.913986
124.838836	4.279021
127.395611	11.869930
129.953811	20.270629
132.507059	32.069930
135.059608	47.062238
137.615708	63.051049
140.166861	80.865035
142.717315	97.210490
145.267073	109.267832
147.814011	121.489510
150.360253	128.044755
152.907922	131.375524
155.454894	135.582517
157.996930	139.513287
160.538273	138.280420
163.078924	140.051049
165.620999	141.474126
168.160264	141.049650
170.696719	139.211888
173.232484	135.569930
175.769674	130.177622
178.306172	128.519580
180.839865	123.172727
183.370755	119.441259
185.900956	121.068531
188.432582	121.893007
190.961407	122.382517
193.487433	126.064336
196.012774	124.396503
198.539539	123.836364
201.063508	123.683916
203.586791	123.404895
206.109390	124.558741
208.629196	124.802797
211.148319	124.951748
213.666759	130.156643
216.186623	131.931469
218.699486	134.872727
221.215880	136.198601
223.731592	135.879720
226.242415	134.148252
228.754662	136.825874
231.264126	137.102797
233.772912	135.241958
236.281020	134.858741
238.790551	134.011888
241.295203	133.891608
243.799178	135.188811
246.304577	134.704895
248.805101	138.706294
251.309148	139.815385
253.806225	142.658042
256.306824	143.783217
258.804652	146.930070
261.301807	145.209091
263.798289	141.261538
266.289909	141.022378
268.785047	139.934965
271.277420	138.220979
273.769122	136.388112
276.258061	136.475524
278.748423	138.006993
281.236024	140.104895
283.720865	142.886014
286.209220	142.751748
288.690636	143.714685
291.175566	142.190909
293.655651	141.777622
296.139248	143.543357
298.618002	144.823776
301.098180	144.575524
303.575605	141.927972
306.052367	141.577622
308.528466	148.539161
311.001816	155.710490
313.474504	163.752448
315.946531	171.468531
318.417897	176.576224
320.886519	180.209790
323.354481	181.283916
325.823866	179.386014
328.288428	173.646853
330.756493	167.083217
333.219739	159.390210
335.682328	153.764336
338.144259	153.918182
340.605534	150.576923
343.064075	153.253147
345.524038	154.822378
347.981269	157.592308
350.437844	157.590909
352.893766	155.922378
355.346959	155.300000
357.801573	153.793007
360.251386	153.483916
362.704696	152.239161
365.153206	150.407692
367.601066	148.776224
370.050347	147.983916
372.494835	152.868531
374.940745	153.665734
377.386006	157.805594
379.828548	157.434965
382.270442	158.571329
384.711688	157.709790
387.150219	156.762238
389.590172	155.346853
392.027411	157.447552
394.461938	156.381119
396.899953	154.553147
399.333191	154.169930
401.767851	152.153846
404.197737	150.968531
406.631109	151.607692
409.059711	149.710490
411.487672	150.729371
413.917053	148.013287
416.341669	149.786713
418.767707	150.420280
421.193104	153.162238
423.617861	153.785315
426.037860	153.646853
428.459280	154.279720
430.878003	155.519580
433.298147	155.702098
435.715596	154.316783
438.134465	151.950350
440.550641	151.889510
442.962070	150.817483
445.376975	149.603497
447.789190	148.093007
450.200771	146.595105
452.611718	145.357343
455.019979	145.238462
457.427607	144.925874
459.834604	146.033566
462.240968	143.483916
464.644650	143.323077
467.047702	140.953846
469.450124	142.378322
471.851917	143.916084
474.251031	145.017483
476.651565	145.786014
479.051470	145.159441
481.446652	146.779021
483.845301	147.563636
486.239230	147.199301
488.632533	147.593706
491.025210	146.117483
493.417262	142.685315
495.810733	136.254545
498.199491	135.016783
500.585583	131.239860
502.973095	124.767832
505.359983	119.401399
507.744208	116.427972
510.129852	114.540559
512.512833	109.955944
514.893154	104.076224
517.274894	101.534266
519.653975	98.514685
522.034475	95.677622
524.412317	94.732867
526.787504	97.748951
529.162073	95.869231
531.538061	93.233566
533.911395	92.080420
536.286148	92.318881
538.656214	90.330769
541.025665	86.262238
543.396535	82.472727
545.762723	83.265035
548.130330	81.813287
550.495291	81.503497
552.859639	81.101399
555.223375	82.802797
557.588528	79.387413
559.949008	79.536364
562.310907	77.389510
564.670166	79.337762
567.026786	77.077622
569.386851	76.154545
571.740226	76.533566
574.097045	76.734266
576.451228	76.125874
578.804804	75.618881
581.157771	75.956643
583.508107	76.766434
585.859859	75.069930
588.204935	78.168531
590.555475	77.279021
592.899342	79.802797
595.248669	78.848951
597.593349	79.467133
599.935404	79.991608
602.278875	81.676923
604.619724	80.465734
606.959971	81.361538
609.297597	81.981818
611.638658	82.791608
613.975082	80.932168
616.312922	82.044056
618.648144	79.909091
620.980751	78.980420
623.314775	76.434965
625.646184	74.368531
627.976995	74.719580
630.307208	76.247552
632.636823	74.542657
634.961816	76.486713
637.292250	77.039860
639.618062	77.491608
641.941268	75.672028
644.265889	76.072727
646.587906	71.676224
648.909328	71.367133
651.228147	67.593007
653.548382	65.888112
655.868024	66.391608
658.185065	67.600699
660.501515	68.469930
662.815366	67.629371
665.130632	66.211189
667.443302	66.080420
669.757387	68.380420
672.066872	69.911189
674.377773	68.154545
676.686081	71.662238
678.993801	69.010490
681.302936	70.457343
683.607478	71.504196
685.911434	70.804895
688.214803	70.137762
690.519587	67.729371
692.819785	67.188112
695.121398	66.147552
697.422425	67.068531
699.718870	66.260140
702.016731	64.507692
704.314008	64.996503
706.610702	65.238462
708.902820	66.635664
711.198349	66.429371
713.489305	65.088112
715.781675	65.009091
718.071469	65.151748
720.360684	65.555245
722.649318	66.183916
724.935381	67.441958
727.222857	67.353147
729.507763	67.180420
731.792090	68.105594
734.073849	68.432168
736.357023	67.165035
738.639618	64.992308
740.917659	65.090909
743.197113	64.257343
745.475992	63.137063
747.754295	61.732168
750.028049	61.839860
752.303217	61.466434
754.577811	61.491608
756.849846	62.127972
759.123293	62.472028
761.394183	63.996503
763.662517	66.574126
765.932264	66.618182
768.199457	69.823077
770.466079	69.611189
772.732132	70.868531
774.995632	71.529371
777.260546	72.048252
779.524890	72.197902
781.784705	72.769930
784.045933	71.765734
786.306593	72.622378
788.564706	73.576224
790.820275	74.131469
793.079235	70.012587
795.331696	71.098601
797.589524	70.762937
799.842832	71.845455
802.093601	72.425874
804.345782	72.261538
806.595425	72.051748
808.846479	72.861538
811.093022	73.244755
813.340978	73.783217
815.586398	71.944755
817.833230	69.903497
820.079501	66.592308
822.321268	66.069930
824.566417	63.706294
826.805094	62.462238
829.047154	61.796503
831.284715	60.737063
833.523687	60.451748
835.760133	62.100000
837.997991	61.112587
840.233323	60.079021
842.466131	56.899301
844.700351	56.688811
846.932049	55.804895
849.163192	60.557343
851.393780	61.516084
853.623814	63.449650
855.853293	65.670629
858.078291	66.130769
860.306664	66.297902
862.530558	67.093706
864.755862	62.554545
866.976691	59.539860
869.200892	55.746154
871.420620	55.632867
873.641759	54.927273
875.862347	57.180420
878.080425	56.837063
880.299914	59.079720
882.514936	60.164336
884.729410	58.790210
886.943337	58.658042
889.156716	58.253846
891.369549	55.340559
893.581834	52.783217
895.791618	52.682517
898.000856	52.371329
900.209548	53.688811
902.415742	57.731469
904.623345	61.539860
906.828451	65.469231
909.033013	66.655245
911.235079	68.416084
913.438555	70.924476
915.639537	69.528671
917.839978	67.765734
920.041827	63.952448
922.237284	63.218182
924.436101	60.182517
926.630480	61.454545
928.828215	64.481119
931.021515	64.912587
933.216224	68.246853
935.408447	70.221678
937.600132	71.514685
939.791279	73.444056
941.979943	72.169930
944.168070	69.690210
946.353717	67.994406
948.542716	67.381119
950.727292	65.786014
952.911333	62.968531
955.098724	62.711888
957.277812	65.323776
959.460249	67.604895
961.642153	69.038462
963.821583	71.372727
965.998540	75.138462
968.176905	76.311888
970.356676	75.243357
972.530099	77.892308
974.706868	75.718881
976.879231	72.868531
979.053000	67.862937
981.222366	68.880420
983.395077	70.799301
985.565321	71.778322
987.735037	72.749650
989.904224	76.034965
992.069014	80.519580
994.237145	84.494406
996.400882	85.819580
998.566025	86.939161
1000.728710	85.329371
1002.890868	84.776923
1005.050570	84.504196
1007.209748	83.580420
1009.370332	82.613287
1011.528461	81.685315
1013.686066	80.486014
1015.843148	81.976923
1017.999707	83.695804
1020.151886	86.299301
1022.305471	85.360839
1024.458535	87.220979
1026.609151	86.892308
1028.761172	89.747552
1030.908820	92.851049
1033.059800	94.744755
1035.206409	97.119580
1037.352500	99.856643
1039.498071	101.925874
1041.645048	104.165734
1043.785737	104.749650
1045.929754	108.695105
1048.071331	109.113287
1050.212392	109.319580
1052.354857	105.339860
1054.491043	108.529371
1056.630555	103.567832
1058.765711	101.204895
1060.904192	98.341958
1063.038320	97.160839
1065.171933	95.527972
1067.306952	95.785315
1069.437621	95.158741
1071.569695	98.322378
1073.699340	99.356643
1075.828473	98.586713
1077.957094	97.343357
1080.085204	98.139161
1082.210888	91.837762
1084.336062	92.394406
1086.462640	89.860839
1088.584881	90.916084
1090.708525	92.162937
1092.827836	93.566434
1094.952375	92.344755
1097.070669	94.411888
1099.190368	93.602797
1101.307648	93.466434
1103.424422	93.011888
1105.540689	88.981119
1107.654541	86.809790
1109.769796	85.420979
1111.880729	83.734266
1113.994973	84.951049
1116.104897	84.533566
1118.216225	84.114685
1120.327049	84.379720
1122.433556	85.159441
1124.543372	85.257343
1126.648874	87.456643
1128.755779	86.232867
1130.856469	82.565734
1132.962371	82.914685
1135.063964	80.608392
1137.166960	80.336364
1139.269455	78.522378
1141.365744	77.676224
1143.467239	76.434965
1145.564432	76.703497
1147.661126	75.278322
1149.757323	76.481119
1151.853021	78.327972
1153.948222	78.242657
1156.041026	80.562937
1158.135232	81.725175
1160.223247	80.755245
1162.316460	82.225874
1164.403485	85.448951
1166.493810	86.313986
1168.579846	85.333566
1170.669180	83.443357
1172.752333	80.197203
1174.836889	80.062238
1176.922845	80.256643
1179.004520	77.739161
1181.087597	77.659441
1183.168288	75.116084
1185.248487	75.713986
1187.328195	78.630070
1189.407412	81.739161
1191.484247	81.329371
1193.558701	81.768531
1195.636447	80.714685
1197.709922	81.165734
1199.784798	81.765734
1201.855407	82.214685
1203.927418	80.018182
1205.997052	80.890210
1208.068087	79.254545
1210.138634	80.459441
1212.204920	81.536364
1214.272607	81.318881
1216.337922	81.695105
1218.404637	82.182517
1220.467096	81.555245
1222.532840	80.174126
1224.594331	79.506993
1226.657221	82.225175
1228.717744	83.637063
1230.777784	85.332867
1232.837340	84.937063
1234.894531	89.927972
1236.951241	91.826573
1239.005588	92.611189
1241.063215	92.319580
1243.118480	90.155245
1245.169504	87.879720
1247.221928	85.715385
1249.273873	85.913986
1251.323458	87.823776
1253.372565	87.400699
1255.421194	86.995105
1257.469344	88.897902
1259.517016	89.696503
1261.560457	87.852448
1263.607173	89.513287
1265.651537	88.630769
1267.695423	88.259441
1269.736959	91.260140
1271.776145	93.889510
1273.818603	95.462937
1275.856839	99.336364
1277.896474	99.537063
1279.935634	100.434965
1281.970576	98.658741
1284.006916	97.798601
1286.040911	99.151049
1288.076305	102.751049
1290.107485	103.826573
1292.140064	105.998601
1294.172170	109.655245
1296.201936	112.341259
1298.233100	111.832168
1300.260056	112.959441
1302.288410	110.784615
1304.312560	110.620280
1306.339974	110.016783
1308.363187	113.853147
1310.387796	116.019580
1312.410072	120.527273
1314.433745	124.201399
1316.455085	129.415385
1318.475957	135.473427
1320.496363	139.218881
1322.512574	142.465734
1324.530184	145.613986
1326.545465	148.532168
1328.564005	152.320280
1330.578355	156.579021
1332.590380	160.379021
1334.605662	163.194406
1336.616759	164.142657
1338.629253	164.869231
1340.637564	166.090909
1342.649131	164.641958
1344.654658	161.409091
1346.663441	160.223776
1348.668046	156.425874
1350.675905	152.618182
1352.683302	149.958042
1354.684668	148.034266
1356.687431	144.669930
1358.689733	140.839161
1360.691576	135.420979
1362.692960	131.097203
1364.692029	126.971329
1366.690640	121.646154
1368.688793	118.237063
1370.686488	116.921678
1372.680019	113.632168
1374.674947	108.330070
1376.669418	105.467832
1378.663432	101.342657
1380.655139	98.419580
1382.646390	95.849650
1384.635336	96.152448
1386.625677	96.041958
1388.615563	97.125874
1390.603146	97.753846
1392.590275	99.842657
1394.575102	98.972727
1396.561323	100.995804
1398.545245	96.495105
1400.528714	96.730070
1402.511731	96.352448
1404.492450	96.203497
1406.474563	96.806294
1408.454379	98.512587
1410.433745	97.969231
1412.408971	96.931469
1414.387437	94.516783
1416.363609	92.808392
1418.339331	90.746154
1420.314604	90.771329
1422.287586	88.076923
1424.260120	90.594406
1426.232207	91.138462
1428.203845	92.008392
1430.171355	92.597203
1432.143940	92.497203
1434.108718	92.710490
1436.078569	91.242657
1438.044295	89.804895
1440.011415	89.879720
1441.976250	90.101399
1443.936967	89.642657
1445.902751	90.774825
1447.862580	90.544755
1449.823802	92.274825
1451.786417	94.547552
1453.744917	93.576923
1455.702975	92.946154
1457.660590	93.467133
1459.617764	92.900699
1461.572662	92.758741
1463.528952	95.078322
1465.482968	96.551049
1467.436544	100.487413
1469.387847	102.251049
1471.340542	107.151049
1473.290966	110.485315
1475.240951	110.863636
1477.190496	110.723077
1479.137773	110.242657
1481.082783	108.468531
1483.029184	105.713287
1484.975149	104.650350
1486.920675	103.594406
1488.863937	104.601399
1490.806762	107.032168
1492.747324	107.149650
1494.689277	111.898601
1496.628969	112.352448
1498.568225	113.409790
1500.507047	114.792308
1502.443608	116.276224
1504.381561	114.402797
1506.317256	116.869930
1508.252517	118.363636
1510.185521	116.848951
1512.118093	117.506993
1514.050233	117.834965
1515.981941	117.520979
1517.911395	122.155245
1519.842240	123.942657
1521.772654	125.397902
1523.698995	126.330769
1525.626726	131.323077
1527.552207	132.958741
1529.477259	139.358042
1531.401882	142.402797
1533.326076	143.897902
1535.248023	145.475524
1537.171359	149.913986
1539.092450	156.528671
1541.011296	165.141259
1542.931532	174.699301
1544.849524	186.251049
1546.767090	198.716084
1548.682414	217.439860
1550.599128	237.695804
1552.511787	268.128671
1554.427650	306.425874
1556.341273	353.386014
1558.252659	413.171329
1560.165433	484.270629
1562.074158	564.478322
1563.984273	641.043357
1565.893964	707.104196
1567.803231	753.156643
1569.710265	768.377622
1571.615066	757.368531
1573.521256	717.658741
1575.425214	658.578322
1577.328752	586.180420
1579.231868	508.512587
1581.132756	437.735664
1583.035031	374.742657
1584.935079	326.876224
1586.836515	292.190909
1588.733916	264.134266
1590.630899	243.374126
1592.527464	223.097902
1594.425417	207.910490
1596.317535	195.067133
1598.212846	187.913986
1600.107740	182.059441
1602.000412	176.555245
1603.892668	173.135664
1605.782704	169.775524
1607.672324	164.524476
1609.561529	162.237762
1611.450318	154.619580
1613.336891	147.464336
1615.224850	140.437762
1617.108793	132.872028
1618.994124	127.210490
1620.879040	121.607692
1622.761744	117.715385
1624.645833	113.135664
1626.525912	109.271329
1628.407377	106.757343
1630.286632	102.732867
1632.167273	102.190210
1634.042110	100.023077
1635.921929	99.153846
1637.797742	98.879021
1639.673145	96.080420
1641.549935	88.344755
1643.420927	88.833566
1645.295101	91.334965
1647.165277	90.629371
1649.038633	90.781818
1650.909786	91.492308
1652.778737	92.465035
1654.649074	93.969231
1656.515417	90.139860
1658.383146	88.811888
1660.248677	85.186713
1662.115592	80.403497
1663.978519	72.306294
1665.842831	74.223077
1667.704947	73.579720
1669.566659	71.159441
1671.429755	70.688112
1673.290657	70.960839
1675.149365	69.239161
1677.007670	67.927273
1678.867360	62.585315
1680.721283	64.040559
1682.578378	62.565734
1684.435071	63.567133
1686.287788	60.254545
1688.143676	58.737762
1689.995589	60.527273
1691.847102	60.634266
1693.698215	61.028671
1695.548926	61.693706
1697.399237	59.834965
1699.247364	60.693706
1701.096874	57.695804
1702.940636	59.245455
1704.789348	58.498601
1706.632313	59.942657
1708.478444	55.934266
1710.320614	54.513287
1712.165948	54.711189
1714.005542	54.488811
1715.846520	53.327273
1717.688881	53.791608
1719.527286	53.990909
1721.367074	54.756643
1723.204687	54.262238
1725.041904	56.830769
1726.876948	60.216783
1728.713375	64.639161
1730.547630	66.172727
1732.381490	67.148951
1734.214957	68.022378
1736.044477	68.121678
1737.877156	63.849650
1739.705891	60.775524
1741.537784	57.449650
1743.365734	53.045455
1745.193292	49.683217
1747.020458	47.607692
1748.847233	49.513986
1750.673617	51.769930
1752.496064	53.673427
1754.321665	54.258042
1756.143332	55.548252
1757.966381	54.677622
1759.787269	52.202797
1761.607767	53.962238
1763.429647	51.527972
1765.245827	53.369930
1767.065159	54.177622
1768.880564	55.992308
1770.699119	57.574126
1772.513749	58.446853
1774.327993	59.116084
1776.141849	59.789510
1777.955319	60.009790
1779.766636	57.623077
1781.579334	58.814685
1783.391645	59.334266
1785.200039	58.261538
1787.009814	61.593007
1788.815673	61.678322
1790.624679	61.366434
1792.429771	59.338462
1794.236243	57.362238
1796.042332	54.252448
1797.844511	55.569231
1799.649833	52.891608
1801.451247	50.797203
1803.254041	54.576224
1805.052929	55.982517
1806.853198	57.746853
1808.653085	58.937063
1810.450831	60.246154
1812.248196	60.013287
1814.045180	60.439860
1815.841784	56.746853
1817.636249	55.480420
1819.432093	55.339161
1821.222283	54.145455
1823.017369	55.970629
1824.806802	56.925175
1826.599372	56.435664
1828.389807	56.299301
1830.178108	56.348252
1831.969544	53.917483
1833.755334	54.009790
1835.542504	52.715385
1837.327542	51.144056
1839.115714	52.037063
1840.900000	51.381119
1842.682157	53.662937
1844.465692	53.667133
1846.247099	52.583217
1848.029885	52.153846
1849.808791	52.199301
1851.589075	51.569930
1853.367233	51.795105
1855.146770	54.216783
1856.924182	53.008392
1858.699470	52.630769
1860.476137	51.510490
1862.250681	50.246853
1864.026602	49.997203
1865.796904	49.500000
1867.570332	50.549650
1869.341641	50.818881
1871.112580	52.479021
1872.884895	51.644755
1874.651598	53.891608
1876.421425	55.597203
1878.187389	56.726573
1879.956477	58.092308
1881.721703	58.587413
1883.486561	56.683217
1885.252795	54.635664
1887.015171	51.544056
1888.777180	50.251049
1890.538822	47.845455
1892.300096	47.242657
1894.061003	44.723776
1895.821544	42.913986
1897.579975	46.265035
1899.338041	49.148252
1901.093998	52.981119
1902.851333	51.667133
1904.608301	50.583916
1906.363164	48.006294
1908.115921	45.879021
1909.868315	43.808392
1911.622084	42.779021
1913.373750	44.020979
1915.123314	42.327972
1916.874254	41.883217
1918.624830	44.400699
1920.371568	44.552448
1922.119681	47.034965
1923.865695	45.330769
1925.613085	46.945455
1927.358376	47.735664
1929.101570	49.488112
1930.846140	48.392308
1932.588613	53.058741
1934.330726	53.948252
1936.072479	53.293357
1937.813873	54.413287
1939.553173	53.325524
1941.292114	52.259441
1943.030696	49.975175
1944.767186	48.141259
1946.503319	48.492657
1948.240826	47.418881
1949.974512	47.158392
1951.709571	47.006294
1953.442543	50.889860
1955.175158	50.263636
1956.907416	49.996154
1958.639318	49.049650
1960.369134	50.536364
1962.096866	50.437762
1963.825971	48.641958
1965.554722	48.661538
1967.281389	48.529371
1969.007702	47.182517
1970.735388	47.173427
1972.457538	46.990210
1974.182789	48.418881
1975.904234	50.379720
1977.628778	52.303497
1979.351243	51.923776
1981.069904	55.783217
1982.791664	54.309091
1984.509622	51.790210
1986.228954	49.556643
1987.944485	50.332168
1989.664838	47.602797
1991.381391	46.102098
1993.094149	45.774825
1994.810002	47.223776
1996.523782	49.960839
1998.237213	52.972028
1999.948573	52.551748
2001.661306	53.697203
2003.370247	50.674825
2005.082282	47.716783
2006.788807	42.659441
2008.498425	46.197203
2010.205975	46.785315
2011.913178	49.025175
2013.618315	49.765734
2015.323105	51.608392
2017.029267	52.188811
2018.731647	53.729371
2020.435399	51.668531
2022.137087	52.519580
2023.838431	51.516084
2025.539429	51.231469
2027.238367	48.820979
2028.938675	52.981818
2030.635209	54.680420
2032.333114	54.360839
2034.028961	52.672727
2035.727892	52.647552
2037.421338	49.460839
2039.116156	49.274825
2040.810630	47.109790
2042.501336	47.955245
2044.195126	46.878322
2045.885149	48.393706
2047.576543	46.437762
2049.265884	46.312587
2050.956595	47.423077
2052.643544	47.588112
2054.330152	48.553846
2056.018131	51.537063
2057.702350	53.534266
2059.387939	56.318182
2061.073189	55.102797
2062.756391	54.031469
2064.440962	52.616084
2066.120071	53.380420
2067.803965	50.921678
2069.482399	51.323077
2071.163909	50.917483
2072.841669	49.353147
2074.519091	48.930769
2076.197884	48.216084
2077.874633	49.368531
2079.549341	49.846853
2081.225418	47.997902
2082.899455	48.405594
2084.573156	48.805594
2086.246522	49.658042
2087.917850	51.057343
2089.588843	50.803497
2091.259502	49.392308
2092.929826	47.947552
2094.599817	47.737762
2096.267772	48.360140
2097.935394	50.102797
2099.600982	50.151748
2101.267938	48.595804
2102.932861	50.361538
2104.597451	51.944755
2106.260010	52.859441
2107.923937	51.640559
2109.585834	49.646853
2111.247399	49.565734
2112.908634	50.231469
2114.567839	51.976224
2116.226715	51.959441
2117.885260	51.267133
2119.543476	50.195105
2121.197968	50.456643
2122.855525	51.227972
2124.512753	49.595804
2126.166259	50.588112
2127.821133	49.618182
2129.472289	51.719580
2131.126506	50.353846
2132.777007	50.254545
2134.428874	49.602797
2136.075333	48.650350
2137.726547	49.610490
2139.374047	48.379021
2141.022914	50.573427
2142.669763	48.761538
2144.316285	47.487413
2145.962482	47.857343
2147.604971	46.279720
2149.250518	43.947552
2150.892358	40.495804
2152.537255	40.912587
2154.178447	42.694406
2155.819315	45.884615
2157.459860	46.734965
2159.098392	48.813986
2160.738290	53.039860
2162.374488	51.970629
2164.012052	51.387413
2165.649293	47.193706
2167.284525	46.660839
2168.919436	45.692308
2170.554025	43.996503
2172.188292	45.011189
2173.818867	47.123776
2175.452492	48.616783
2177.082426	47.783217
2178.713725	49.372028
2180.343020	49.785315
2181.971994	51.723077
2183.600650	52.576923
2185.228986	49.854545
2186.855319	52.823077
2188.481334	55.304196
2190.105348	53.155245
2191.730726	52.250350
2193.354105	52.622378
2194.978847	52.933566
2196.599909	50.202797
2198.220654	50.916783
2199.842764	51.699301
2201.462876	55.046154
2203.080991	51.651049
2204.698791	49.391608
2206.316276	50.913287
2207.933445	50.656643
2209.550299	46.336364
2211.166838	45.653846
2212.781383	42.763636
2214.393936	42.049650
2216.007853	40.449650
2217.619779	43.443357
2219.233068	45.134965
2220.844367	46.625874
2222.453676	46.588112
2224.064349	48.462937
2225.673033	50.145455
2227.281405	51.228671
2228.887789	53.013287
2230.495537	54.143357
2232.101298	50.627972
2233.706748	49.708392
2235.310214	49.790909
2236.915042	50.702098
2238.517886	49.798601
2240.118747	49.755245
2241.720971	49.855944
2243.321212	47.962238
2244.922816	46.551748
2246.520768	48.066434
2248.120082	48.755944
2249.717416	49.309091
2251.314442	48.643357
2252.912829	52.541259
2254.507568	54.323077
2256.100331	54.931469
2257.694455	54.410490
2259.289941	53.940559
2260.881783	50.609091
2262.473318	46.590210
2264.066214	45.750350
2265.653801	44.803497
2267.246085	46.326573
2268.833061	46.939860
2270.423066	46.318881
2272.007766	46.762238
2273.597160	46.827273
2275.181251	45.948951
2276.766704	45.997203
2278.350187	47.093706
2279.936697	46.846853
2281.519573	49.611888
2283.102145	53.059441
2284.684414	54.322378
2286.263054	57.074825
2287.844717	55.080420
2289.422752	53.732867
2291.003810	52.348252
2292.581242	51.809091
2294.156710	48.848252
2295.735199	47.811888
2297.310065	48.066434
2298.884630	46.376224
2300.458895	46.650350
2302.032859	45.908392
2303.606523	46.074825
2305.179886	44.821678
2306.749631	46.003497
2308.319077	46.762937
2309.891542	47.383916
2311.458731	46.616783
2313.028939	46.354545
2314.595532	46.916084
2316.163485	49.711189
2317.729483	51.265035
2319.295182	51.237762
2320.860585	52.376224
2322.424034	55.225175
2323.988841	56.272028
2325.550041	57.087413
2327.114255	58.372028
2328.673208	57.604895
2330.235174	56.322378
2331.795190	54.107692
2333.354910	52.265035
2334.912681	52.185315
2336.470158	49.609790
2338.027339	50.958741
2339.582574	51.797902
2341.137514	53.500699
2342.692161	51.145455
2344.246514	53.160839
2345.800573	53.690210
2347.354338	51.633566
2348.906160	51.802098
2350.456038	52.936364
2352.008924	50.330070
2353.556568	50.860140
2355.107219	51.312587
2356.654280	54.755944
2358.202698	52.660839
2359.750824	53.618881
2361.295363	51.997203
2362.841259	54.345455
2364.385216	49.467133
2365.930531	51.142657
2367.472261	50.507692
2369.015348	51.679720
2370.556500	49.816783
2372.097362	51.882517
2373.637935	51.468531
2375.178219	52.531469
2376.718214	52.723776
2378.254630	51.913986
2379.794048	50.090210
2381.329889	48.142657
2382.867086	44.720979
2384.400709	46.527273
2385.937331	45.001399
2387.472022	44.804895
2389.004784	46.432168
2390.537260	50.157343
2392.067807	50.933566
2393.601352	53.987413
2395.129686	53.527972
2396.659376	52.760140
2398.188781	52.467832
2399.717900	51.549650
2401.246735	51.023776
2402.770365	51.620979
2404.298630	50.102098
2405.821692	51.353846
2407.349388	53.447552
2408.870245	58.584615
2410.395735	60.595105
2411.917664	63.058042
2413.440949	62.870629
2414.962313	65.639860
2416.481757	64.488112
2418.002556	65.056643
2419.521436	63.914685
2421.040034	62.816783
2422.556715	64.118881
2424.074750	67.774126
2425.592504	67.267133
2427.106707	69.081119
2428.620629	68.753846
2430.134272	67.006993
2431.649268	63.294406
2433.160716	62.504196
2434.673519	59.639860
2436.184409	60.249650
2437.695019	58.689510
2439.203718	61.455944
2440.715404	65.067133
2442.223546	65.809790
2443.731409	64.147552
2445.238995	65.007692
2446.743040	65.589510
2448.250071	63.674126
2449.755193	62.972727
2451.260038	64.109091
2452.762976	61.769930
2454.265637	62.071329
2455.768022	57.690210
2457.268502	61.684615
2458.770335	61.920280
2460.270264	61.254545
2461.769917	59.621678
2463.269295	59.752448
2464.766769	59.493007
2466.262343	60.881818
2467.760896	61.065035
2469.255920	61.879720
2470.752298	61.223077
2472.245149	60.775524
2473.739352	59.690210
2475.233282	63.500699
2476.723689	63.383916
2478.217072	62.155944
2479.708558	58.258042
2481.198147	55.227273
2482.687464	55.556643
2484.174886	57.613287
2485.665283	56.106993
2487.152161	59.172727
2488.640391	59.046853
2490.125105	58.688112
2491.609548	58.606993
2493.095343	57.027273
2494.579245	54.583217
2496.064499	52.623776
2497.544619	48.902797
2499.027711	46.068531
2500.508913	48.044056
2501.989846	50.217483
2503.468890	50.591608
2504.947666	49.888112
2506.426172	48.059441
2507.904411	47.428671
2509.382381	47.041958
2510.856847	48.323077
2512.334281	47.080420
2513.808212	48.524476
2515.283494	47.548951
2516.758508	47.377622
2518.230021	49.095105
2519.702885	48.939161
2521.173865	48.962238
2522.646196	46.355944
2524.113414	47.304196
2525.583597	46.503497
2527.051900	47.972028
2528.519938	50.744056
2529.987711	50.679720
2531.455219	50.360839
2532.922462	50.213287
2534.386213	52.159441
2535.851315	51.569231
2537.314538	51.351748
2538.779112	51.034965
2540.240196	50.216084
2541.702630	50.072727
2543.164801	49.536364
2544.623486	51.956643
2546.086743	55.054545
2547.544903	55.859441
2549.004412	59.270629
2550.458828	60.855944
2551.917813	62.794406
2553.374927	62.012587
2554.830170	62.814685
2556.285152	61.741259
2557.738264	61.559441
2559.192725	61.309790
2560.645317	61.508392
2562.097649	61.731469
2563.548113	61.728671
2565.001533	58.683217
2566.449871	59.798601
2567.901165	56.682517
2569.350592	56.037762
2570.796548	56.425175
2572.245458	58.379720
2573.690897	58.382517
2575.137685	62.304196
2576.582609	63.754545
2578.027276	66.027972
2579.473290	67.723077
2580.915837	67.414685
2582.359732	65.476923
2583.800162	64.869231
2585.241940	64.362937
2586.681857	63.137762
2588.123122	63.176224
2589.560926	60.601399
2591.001679	61.548252
2592.437369	63.753147
2593.876009	64.344056
2595.312792	66.684615
2596.747718	66.475524
2598.185593	67.412587
2599.618410	67.488112
2601.052573	67.234266
2602.484883	68.868531
2603.918539	67.490210
2605.350342	68.700000
2606.781892	66.873427
2608.213188	68.225175
2609.642633	70.974126
2611.071825	74.562937
2612.499166	76.204196
2613.927854	77.833566
2615.356289	80.123776
2616.781277	81.155245
2618.207612	82.309790
2619.632098	83.599301
2621.057930	82.916783
2622.480318	83.459441
2623.904052	83.890210
2625.325940	83.507692
2626.747577	88.839860
2628.167369	92.139161
2629.588507	93.636364
2631.009395	96.923776
2632.426845	99.081818
2633.847234	102.657343
2635.264186	105.465035
2636.680890	98.016783
2638.097345	109.718182
2639.513552	119.210490
2640.929510	128.823776
2642.343628	134.602797
2643.757499	142.914685
2645.169530	146.382517
2646.582906	145.718881
2647.992852	145.247552
2649.405733	141.969930
2650.815187	139.032168
2652.224394	135.814685
2653.631765	128.202797
2655.042070	143.009790
2656.450539	148.006294
2657.857173	156.377622
2659.263562	160.437762
2660.668117	164.830769
2662.074016	166.934266
2663.478082	167.851748
2664.881904	167.156643
2666.285481	169.479720
2667.687226	171.437063
2669.090315	174.941958
2670.489987	176.990210
2671.891001	180.774825
2673.288600	184.676224
2674.689129	187.989510
2676.086243	184.242657
2677.484700	185.125874
2678.881329	186.648951
2680.277716	189.232168
2681.673862	188.844755
2683.068181	193.266434
2684.463843	193.837063
2685.856095	198.427972
2687.249691	199.233566
2688.641462	197.952448
2690.034575	197.781818
2691.425865	197.112587
2692.815332	193.380420
2694.204560	193.981818
2695.593547	194.464336
2696.983877	192.980420
2698.369222	190.681818
2699.757491	187.571329
2701.143940	183.535664
2702.530150	181.486014
2703.916122	176.949650
2705.298695	173.234266
2706.682609	170.727972
2708.066286	167.027273
2709.449725	162.053846
2710.829768	158.442657
2712.211153	154.930070
2713.590722	151.290210
2714.971633	147.280420
2716.350729	141.262937
2717.728010	137.981119
2719.106633	135.859441
2720.483443	134.714685
2721.860017	132.523776
2723.236355	128.751049
2724.610881	125.413986
2725.986748	121.291608
2727.359228	116.997203
2728.734625	112.753147
2730.105060	109.041259
2731.476837	101.062937
2732.848380	95.551049
2734.218114	90.058042
2735.589188	87.764336
2736.958455	83.822378
2738.327488	80.385315
2739.694714	77.215385
2741.061708	76.158042
2742.428469	73.279021
2743.794997	71.485315
2745.159720	69.558042
2746.524212	69.977622
2747.888471	68.043357
2749.252499	69.709091
2750.616294	70.027972
2751.976716	72.215385
2753.340049	71.066434
2754.698439	70.198601
2756.059739	68.032168
2757.417668	66.342657
2758.778507	62.561538
2760.137545	58.471329
2761.493215	51.979021
2762.851793	59.306993
2764.207005	62.190210
2765.561987	65.357343
2766.915172	66.500699
2768.271264	68.086713
2769.623992	68.118182
2770.976491	64.013986
2772.328762	60.643357
2773.682372	57.489510
2775.032620	54.089510
2776.381075	49.660839
2777.732434	48.176224
2779.080434	57.015385
2780.429773	55.840559
2781.777319	55.745455
2783.124638	56.396503
2784.471731	55.020979
2785.817033	53.595804
2787.162109	51.466434
2788.506959	53.076224
2789.851582	53.391608
2791.192854	55.548252
2792.535464	56.900699
2793.877848	58.320280
2795.220008	58.581119
2796.558818	56.788112
2797.900527	54.709091
2799.238889	53.832168
2800.578588	51.805594
2801.916501	52.620979
2803.252630	54.571329
2804.588536	56.397203
2805.925778	57.354545
2807.261237	58.172028
2808.596473	59.630769
2809.929927	59.039860
2811.264717	58.895105
2812.596166	58.209091
2813.930511	56.076923
2815.259958	54.697902
2816.590742	52.646154
2817.921304	51.119580
2819.250087	51.753846
2820.580207	50.305594
2821.908547	50.446853
2823.236667	48.955245
2824.563010	50.232867
2825.890688	52.990909
2827.215034	54.893706
2828.540715	55.369930
2829.864621	54.288811
2831.188308	54.416783
2832.513330	53.385315
2833.835023	54.422378
2835.156496	54.990909
2836.477751	51.649650
2837.798787	49.735664
2839.118051	50.064336
2840.438650	50.469930
2841.757477	51.235664
2843.076086	48.140559
2844.392925	46.139860
2845.709546	45.932168
2847.025949	48.167133
2848.340584	47.120280
2849.656553	49.548951
2850.969202	48.118881
2852.283187	47.690909
2853.596955	48.195804
2854.910506	50.215385
2856.222290	50.159441
2857.532309	49.338462
2858.843661	47.163636
2860.151699	46.072727
2861.461072	46.787413
2862.770229	46.088811
2864.079171	43.837063
2865.386350	42.899301
2866.691765	41.458741
2867.998515	42.246853
2869.303502	41.058042
2870.608276	41.920979
2871.911288	43.449650
2873.217182	45.260140
2874.518220	44.963636
2875.820593	47.023776
2877.121206	49.983217
2878.423153	49.103497
2879.724887	48.922378
2881.023317	50.306294
2882.323080	50.872028
2883.621085	49.430769
2884.918879	46.216783
2886.214917	46.923077
2887.512288	47.269930
2888.807903	49.391608
2890.103307	47.369231
2891.398501	48.424476
2892.690396	48.473427
2893.985168	45.418182
2895.276643	44.337762
2896.569452	43.993007
2897.862049	43.687413
2899.151353	42.397902
2900.441989	40.980420
2901.730874	42.487413
2903.021092	43.607692
2904.308018	45.293007
2905.596276	44.874126
2906.882784	46.640559
2908.169085	48.513986
2909.455177	45.517483
2910.739521	44.018881
2912.026737	44.150350
2913.309126	46.682517
2914.592846	45.572727
2915.874821	45.229371
2917.156589	44.043357
2918.436611	45.127273
2919.719503	44.809091
2921.000650	42.800699
2922.278515	42.426573
2923.559249	42.643357
2924.836702	38.497203
2926.113950	37.392308
2927.389455	38.521678
2928.667828	40.640559
2929.941386	40.876923
2931.217812	41.342657
2932.492497	44.011888
2933.765442	46.497203
2935.039717	45.680420
2936.312253	44.826573
2937.584585	44.334266
2938.853644	42.431469
2940.125567	38.464336
2941.395753	37.254545
2942.665736	36.958042
2943.935515	35.480420
2945.203557	32.404196
2946.469864	33.263636
2947.735968	36.715385
2949.003402	35.923776
2950.269102	35.937063
2951.534599	38.470629
2952.799894	37.721678
2954.061924	37.934965
2955.325285	37.753846
2956.588444	39.901399
2957.849870	38.470629
2959.112626	37.595804
2960.373651	35.286014
2961.632945	36.908392
2962.892038	36.862238
2964.150931	35.367133
2965.409624	34.589510
2966.668117	37.590210
2967.924881	37.046154
2969.181445	39.731469
2970.436282	41.830070
2971.692448	44.272028
2972.945358	42.116084
2974.199598	45.504196
2975.453639	43.362238
2976.705954	46.169930
2977.958071	45.500000
2979.208463	43.846154
2980.461710	40.997902
2981.710180	40.776923
2982.961504	39.667832
2984.209580	38.578322
2985.457458	35.931469
2986.705139	36.798601
2987.952624	36.240559
2989.198387	38.535664
2990.443953	37.090210
2991.690848	40.123077
2992.934497	39.749650
2994.179475	41.045455
2995.421210	41.266434
2996.665796	40.058042
2997.908662	41.567133
2999.148288	39.172727
3000.390765	38.193007
3001.630001	40.622378
3002.870565	36.665035
3004.109412	34.590909
3005.348065	33.949650
3006.585002	33.039161
3007.823266	31.455944
3009.059816	30.400000
3010.296171	29.634266
3011.532333	28.618182
3012.766782	30.286014
3014.001037	30.772727
3015.235099	31.421678
3016.467449	31.339860
3017.698087	28.955944
3018.931571	31.451748
3020.163343	32.727273
3021.393405	31.760839
3022.623275	30.481818
3023.851435	30.541958
3025.080921	31.176224
3026.308699	32.197203
3027.536285	33.802098
3028.765197	34.365734
3029.989367	34.825175
3031.216380	34.923776
3032.440170	35.151049
3033.665285	37.157343
3034.888694	37.585315
3036.111914	37.169231
3037.333428	35.561538
3038.557783	36.881119
3039.777403	37.133566
3040.998348	38.218182
3042.219105	38.407692
3043.438158	36.235664
3044.658537	37.204196
3045.875699	36.045455
3047.094186	36.672727
3048.310972	35.951748
3049.527569	33.764336
3050.743979	28.625874
3051.957175	24.258741
3053.173209	24.010490
3054.386031	22.525874
3055.601690	23.174126
3056.812626	24.092308
3058.024887	25.307692
3059.236962	25.802098
3060.448850	26.220280
3061.659040	28.355245
3062.869045	27.653497
3064.078863	26.134266
3065.286985	24.733916
3066.494921	24.143357
3067.701163	26.174476
3068.908728	25.456643
3070.114600	29.410140
3071.320286	32.446154
3072.525787	31.938811
3073.729596	31.930769
3074.934728	33.412238
3076.138167	33.977622
3077.339914	35.002448
3078.541478	35.052448
3079.742858	35.813986
3080.944054	35.432867
3082.143560	32.753147
3083.342882	29.725175
3084.543528	30.720280
3085.742485	29.325874
3086.938246	27.940559
3088.136837	27.944056
3089.332234	27.376923
3090.528954	27.237063
3091.722482	28.681818
3092.918839	28.985315
3094.113508	31.590909
3095.304987	33.806993
3096.500797	34.848252
3097.691914	37.132168
3098.884353	36.978322
3100.073605	35.737762
3101.265683	33.245455
3102.456076	31.556643
3103.643284	28.475524
3104.831815	26.461538
3106.021668	24.962238
3107.208336	23.588811
3108.394825	27.419580
3109.581134	30.811888
3110.768765	32.571329
3111.953215	31.101399
3113.135984	29.286713
3114.321577	28.612587
3115.505489	28.783916
3116.687723	30.889510
3117.869779	28.112587
3119.051656	24.523077
3120.233355	24.081119
3121.413376	24.224476
3122.591721	24.366434
3123.772887	23.497902
3124.950877	23.056643
3126.128690	22.159441
3127.306326	25.904895
3128.482287	28.620280
3129.658072	31.778322
3130.835177	34.410490
3132.010608	33.874126
3133.184366	32.948252
3134.356452	34.397203
3135.529858	33.611888
3136.703089	30.632867
3137.874647	28.585315
3139.047527	28.130769
3140.217239	25.919580
3141.388272	27.134266
3142.557634	25.299301
3143.725327	26.147552
3144.895835	27.435664
3146.061684	27.900699
3147.231843	27.418182
3148.397344	27.598601
3149.562672	28.681119
3150.727826	29.011189
3151.892806	24.682517
3153.059107	25.917483
3154.220754	24.879720
3155.383722	24.095804
3156.546516	23.494406
3157.709138	25.207692
3158.870095	27.109790
3160.030879	28.383916
3161.191491	28.192308
3162.350440	28.946154
3163.509216	29.011888
3164.667821	28.867133
3165.826254	26.422378
3166.984515	27.065035
3168.141114	24.105594
3169.296052	22.710490
3170.452309	22.574126
3171.606906	23.598601
3172.761331	23.858042
3173.914097	24.939161
3175.066693	24.078322
3176.219118	24.486713
3177.371374	26.141259
3178.523460	26.629371
3179.672399	25.939860
3180.824145	23.793706
3181.974234	24.804895
3183.122665	27.112587
3184.270928	26.018182
3185.419021	25.577622
3186.566946	24.781818
3187.713216	25.239161
3188.859317	23.620979
3190.003763	25.295804
3191.148042	26.983916
3192.292153	27.387413
3193.437582	26.186713
3194.579872	26.881119
3195.721994	28.793007
3196.863950	27.969930
3198.005738	23.774126
3199.147359	23.927273
3200.285844	24.800000
3201.425647	27.360140
3202.566768	28.858042
3203.704754	33.324476
3204.841091	35.665734
3205.977262	37.486014
3207.114751	38.506993
3208.250591	38.465035
3209.387747	36.905594
3210.520291	32.976923
3211.657117	28.628671
3212.789331	28.262937
3213.922863	27.958042
3215.056229	31.045455
3216.186468	31.320979
3217.319505	32.275524
3218.449416	32.406993
3219.580644	33.371329
3220.708746	36.146853
3221.839645	36.488112
3222.968901	36.465035
3224.096512	35.885315
3225.221002	36.596503
3226.349767	35.692308
3227.475410	33.638462
3228.600890	34.730070
3229.724729	32.182517
3230.851362	30.423776
3231.973398	28.595105
3233.096750	27.743357
3234.219940	26.186014
3235.342968	25.048951
3236.464356	23.159441
3237.585583	26.144755
3238.705171	25.607692
3239.824598	25.798601
3240.942387	27.179720
3242.062969	29.669930
3243.180436	30.320979
3244.297744	29.292308
3245.414890	29.053147
3246.530401	29.826573
3247.647227	26.816783
3248.760942	25.483916
3249.877448	24.055245
3250.992318	25.500000
3252.104080	23.546154
3253.215683	23.726573
3254.328600	20.059441
3255.441359	20.555944
3256.551011	21.424476
3257.661978	22.928671
3258.772786	23.096503
3259.881962	21.572727
3260.989507	26.520979
3262.098367	31.659441
3263.207068	35.744755
3264.312667	38.032168
3265.419581	36.071329
3266.524865	33.428671
3267.631463	31.686014
3268.734961	32.769930
3269.839773	29.338462
3270.944428	24.865035
3272.045984	18.794406
3273.147385	14.836364
3274.250099	18.860839
3275.352656	22.086014
3276.452118	21.995105
3277.554362	22.714685
3278.653512	22.671329
3279.751036	26.106294
3280.848405	26.686713
3281.948557	25.425874
3283.045615	21.972727
3284.142518	19.345455
3285.239267	19.529371
3286.331456	19.504196
3287.427895	19.440559
3288.522711	20.809091
3289.617372	17.561538
3290.710412	20.688112
3291.803298	20.993706
3292.894563	20.975524
3293.987141	21.150350
3295.078098	22.162238
3296.167437	20.260839
3297.256621	18.549650
3298.347119	18.566434
3299.434532	18.618881
3300.521793	13.306993
3301.610366	10.046853
3302.698786	9.080420
3303.782659	12.783916
3304.870774	11.195804
3305.955808	12.560140
3307.039226	14.888811
3308.123955	17.608392
3309.207070	18.398601
3310.291496	20.230769
3311.372844	20.742657
3312.455504	21.163636
3313.536550	20.970629
3314.617445	20.461538
3315.696727	20.683916
3316.775858	19.318881
3317.856300	15.101399
3318.933669	14.943357
3320.012349	12.846154
3321.089417	13.213287
3322.166335	13.644755
3323.241642	14.358042
3324.316800	12.688811
3325.393270	14.467832
3326.466668	15.391608
3327.539918	15.153846
3328.614479	13.969930
3329.687430	12.832168
3330.758774	12.981818
3331.831428	12.593007
3332.901015	13.013287
3333.971913	12.523776
3335.041204	13.088112
3336.111806	11.397203
3337.180801	12.363636
3338.248190	15.549650
3339.313974	12.041958
3340.383984	15.763636
3341.450931	15.976923
3342.514816	17.955944
3343.581469	19.787413
3344.646517	19.083916
3345.709963	19.459441
3346.773261	17.902098
3347.836414	14.839161
3348.899420	12.941958
3349.962279	13.563636
3351.023537	12.111189
3352.081738	8.075524
3353.144160	11.676923
3354.203525	13.773427
3355.262745	15.476224
3356.323275	16.442657
3357.379295	16.106993
3358.438080	15.232168
3359.492357	14.825874
3360.549397	12.588112
3361.604840	10.889510
3362.661591	7.820979
3363.716745	9.243357
3364.770301	7.095804
3365.822260	10.095804
3366.876981	13.088112
3367.928653	13.537762
3368.980182	12.903497
3370.033020	13.190210
3371.082810	12.527273
3372.133908	9.299301
3373.181961	10.311888
3374.232774	8.923776
3375.280541	7.417483
3376.328166	10.496503
3377.375649	8.333566
3378.421538	13.252448
3379.468736	15.841259
3380.512892	18.259441
3381.559806	17.988112
3382.605128	16.446154
3383.647410	12.669930
3384.689550	8.918881
3385.732998	8.880420
3386.776306	7.035664
3387.818023	4.242657
3388.859599	5.673427
3389.901035	6.204196
3390.940881	10.461538
3391.979140	13.642657
3393.018706	16.841958
3394.058131	16.820280
3395.095970	14.997203
3396.132221	12.083916
3397.168332	10.988112
3398.205751	8.536364
3399.240137	7.290909
3400.275830	3.690909
3401.311384	3.493706
3402.343907	1.140559
3403.379183	0.314685
3404.411428	2.341259
3405.443535	3.849650
3406.474058	2.954545
3407.505889	1.225874
3408.537580	2.659441
3409.566245	5.227273
3410.594771	8.032867
3411.624605	9.658741
3412.654300	9.905594
3413.680970	11.238462
3414.708947	10.299301
3415.733899	10.107692
3416.761601	10.411888
3417.786280	6.350350
3418.812265	5.159441
3419.836670	5.780420
3420.860939	8.069231
3421.883629	9.236364
3422.906183	9.585315
3423.930043	8.597902
3424.950883	7.364336
3425.971588	5.106494
3426.993598	3.123377
3428.012590	1.883516
3429.031447	1.855445
3430.051609	3.507692
3431.068755	7.308791
