-118.187858	-1.791209
-115.518258	-3.648352
-112.851593	-4.204296
-110.185680	-3.761139
-107.522699	-2.620979
-104.858289	-1.085914
-102.196809	0.541958
-99.533899	-0.938462
-96.876097	1.334266
-94.216864	2.976224
-91.558380	2.686713
-88.902821	0.314685
-86.245833	-1.288811
-83.593942	-3.765035
-80.940622	-3.845455
-78.290222	-4.812587
-75.638392	-5.385315
-72.991653	-5.628671
-70.343484	-2.937063
-67.696059	-3.405594
-65.051547	1.625175
-62.405607	4.362937
-59.764748	5.018182
-57.122460	3.867832
-54.483080	2.584615
-51.842272	1.517483
-49.202204	0.729371
-46.567208	0.508392
-43.930783	-0.531469
-41.297262	-0.848951
-38.662312	-0.174126
-36.032427	-1.800000
-33.398950	0.790210
-30.770535	1.183916
-28.142853	1.753147
-25.513744	-1.811888
-22.889691	-24.381119
-20.262049	-107.930070
-17.639460	-379.793706
-15.017602	-508.913986
-12.396476	282.902098
-9.776079	1629.488112
-7.158570	2828.772727
-4.539633	3677.153846
-1.923582	4165.448951
0.691741	4294.906294
3.306337	4065.449650
5.918050	3483.778322
8.531192	2562.700699
11.139300	1364.909091
13.750990	88.314685
16.357649	-641.137063
18.965736	-436.230769
21.573099	-87.263636
24.175437	4.779021
26.781353	6.665035
29.382247	5.147552
31.984570	2.576224
34.581874	1.097902
37.182754	4.489510
39.778620	4.413986
42.375913	7.235664
44.972487	8.142657
47.564052	8.158042
50.157045	8.441958
52.747177	5.722378
55.338737	4.109091
57.927437	2.201399
60.517564	-0.009091
63.102693	-4.184615
65.689249	-4.620979
68.275090	-4.255944
70.858078	-3.256643
73.442493	-1.691608
76.019778	-1.632168
78.600630	-2.499301
81.178633	-2.586014
83.755926	-3.606993
86.334645	-2.496503
88.908383	-2.820280
91.483547	-4.106993
94.055868	-5.107692
96.627481	-5.916084
99.196255	-5.848951
101.766455	-5.496503
104.333816	-5.300000
106.902604	-4.788112
109.468554	-4.632168
112.031670	-3.569231
114.598342	-1.351748
117.155793	1.170629
119.718929	2.797902
122.277106	4.563636
124.838836	11.993007
127.395611	19.965734
129.953811	31.218182
132.507059	47.883916
135.059608	68.788811
137.615708	89.632867
140.166861	113.221678
142.717315	133.481119
145.267073	154.994406
147.814011	170.467832
150.360253	180.571329
152.907922	186.404895
155.454894	193.227972
157.996930	194.734266
160.538273	194.036364
163.078924	193.656643
165.620999	194.527972
168.160264	191.084615
170.696719	188.957343
173.232484	185.591608
175.769674	186.674126
178.306172	184.150350
180.839865	180.334965
183.370755	179.960839
185.900956	183.990909
188.432582	184.653147
190.961407	183.980420
193.487433	184.084615
196.012774	186.437762
198.539539	184.093706
201.063508	182.907692
203.586791	182.117483
206.109390	181.387413
208.629196	179.034266
211.148319	176.953846
213.666759	179.479021
216.186623	185.657343
218.699486	184.607692
221.215880	185.539860
223.731592	185.912587
226.242415	186.375524
228.754662	188.576923
231.264126	189.283916
233.772912	188.745455
236.281020	189.532867
238.790551	188.071329
241.295203	190.399301
243.799178	192.586713
246.304577	194.125175
248.805101	192.018182
251.309148	194.939161
253.806225	194.183217
256.306824	195.110490
258.804652	196.781818
261.301807	194.455245
263.798289	191.863636
266.289909	192.053846
268.785047	191.460839
271.277420	193.379021
273.769122	192.259441
276.258061	191.772028
278.748423	193.262238
281.236024	196.637063
283.720865	197.611888
286.209220	201.074126
288.690636	202.134965
291.175566	203.539860
293.655651	204.327273
296.139248	203.906294
298.618002	205.077622
301.098180	206.304895
303.575605	204.736364
306.052367	204.706993
308.528466	210.606294
311.001816	219.729371
313.474504	231.210490
315.946531	242.331469
318.417897	251.235664
320.886519	257.223776
323.354481	258.560839
325.823866	254.202797
328.288428	246.254545
330.756493	239.777622
333.219739	228.498601
335.682328	222.153147
338.144259	220.108392
340.605534	215.669930
343.064075	216.500699
345.524038	215.858741
347.981269	215.703497
350.437844	215.342657
352.893766	213.788112
355.346959	210.748951
357.801573	205.913986
360.251386	208.613287
362.704696	207.351748
365.153206	208.220280
367.601066	207.755245
370.050347	206.834965
372.494835	209.790210
374.940745	211.566434
377.386006	213.258741
379.828548	216.083916
382.270442	214.938462
384.711688	213.905594
387.150219	210.997902
389.590172	211.324476
392.027411	211.060839
394.461938	210.668531
396.899953	211.803497
399.333191	212.186014
401.767851	210.598601
404.197737	209.908392
406.631109	213.527972
409.059711	215.490909
411.487672	213.908392
413.917053	212.618881
416.341669	211.434965
418.767707	213.252448
421.193104	213.758741
423.617861	214.513287
426.037860	213.125175
428.459280	211.137762
430.878003	209.355245
433.298147	210.783916
435.715596	213.697902
438.134465	215.612587
440.550641	217.248252
442.962070	216.751748
445.376975	216.004196
447.789190	217.531469
450.200771	214.456643
452.611718	217.191608
455.019979	215.804196
457.427607	214.376923
459.834604	211.905594
462.240968	209.256643
464.644650	206.713287
467.047702	205.270629
469.450124	202.787413
471.851917	200.112587
474.251031	199.967832
476.651565	201.610490
479.051470	202.946853
481.446652	209.933566
483.845301	211.215385
486.239230	211.915385
488.632533	208.897203
491.025210	208.042657
493.417262	202.857343
495.810733	194.773427
498.199491	186.693706
500.585583	179.302098
502.973095	170.103497
505.359983	162.962937
507.744208	157.720280
510.129852	154.298601
512.512833	147.221678
514.893154	144.167832
517.274894	139.003497
519.653975	136.904196
522.034475	133.188112
524.412317	132.409790
526.787504	128.417483
529.162073	127.351049
531.538061	124.351748
533.911395	125.942657
536.286148	126.252448
538.656214	126.027972
541.025665	123.661538
543.396535	123.581818
545.762723	120.571329
548.130330	119.820979
550.495291	118.562937
552.859639	118.070629
555.223375	115.227972
557.588528	115.067133
559.949008	114.661538
562.310907	116.555245
564.670166	117.201399
567.026786	118.059441
569.386851	117.478322
571.740226	116.137762
574.097045	114.527972
576.451228	115.019580
578.804804	111.772028
581.157771	110.461538
583.508107	108.462238
585.859859	107.401399
588.204935	108.031469
590.555475	110.745455
592.899342	111.841958
595.248669	112.490909
597.593349	112.583916
599.935404	113.058042
602.278875	111.993706
604.619724	110.537762
606.959971	109.404196
609.297597	111.573427
611.638658	110.374126
613.975082	110.154545
616.312922	110.584615
618.648144	111.219580
620.980751	108.128671
623.314775	106.805594
625.646184	103.853147
627.976995	104.069231
630.307208	101.828671
632.636823	100.485315
634.961816	100.259441
637.292250	102.768531
639.618062	101.540559
641.941268	104.675524
644.265889	106.830769
646.587906	106.271329
648.909328	107.315385
651.228147	109.509091
653.548382	110.181119
655.868024	113.460839
658.185065	112.546154
660.501515	109.219580
662.815366	104.620979
665.130632	105.167832
667.443302	102.924476
669.757387	102.658741
672.066872	102.007692
674.377773	99.305594
676.686081	99.667133
678.993801	101.202797
681.302936	101.684615
683.607478	102.760140
685.911434	100.669930
688.214803	100.206294
690.519587	98.639860
692.819785	99.313287
695.121398	97.490210
697.422425	97.534266
699.718870	98.004895
702.016731	95.204895
704.314008	94.354545
706.610702	95.930769
708.902820	95.084615
711.198349	96.197203
713.489305	94.646853
715.781675	95.095105
718.071469	95.358042
720.360684	94.529371
722.649318	95.876224
724.935381	96.338462
727.222857	95.397203
729.507763	95.297902
731.792090	96.047552
734.073849	97.625175
736.357023	95.577622
738.639618	96.891608
740.917659	95.053147
743.197113	94.809091
745.475992	94.563636
747.754295	93.391608
750.028049	95.037063
752.303217	93.995105
754.577811	95.623077
756.849846	96.816084
759.123293	97.029371
761.394183	99.450350
763.662517	96.928671
765.932264	99.706294
768.199457	99.001399
770.466079	100.094406
772.732132	99.996503
774.995632	102.147552
777.260546	103.625874
779.524890	105.247552
781.784705	107.462937
784.045933	106.298601
786.306593	107.086713
788.564706	105.984615
790.820275	103.027972
793.079235	102.503497
795.331696	101.269231
797.589524	100.677622
799.842832	98.472727
802.093601	96.981818
804.345782	95.772727
806.595425	97.783916
808.846479	99.423077
811.093022	99.827972
813.340978	101.500000
815.586398	100.916783
817.833230	102.288112
820.079501	102.841958
822.321268	103.727972
824.566417	103.437762
826.805094	99.155245
829.047154	97.683916
831.284715	95.375524
833.523687	94.155944
835.760133	92.860140
837.997991	90.014685
840.233323	88.428671
842.466131	85.395105
844.700351	84.216084
846.932049	82.434965
849.163192	84.977622
851.393780	88.013986
853.623814	90.868531
855.853293	95.034965
858.078291	95.140559
860.306664	95.675524
862.530558	99.345455
864.755862	96.490210
866.976691	94.036364
869.200892	89.857343
871.420620	84.710490
873.641759	82.641259
875.862347	82.806993
878.080425	84.213986
880.299914	84.354545
882.514936	85.348252
884.729410	82.675524
886.943337	84.988112
889.156716	87.805594
891.369549	87.292308
893.581834	88.674126
895.791618	88.360839
898.000856	89.088811
900.209548	90.351049
902.415742	91.495105
904.623345	93.760140
906.828451	94.220280
909.033013	95.073427
911.235079	92.367832
913.438555	93.437063
915.639537	91.878322
917.839978	92.403497
920.041827	89.809091
922.237284	88.048951
924.436101	87.429371
926.630480	86.792308
928.828215	87.755245
931.021515	89.200699
933.216224	90.099301
935.408447	90.989510
937.600132	90.793007
939.791279	92.606294
941.979943	91.371329
944.168070	93.662238
946.353717	92.416084
948.542716	92.372727
950.727292	93.167832
952.911333	95.277622
955.098724	95.455245
957.277812	100.380420
959.460249	103.543357
961.642153	107.129371
963.821583	110.311189
965.998540	113.591608
968.176905	111.851748
970.356676	116.277622
972.530099	116.312587
974.706868	114.965734
976.879231	113.748252
979.053000	111.234965
981.222366	109.065035
983.395077	109.808392
985.565321	109.153147
987.735037	109.314685
989.904224	110.928671
992.069014	113.590210
994.237145	114.355245
996.400882	118.491608
998.566025	122.172727
1000.728710	124.933566
1002.890868	127.058741
1005.050570	128.730769
1007.209748	128.134266
1009.370332	128.248252
1011.528461	123.355944
1013.686066	125.191608
1015.843148	126.565734
1017.999707	129.997902
1020.151886	129.824476
1022.305471	132.629371
1024.458535	134.011888
1026.609151	132.565035
1028.761172	134.005594
1030.908820	135.132168
1033.059800	133.897203
1035.206409	133.918881
1037.352500	133.165035
1039.498071	139.911888
1041.645048	141.586014
1043.785737	144.816783
1045.929754	146.430070
1048.071331	147.551049
1050.212392	144.684615
1052.354857	143.614685
1054.491043	146.823077
1056.630555	144.478322
1058.765711	143.791608
1060.904192	145.014685
1063.038320	147.355245
1065.171933	149.157343
1067.306952	148.402098
1069.437621	147.613986
1071.569695	146.558042
1073.699340	142.426573
1075.828473	140.830769
1077.957094	140.846853
1080.085204	141.870629
1082.210888	138.253846
1084.336062	137.160140
1086.462640	136.104895
1088.584881	137.323077
1090.708525	137.411888
1092.827836	137.904196
1094.952375	137.785315
1097.070669	136.867832
1099.190368	134.656643
1101.307648	134.803497
1103.424422	137.034965
1105.540689	135.999301
1107.654541	133.088811
1109.769796	131.271329
1111.880729	130.709091
1113.994973	131.490909
1116.104897	130.842657
1118.216225	132.771329
1120.327049	133.937063
1122.433556	132.865734
1124.543372	131.862937
1126.648874	130.150350
1128.755779	130.120280
1130.856469	129.096503
1132.962371	127.206993
1135.063964	126.027273
1137.166960	124.365734
1139.269455	124.586713
1141.365744	125.132867
1143.467239	125.095105
1145.564432	123.834266
1147.661126	121.137063
1149.757323	118.952448
1151.853021	119.500699
1153.948222	121.182517
1156.041026	121.598601
1158.135232	119.869930
1160.223247	119.123776
1162.316460	118.409790
1164.403485	120.486014
1166.493810	123.383916
1168.579846	121.872028
1170.669180	122.377622
1172.752333	121.355944
1174.836889	121.186713
1176.922845	121.739860
1179.004520	120.174825
1181.087597	116.195105
1183.168288	117.328671
1185.248487	117.718182
1187.328195	119.058741
1189.407412	120.378322
1191.484247	122.497203
1193.558701	121.944056
1195.636447	123.469231
1197.709922	123.385315
1199.784798	120.790210
1201.855407	119.580420
1203.927418	119.725175
1205.997052	118.825175
1208.068087	122.322378
1210.138634	123.792308
1212.204920	126.695804
1214.272607	127.081818
1216.337922	129.391608
1218.404637	128.579021
1220.467096	128.088811
1222.532840	125.194406
1224.594331	122.528671
1226.657221	125.327273
1228.717744	125.018881
1230.777784	124.325175
1232.837340	126.202797
1234.894531	127.322378
1236.951241	130.065035
1239.005588	131.644755
1241.063215	133.093007
1243.118480	132.725874
1245.169504	135.006294
1247.221928	132.656643
1249.273873	133.802098
1251.323458	134.402797
1253.372565	133.258741
1255.421194	130.613986
1257.469344	129.432168
1259.517016	125.400000
1261.560457	126.037762
1263.607173	125.407692
1265.651537	127.024476
1267.695423	127.532867
1269.736959	130.269231
1271.776145	132.137762
1273.818603	135.267133
1275.856839	139.174126
1277.896474	140.669231
1279.935634	139.879720
1281.970576	141.286014
1284.006916	141.798601
1286.040911	146.943357
1288.076305	149.915385
1290.107485	154.194406
1292.140064	155.032168
1294.172170	159.565035
1296.201936	162.995105
1298.233100	164.356643
1300.260056	165.962937
1302.288410	166.827273
1304.312560	169.741259
1306.339974	175.153147
1308.363187	180.706993
1310.387796	184.755245
1312.410072	191.295105
1314.433745	194.196503
1316.455085	194.886713
1318.475957	198.111189
1320.496363	198.506294
1322.512574	202.255245
1324.530184	205.158042
1326.545465	209.361538
1328.564005	212.030070
1330.578355	217.532867
1332.590380	221.711888
1334.605662	223.409091
1336.616759	223.119580
1338.629253	220.205594
1340.637564	215.933566
1342.649131	213.438462
1344.654658	207.241259
1346.663441	206.448252
1348.668046	200.577622
1350.675905	197.500000
1352.683302	192.420979
1354.684668	192.151748
1356.687431	189.660839
1358.689733	186.024476
1360.691576	182.134266
1362.692960	178.412587
1364.692029	172.715385
1366.690640	166.109091
1368.688793	159.251049
1370.686488	155.243357
1372.680019	150.802797
1374.674947	150.941958
1376.669418	147.077622
1378.663432	145.838462
1380.655139	142.137762
1382.646390	143.216084
1384.635336	143.615385
1386.625677	144.346154
1388.615563	142.319580
1390.603146	140.248252
1392.590275	139.631469
1394.575102	140.052448
1396.561323	141.339161
1398.545245	141.906294
1400.528714	140.570629
1402.511731	140.461538
1404.492450	139.100000
1406.474563	142.839161
1408.454379	142.239161
1410.433745	141.541958
1412.408971	135.315385
1414.387437	134.793007
1416.363609	131.748252
1418.339331	130.088811
1420.314604	127.253846
1422.287586	127.123077
1424.260120	127.001399
1426.232207	129.189510
1428.203845	130.498601
1430.171355	133.627273
1432.143940	132.644755
1434.108718	132.608392
1436.078569	130.218182
1438.044295	132.814685
1440.011415	130.591608
1441.976250	129.429371
1443.936967	127.978322
1445.902751	130.408392
1447.862580	131.086014
1449.823802	135.722378
1451.786417	136.243357
1453.744917	138.295804
1455.702975	137.869231
1457.660590	141.804895
1459.617764	142.616084
1461.572662	147.711189
1463.528952	148.520979
1465.482968	150.204895
1467.436544	151.130769
1469.387847	154.427273
1471.340542	155.136364
1473.290966	156.443357
1475.240951	154.386713
1477.190496	156.097902
1479.137773	155.873427
1481.082783	158.152448
1483.029184	157.643357
1484.975149	161.458042
1486.920675	160.917483
1488.863937	162.276224
1490.806762	161.195105
1492.747324	159.100000
1494.689277	156.493706
1496.628969	156.894406
1498.568225	157.072727
1500.507047	160.497902
1502.443608	164.132867
1504.381561	163.762937
1506.317256	165.897902
1508.252517	170.797902
1510.185521	172.829371
1512.118093	175.988112
1514.050233	176.741259
1515.981941	180.709091
1517.911395	183.731469
1519.842240	189.271329
1521.772654	194.251049
1523.698995	199.816783
1525.626726	206.373427
1527.552207	209.067832
1529.477259	217.179021
1531.401882	226.022378
1533.326076	234.282517
1535.248023	247.601399
1537.171359	261.116783
1539.092450	282.929371
1541.011296	305.841259
1542.931532	335.746154
1544.849524	368.301399
1546.767090	412.448951
1548.682414	468.444755
1550.599128	535.777622
1552.511787	611.273427
1554.427650	694.972028
1556.341273	783.437063
1558.252659	869.423077
1560.165433	937.253846
1562.074158	984.368531
1563.984273	1000.028671
1565.893964	982.603497
1567.803231	933.483916
1569.710265	864.957343
1571.615066	784.730070
1573.521256	694.306993
1575.425214	605.343357
1577.328752	527.632867
1579.231868	462.680420
1581.132756	413.485315
1583.035031	373.929371
1584.935079	343.435664
1586.836515	317.862937
1588.733916	297.162238
1590.630899	278.417483
1592.527464	265.027972
1594.425417	257.526573
1596.317535	247.162937
1598.212846	237.448252
1600.107740	228.157343
1602.000412	221.523776
1603.892668	216.486014
1605.782704	210.958042
1607.672324	206.700000
1609.561529	200.740559
1611.450318	194.684615
1613.336891	185.277622
1615.224850	178.970629
1617.108793	172.247552
1618.994124	166.351049
1620.879040	155.881119
1622.761744	149.832168
1624.645833	147.020979
1626.525912	141.912587
1628.407377	138.806993
1630.286632	137.655944
1632.167273	136.360839
1634.042110	138.042657
1635.921929	135.676224
1637.797742	136.904196
1639.673145	136.944755
1641.549935	132.750350
1643.420927	132.008392
1645.295101	132.358741
1647.165277	133.269231
1649.038633	131.188112
1650.909786	126.977622
1652.778737	125.460140
1654.649074	122.020979
1656.515417	119.111888
1658.383146	116.525175
1660.248677	113.924476
1662.115592	109.443357
1663.978519	104.672028
1665.842831	107.524476
1667.704947	108.085315
1669.566659	104.655944
1671.429755	104.374126
1673.290657	104.607692
1675.149365	104.288112
1677.007670	100.695804
1678.867360	98.279720
1680.721283	101.006993
1682.578378	97.223077
1684.435071	96.011888
1686.287788	97.672028
1688.143676	95.657343
1689.995589	95.874126
1691.847102	93.955944
1693.698215	95.124476
1695.548926	94.690210
1697.399237	92.848252
1699.247364	90.329371
1701.096874	86.915385
1702.940636	87.574825
1704.789348	85.097203
1706.632313	85.895105
1708.478444	85.698601
1710.320614	86.090210
1712.165948	88.019580
1714.005542	90.051049
1715.846520	88.634266
1717.688881	87.539860
1719.527286	87.200000
1721.367074	85.977622
1723.204687	85.070629
1725.041904	85.627273
1726.876948	85.893706
1728.713375	87.881818
1730.547630	89.613986
1732.381490	93.220979
1734.214957	91.715385
1736.044477	91.392308
1737.877156	88.581119
1739.705891	85.574126
1741.537784	83.810490
1743.365734	81.767133
1745.193292	81.410490
1747.020458	79.862238
1748.847233	81.581818
1750.673617	82.800000
1752.496064	85.634266
1754.321665	85.634965
1756.143332	84.576923
1757.966381	84.005594
1759.787269	82.867133
1761.607767	81.590909
1763.429647	80.034965
1765.245827	80.413287
1767.065159	81.603497
1768.880564	81.555245
1770.699119	82.758042
1772.513749	81.882517
1774.327993	84.821678
1776.141849	84.437063
1777.955319	85.465734
1779.766636	83.299301
1781.579334	84.193706
1783.391645	82.444755
1785.200039	81.929371
1787.009814	81.397203
1788.815673	80.384615
1790.624679	78.623077
1792.429771	76.799301
1794.236243	75.530070
1796.042332	76.848951
1797.844511	78.789510
1799.649833	82.294406
1801.451247	82.400000
1803.254041	87.392308
1805.052929	87.334965
1806.853198	90.023077
1808.653085	88.173427
1810.450831	86.797203
1812.248196	82.870629
1814.045180	80.613986
1815.841784	78.277622
1817.636249	76.951748
1819.432093	77.080420
1821.222283	78.301399
1823.017369	75.555245
1824.806802	76.504895
1826.599372	74.858042
1828.389807	74.883217
1830.178108	72.853147
1831.969544	71.885315
1833.755334	71.286713
1835.542504	74.002797
1837.327542	73.844755
1839.115714	76.935664
1840.900000	76.749650
1842.682157	78.658042
1844.465692	76.279720
1846.247099	77.623776
1848.029885	76.607692
1849.808791	76.005594
1851.589075	74.738462
1853.367233	76.988112
1855.146770	78.383916
1856.924182	79.922378
1858.699470	79.876224
1860.476137	80.734965
1862.250681	77.262238
1864.026602	77.300699
1865.796904	74.609790
1867.570332	73.749650
1869.341641	70.504895
1871.112580	70.846154
1872.884895	70.797902
1874.651598	75.957343
1876.421425	79.275524
1878.187389	82.402098
1879.956477	85.496503
1881.721703	85.591608
1883.486561	84.595804
1885.252795	85.069231
1887.015171	82.125874
1888.777180	80.262238
1890.538822	77.829371
1892.300096	77.716783
1894.061003	76.532168
1895.821544	74.749650
1897.579975	75.037762
1899.338041	77.392308
1901.093998	77.650350
1902.851333	77.566434
1904.608301	77.213287
1906.363164	77.802797
1908.115921	76.723077
1909.868315	77.992308
1911.622084	78.358741
1913.373750	77.965035
1915.123314	75.366434
1916.874254	71.867832
1918.624830	70.723776
1920.371568	70.323776
1922.119681	69.010490
1923.865695	67.553846
1925.613085	66.790210
1927.358376	68.690909
1929.101570	69.565734
1930.846140	75.444755
1932.588613	79.053147
1934.330726	80.509790
1936.072479	80.833217
1937.813873	81.595105
1939.553173	80.615734
1941.292114	81.320979
1943.030696	79.191958
1944.767186	77.245455
1946.503319	74.396154
1948.240826	72.817483
1949.974512	72.603846
1951.709571	76.137762
1953.442543	73.820629
1955.175158	71.444056
1956.907416	71.256993
1958.639318	71.465734
1960.369134	72.061538
1962.096866	74.958042
1963.825971	73.999301
1965.554722	75.086713
1967.281389	72.802098
1969.007702	74.954545
1970.735388	77.141259
1972.457538	76.140559
1974.182789	77.372727
1975.904234	79.523077
1977.628778	79.996503
1979.351243	79.660839
1981.069904	79.165734
1982.791664	79.163636
1984.509622	76.316783
1986.228954	74.565035
1987.944485	71.427972
1989.664838	69.942657
1991.381391	70.177622
1993.094149	68.922378
1994.810002	73.609790
1996.523782	75.265734
1998.237213	74.533566
1999.948573	76.627972
2001.661306	78.258042
2003.370247	78.837063
2005.082282	79.039860
2006.788807	74.642657
2008.498425	76.415385
2010.205975	78.578322
2011.913178	79.572028
2013.618315	79.823077
2015.323105	79.848951
2017.029267	80.396503
2018.731647	80.157343
2020.435399	80.806993
2022.137087	82.257343
2023.838431	82.995804
2025.539429	83.269930
2027.238367	80.772028
2028.938675	84.584615
2030.635209	84.984615
2032.333114	82.727273
2034.028961	82.013287
2035.727892	80.917483
2037.421338	81.020280
2039.116156	79.004895
2040.810630	77.693007
2042.501336	77.466434
2044.195126	75.658042
2045.885149	74.890210
2047.576543	71.758741
2049.265884	71.313986
2050.956595	71.924476
2052.643544	69.470629
2054.330152	71.453147
2056.018131	75.117483
2057.702350	78.369930
2059.387939	79.140559
2061.073189	80.721678
2062.756391	80.436364
2064.440962	79.169930
2066.120071	78.594406
2067.803965	76.969930
2069.482399	77.760839
2071.163909	77.776224
2072.841669	74.511888
2074.519091	75.945455
2076.197884	75.271329
2077.874633	77.022378
2079.549341	76.302098
2081.225418	76.134965
2082.899455	76.083916
2084.573156	77.109790
2086.246522	75.215385
2087.917850	75.148252
2089.588843	74.544056
2091.259502	72.843357
2092.929826	69.781818
2094.599817	69.372727
2096.267772	68.734965
2097.935394	71.091608
2099.600982	69.284615
2101.267938	71.141958
2102.932861	76.953846
2104.597451	77.348252
2106.260010	78.432867
2107.923937	80.277622
2109.585834	81.042657
2111.247399	81.628671
2112.908634	81.812587
2114.567839	82.367133
2116.226715	80.138462
2117.885260	80.682517
2119.543476	77.537063
2121.197968	79.215385
2122.855525	80.188112
2124.512753	75.986713
2126.166259	79.361538
2127.821133	80.276224
2129.472289	83.165035
2131.126506	82.995804
2132.777007	82.037063
2134.428874	80.795804
2136.075333	78.137063
2137.726547	78.407692
2139.374047	75.164336
2141.022914	77.597203
2142.669763	75.577622
2144.316285	75.728671
2145.962482	77.150350
2147.604971	78.360140
2149.250518	80.982517
2150.892358	79.244056
2152.537255	78.722378
2154.178447	78.486014
2155.819315	78.330769
2157.459860	80.797902
2159.098392	79.786713
2160.738290	80.573427
2162.374488	78.733566
2164.012052	80.293007
2165.649293	78.217483
2167.284525	78.197203
2168.919436	80.783217
2170.554025	81.697203
2172.188292	82.451748
2173.818867	84.666434
2175.452492	84.923776
2177.082426	87.104196
2178.713725	83.435664
2180.343020	81.984615
2181.971994	81.839860
2183.600650	81.625175
2185.228986	78.867832
2186.855319	79.481818
2188.481334	81.050350
2190.105348	81.607692
2191.730726	80.079720
2193.354105	82.245455
2194.978847	80.167832
2196.599909	79.788811
2198.220654	76.563636
2199.842764	77.066434
2201.462876	75.651049
2203.080991	75.282517
2204.698791	74.399301
2206.316276	75.734965
2207.933445	75.793007
2209.550299	75.402797
2211.166838	75.415385
2212.781383	77.237762
2214.393936	75.671329
2216.007853	74.534266
2217.619779	72.125874
2219.233068	72.516084
2220.844367	68.541958
2222.453676	66.817483
2224.064349	66.009790
2225.673033	68.978322
2227.281405	69.409091
2228.887789	72.468531
2230.495537	74.853846
2232.101298	77.252448
2233.706748	76.674825
2235.310214	76.779021
2236.915042	74.858042
2238.517886	74.648252
2240.118747	69.956643
2241.720971	68.518182
2243.321212	68.669930
2244.922816	71.103497
2246.520768	70.688811
2248.120082	74.592308
2249.717416	76.916084
2251.314442	79.080420
2252.912829	78.048951
2254.507568	79.704196
2256.100331	79.374126
2257.694455	78.669930
2259.289941	75.383217
2260.881783	75.186713
2262.473318	76.124476
2264.066214	75.093007
2265.653801	74.092308
2267.246085	74.632867
2268.833061	74.943357
2270.423066	75.678322
2272.007766	73.805594
2273.597160	76.912587
2275.181251	77.402797
2276.766704	76.532168
2278.350187	76.995105
2279.936697	76.588112
2281.519573	75.572028
2283.102145	73.803147
2284.684414	73.450350
2286.263054	74.855594
2287.844717	73.817483
2289.422752	76.933217
2291.003810	74.054545
2292.581242	77.620629
2294.156710	77.038462
2295.735199	78.458392
2297.310065	77.767832
2298.884630	76.513636
2300.458895	75.086014
2302.032859	75.352797
2303.606523	75.395804
2305.179886	75.877622
2306.749631	76.066434
2308.319077	78.648252
2309.891542	75.233566
2311.458731	76.934266
2313.028939	74.546853
2314.595532	76.776224
2316.163485	76.385315
2317.729483	77.360839
2319.295182	77.816084
2320.860585	79.822378
2322.424034	83.316783
2323.988841	85.741958
2325.550041	89.697203
2327.114255	92.319580
2328.673208	91.183916
2330.235174	91.183217
2331.795190	85.806294
2333.354910	83.955245
2334.912681	78.858741
2336.470158	72.148951
2338.027339	72.426573
2339.582574	74.383916
2341.137514	75.308392
2342.692161	74.888112
2344.246514	77.525175
2345.800573	78.367832
2347.354338	79.030070
2348.906160	79.739161
2350.456038	77.016084
2352.008924	76.223077
2353.556568	75.311189
2355.107219	75.177622
2356.654280	79.644056
2358.202698	81.098601
2359.750824	82.474825
2361.295363	85.308392
2362.841259	86.636364
2364.385216	86.671329
2365.930531	87.330070
2367.472261	85.090909
2369.015348	84.006993
2370.556500	82.674825
2372.097362	81.625175
2373.637935	80.636364
2375.178219	79.613986
2376.718214	78.701399
2378.254630	79.187413
2379.794048	79.234965
2381.329889	78.106993
2382.867086	78.851049
2384.400709	78.428671
2385.937331	77.079021
2387.472022	77.363636
2389.004784	79.000000
2390.537260	80.206993
2392.067807	81.901399
2393.601352	81.470629
2395.129686	82.353147
2396.659376	80.561538
2398.188781	82.720280
2399.717900	84.079021
2401.246735	84.501399
2402.770365	83.584615
2404.298630	84.758042
2405.821692	86.518881
2407.349388	87.055245
2408.870245	89.790909
2410.395735	91.632168
2411.917664	91.253147
2413.440949	93.242657
2414.962313	94.134266
2416.481757	99.655944
2418.002556	100.381119
2419.521436	100.388112
2421.040034	98.933566
2422.556715	100.062937
2424.074750	99.751748
2425.592504	96.588811
2427.106707	98.813287
2428.620629	97.290909
2430.134272	94.504895
2431.649268	91.693706
2433.160716	91.086713
2434.673519	91.637063
2436.184409	88.482517
2437.695019	87.198601
2439.203718	86.313986
2440.715404	88.608392
2442.223546	88.866434
2443.731409	87.238462
2445.238995	89.558741
2446.743040	88.554545
2448.250071	88.016783
2449.755193	86.488811
2451.260038	86.046154
2452.762976	85.675524
2454.265637	81.309790
2455.768022	80.162238
2457.268502	83.299301
2458.770335	86.184615
2460.270264	87.182517
2461.769917	88.092308
2463.269295	90.074126
2464.766769	92.013986
2466.262343	94.618182
2467.760896	95.565035
2469.255920	94.907692
2470.752298	94.755944
2472.245149	91.076923
2473.739352	90.220280
2475.233282	90.693007
2476.723689	91.527972
2478.217072	90.754545
2479.708558	89.351748
2481.198147	85.101399
2482.687464	86.576923
2484.174886	87.368531
2485.665283	88.874825
2487.152161	90.187413
2488.640391	91.101399
2490.125105	89.657343
2491.609548	90.339860
2493.095343	89.241259
2494.579245	89.558741
2496.064499	86.212587
2497.544619	84.667133
2499.027711	79.534266
2500.508913	79.997902
2501.989846	79.811189
2503.468890	81.211189
2504.947666	81.011189
2506.426172	79.713287
2507.904411	78.693706
2509.382381	79.318881
2510.856847	75.503497
2512.334281	72.418881
2513.808212	70.406993
2515.283494	70.635664
2516.758508	69.612587
2518.230021	70.600699
2519.702885	72.459441
2521.173865	75.823077
2522.646196	76.476224
2524.113414	77.639860
2525.583597	79.134266
2527.051900	79.250350
2528.519938	76.806993
2529.987711	77.247552
2531.455219	77.637063
2532.922462	78.186014
2534.386213	79.244755
2535.851315	79.625874
2537.314538	79.844056
2538.779112	81.119580
2540.240196	79.848951
2541.702630	79.106993
2543.164801	80.068531
2544.623486	83.377622
2546.086743	85.439161
2547.544903	88.833566
2549.004412	91.472028
2550.458828	96.420979
2551.917813	97.890909
2553.374927	99.468531
2554.830170	98.600000
2556.285152	97.937762
2557.738264	93.459441
2559.192725	94.206993
2560.645317	95.151748
2562.097649	96.155944
2563.548113	92.132168
2565.001533	90.425874
2566.449871	91.758042
2567.901165	93.112587
2569.350592	92.378322
2570.796548	94.871329
2572.245458	94.557343
2573.690897	93.740559
2575.137685	94.488811
2576.582609	98.814685
2578.027276	98.371329
2579.473290	99.004895
2580.915837	96.873427
2582.359732	97.934965
2583.800162	98.102098
2585.241940	99.290909
2586.681857	101.001399
2588.123122	102.013986
2589.560926	102.761538
2591.001679	103.586713
2592.437369	106.306294
2593.876009	107.872028
2595.312792	107.981119
2596.747718	109.053846
2598.185593	110.698601
2599.618410	110.913986
2601.052573	107.330070
2602.484883	110.048252
2603.918539	109.931469
2605.350342	111.337762
2606.781892	114.413287
2608.213188	113.571329
2609.642633	113.448951
2611.071825	115.779720
2612.499166	117.360839
2613.927854	121.297203
2615.356289	125.764336
2616.781277	129.025175
2618.207612	129.645455
2619.632098	135.132168
2621.057930	137.021678
2622.480318	141.644755
2623.904052	144.581818
2625.325940	144.066434
2626.747577	144.110490
2628.167369	147.546853
2629.588507	149.286713
2631.009395	155.867832
2632.426845	158.025874
2633.847234	161.294406
2635.264186	165.330769
2636.680890	161.293706
2638.097345	176.165035
2639.513552	187.848951
2640.929510	198.672028
2642.343628	206.451049
2643.757499	213.397902
2645.169530	216.457343
2646.582906	216.813986
2647.992852	218.992308
2649.405733	214.609790
2650.815187	209.459441
2652.224394	204.865035
2653.631765	197.367832
2655.042070	208.239860
2656.450539	210.223077
2657.857173	217.240559
2659.263562	225.167133
2660.668117	231.446853
2662.074016	235.777622
2663.478082	242.913986
2664.881904	245.920280
2666.285481	246.450350
2667.687226	248.565035
2669.090315	247.886014
2670.489987	251.567832
2671.891001	251.133566
2673.288600	253.991608
2674.689129	254.195105
2676.086243	254.299301
2677.484700	252.193706
2678.881329	253.221678
2680.277716	254.124476
2681.673862	250.127273
2683.068181	251.295105
2684.463843	253.716783
2685.856095	254.131469
2687.249691	257.395105
2688.641462	256.074126
2690.034575	255.926573
2691.425865	251.187413
2692.815332	249.052448
2694.204560	242.885315
2695.593547	238.152448
2696.983877	234.427972
2698.369222	226.345455
2699.757491	221.476224
2701.143940	215.004895
2702.530150	210.256643
2703.916122	202.195804
2705.298695	196.396503
2706.682609	191.833566
2708.066286	185.469231
2709.449725	182.221678
2710.829768	176.074126
2712.211153	173.681119
2713.590722	170.779720
2714.971633	164.225175
2716.350729	159.387413
2717.728010	153.671329
2719.106633	150.894406
2720.483443	145.253147
2721.860017	143.122378
2723.236355	142.316084
2724.610881	137.828671
2725.986748	135.715385
2727.359228	131.993706
2728.734625	130.978322
2730.105060	127.858042
2731.476837	122.292308
2732.848380	116.996503
2734.218114	114.551049
2735.589188	112.306294
2736.958455	110.039161
2738.327488	108.458042
2739.694714	106.592308
2741.061708	102.527273
2742.428469	100.230769
2743.794997	98.206993
2745.159720	99.018881
2746.524212	98.152448
2747.888471	98.447552
2749.252499	98.038462
2750.616294	100.792308
2751.976716	100.898601
2753.340049	102.892308
2754.698439	100.533566
2756.059739	98.876224
2757.417668	96.414685
2758.778507	94.182517
2760.137545	90.106294
2761.493215	85.037762
2762.851793	87.220979
2764.207005	92.321678
2765.561987	94.646154
2766.915172	98.295105
2768.271264	98.755944
2769.623992	98.860140
2770.976491	94.425175
2772.328762	92.737063
2773.682372	86.193706
2775.032620	81.413986
2776.381075	76.956643
2777.732434	74.797902
2779.080434	80.446154
2780.429773	83.974825
2781.777319	87.674825
2783.124638	89.342657
2784.471731	87.548252
2785.817033	85.651049
2787.162109	82.300000
2788.506959	84.161538
2789.851582	81.621678
2791.192854	81.671329
2792.535464	81.351748
2793.877848	81.616084
2795.220008	81.588811
2796.558818	81.799301
2797.900527	82.993706
2799.238889	82.120979
2800.578588	78.539860
2801.916501	77.565035
2803.252630	78.171329
2804.588536	81.691608
2805.925778	81.065734
2807.261237	81.610490
2808.596473	82.706294
2809.929927	85.272028
2811.264717	85.316084
2812.596166	84.617483
2813.930511	82.162238
2815.259958	79.390909
2816.590742	74.711189
2817.921304	74.173427
2819.250087	72.061538
2820.580207	71.314685
2821.908547	70.324476
2823.236667	68.911189
2824.563010	68.728671
2825.890688	70.456643
2827.215034	70.913287
2828.540715	73.509091
2829.864621	74.242657
2831.188308	77.387413
2832.513330	79.027972
2833.835023	81.654545
2835.156496	83.460140
2836.477751	85.781119
2837.798787	82.982517
2839.118051	79.068531
2840.438650	76.395105
2841.757477	75.944056
2843.076086	72.888811
2844.392925	73.716084
2845.709546	72.095105
2847.025949	74.281818
2848.340584	73.817483
2849.656553	74.360839
2850.969202	76.558042
2852.283187	78.030769
2853.596955	74.986014
2854.910506	74.188811
2856.222290	72.860839
2857.532309	74.066434
2858.843661	71.107692
2860.151699	71.063636
2861.461072	69.050350
2862.770229	68.741259
2864.079171	68.930070
2865.386350	69.422378
2866.691765	69.543357
2867.998515	71.097203
2869.303502	70.074126
2870.608276	71.033566
2871.911288	71.687413
2873.217182	76.044755
2874.518220	75.833566
2875.820593	76.663636
2877.121206	77.884615
2878.423153	76.013287
2879.724887	76.347552
2881.023317	76.546853
2882.323080	73.153846
2883.621085	72.143357
2884.918879	69.824476
2886.214917	70.394406
2887.512288	70.165035
2888.807903	72.181119
2890.103307	70.127972
2891.398501	72.618881
2892.690396	74.720979
2893.985168	74.025874
2895.276643	74.171329
2896.569452	75.462937
2897.862049	73.208392
2899.151353	71.907692
2900.441989	68.218182
2901.730874	67.223077
2903.021092	65.579021
2904.308018	65.442657
2905.596276	63.430070
2906.882784	68.665734
2908.169085	68.307692
2909.455177	70.700699
2910.739521	70.958741
2912.026737	75.985315
2913.309126	79.410490
2914.592846	80.869231
2915.874821	78.228671
2917.156589	77.353147
2918.436611	77.077622
2919.719503	74.040559
2921.000650	71.268531
2922.278515	72.677622
2923.559249	68.932867
2924.836702	69.117483
2926.113950	66.788112
2927.389455	69.474126
2928.667828	71.186014
2929.941386	71.176224
2931.217812	67.806993
2932.492497	68.766434
2933.765442	68.741259
2935.039717	68.081818
2936.312253	68.860839
2937.584585	68.503497
2938.853644	66.786713
2940.125567	66.625175
2941.395753	63.171329
2942.665736	63.700000
2943.935515	62.640559
2945.203557	60.301399
2946.469864	61.083916
2947.735968	65.029371
2949.003402	65.304196
2950.269102	67.658042
2951.534599	64.539860
2952.799894	63.955944
2954.061924	63.602797
2955.325285	63.010490
2956.588444	61.246154
2957.849870	62.229371
2959.112626	61.762238
2960.373651	62.348951
2961.632945	65.351049
2962.892038	64.976224
2964.150931	64.139161
2965.409624	62.996503
2966.668117	60.865734
2967.924881	62.062937
2969.181445	61.958741
2970.436282	61.635664
2971.692448	63.690909
2972.945358	63.597902
2974.199598	65.446853
2975.453639	65.465035
2976.705954	65.707692
2977.958071	65.184615
2979.208463	63.464336
2980.461710	63.188112
2981.710180	62.967133
2982.961504	63.253147
2984.209580	63.080420
2985.457458	61.365734
2986.705139	62.396503
2987.952624	61.935664
2989.198387	62.594406
2990.443953	60.472028
2991.690848	60.707692
2992.934497	60.946853
2994.179475	56.690909
2995.421210	55.995804
2996.665796	51.419580
2997.908662	53.551049
2999.148288	51.886713
3000.390765	51.720979
3001.630001	52.935664
3002.870565	56.106294
3004.109412	58.199301
3005.348065	60.664336
3006.585002	60.849650
3007.823266	62.918881
3009.059816	61.743357
3010.296171	61.279021
3011.532333	58.054545
3012.766782	60.588112
3014.001037	57.176923
3015.235099	56.867133
3016.467449	54.954545
3017.698087	54.239860
3018.931571	56.518881
3020.163343	56.906993
3021.393405	56.290210
3022.623275	58.193706
3023.851435	56.290909
3025.080921	57.993706
3026.308699	56.703497
3027.536285	58.562238
3028.765197	56.841958
3029.989367	56.301399
3031.216380	55.648951
3032.440170	55.053846
3033.665285	55.157343
3034.888694	54.444755
3036.111914	54.635664
3037.333428	53.077622
3038.557783	53.227972
3039.777403	55.367133
3040.998348	55.257343
3042.219105	57.655245
3043.438158	58.507692
3044.658537	59.090210
3045.875699	62.169231
3047.094186	62.027273
3048.310972	60.563636
3049.527569	62.665734
3050.743979	60.316783
3051.957175	56.309790
3053.173209	55.782517
3054.386031	53.958741
3055.601690	54.437063
3056.812626	54.855944
3058.024887	54.503497
3059.236962	54.581818
3060.448850	54.244755
3061.659040	52.940559
3062.869045	52.173776
3064.078863	51.599301
3065.286985	47.940210
3066.494921	47.327972
3067.701163	49.812238
3068.908728	51.283916
3070.114600	50.805245
3071.320286	52.447552
3072.525787	52.277972
3073.729596	54.324476
3074.934728	53.770280
3076.138167	54.660839
3077.339914	54.198951
3078.541478	53.781818
3079.742858	53.623077
3080.944054	55.765734
3082.143560	54.246154
3083.342882	54.517483
3084.543528	53.513986
3085.742485	54.274126
3086.938246	50.827972
3088.136837	50.507692
3089.332234	50.538462
3090.528954	48.783217
3091.722482	47.027273
3092.918839	48.342657
3094.113508	50.390210
3095.304987	50.599301
3096.500797	48.558042
3097.691914	51.662937
3098.884353	51.747552
3100.073605	51.310490
3101.265683	48.428671
3102.456076	49.446853
3103.643284	50.169231
3104.831815	49.692308
3106.021668	50.264336
3107.208336	52.362238
3108.394825	53.916084
3109.581134	53.437762
3110.768765	51.146853
3111.953215	51.894406
3113.135984	49.296503
3114.321577	49.128671
3115.505489	47.057343
3116.687723	48.354545
3117.869779	47.677622
3119.051656	48.540559
3120.233355	48.476923
3121.413376	49.039860
3122.591721	50.776224
3123.772887	48.887413
3124.950877	48.786014
3126.128690	50.020280
3127.306326	48.028671
3128.482287	49.452448
3129.658072	47.897902
3130.835177	47.990210
3132.010608	46.327972
3133.184366	46.926573
3134.356452	47.303497
3135.529858	49.316783
3136.703089	49.302098
3137.874647	48.742657
3139.047527	52.579021
3140.217239	53.016084
3141.388272	53.237063
3142.557634	53.995804
3143.725327	51.541958
3144.895835	50.248951
3146.061684	48.428671
3147.231843	48.293007
3148.397344	46.000699
3149.562672	48.341259
3150.727826	49.079021
3151.892806	50.008392
3153.059107	52.634965
3154.220754	54.254545
3155.383722	54.276224
3156.546516	53.881119
3157.709138	50.805594
3158.870095	53.584615
3160.030879	54.137063
3161.191491	54.379720
3162.350440	53.588112
3163.509216	57.705594
3164.667821	58.562937
3165.826254	57.450350
3166.984515	57.336364
3168.141114	54.838462
3169.296052	48.464336
3170.452309	44.658741
3171.606906	41.877622
3172.761331	42.834266
3173.914097	42.077622
3175.066693	44.292308
3176.219118	45.465734
3177.371374	50.318881
3178.523460	51.338462
3179.672399	51.878322
3180.824145	50.025874
3181.974234	49.677622
3183.122665	48.323077
3184.270928	48.202797
3185.419021	47.994406
3186.566946	46.779021
3187.713216	46.581119
3188.859317	49.200000
3190.003763	49.227972
3191.148042	52.211189
3192.292153	51.275524
3193.437582	52.161538
3194.579872	52.565035
3195.721994	55.268531
3196.863950	54.804196
3198.005738	56.717483
3199.147359	57.477622
3200.285844	57.008392
3201.425647	58.280420
3202.566768	58.588811
3203.704754	58.949650
3204.841091	60.437063
3205.977262	57.814685
3207.114751	57.555245
3208.250591	55.516084
3209.387747	54.297902
3210.520291	52.803497
3211.657117	51.424476
3212.789331	48.625874
3213.922863	48.123776
3215.056229	52.433566
3216.186468	53.786014
3217.319505	56.720280
3218.449416	58.665734
3219.580644	57.331469
3220.708746	55.870629
3221.839645	54.018881
3222.968901	53.995105
3224.096512	50.726573
3225.221002	45.251049
3226.349767	39.634266
3227.475410	37.980420
3228.600890	38.029371
3229.724729	37.195105
3230.851362	37.858042
3231.973398	38.444056
3233.096750	36.368531
3234.219940	34.314685
3235.342968	35.725175
3236.464356	38.358042
3237.585583	39.192308
3238.705171	38.831469
3239.824598	39.025874
3240.942387	42.928671
3242.062969	45.174126
3243.180436	48.039860
3244.297744	49.274126
3245.414890	49.917483
3246.530401	48.606294
3247.647227	49.338462
3248.760942	48.297902
3249.877448	48.456643
3250.992318	45.499301
3252.104080	43.230769
3253.215683	40.658042
3254.328600	38.153147
3255.441359	37.147552
3256.551011	37.247552
3257.661978	37.485315
3258.772786	40.114685
3259.881962	37.928671
3260.989507	44.619580
3262.098367	50.179720
3263.207068	56.182517
3264.312667	57.451049
3265.419581	56.590210
3266.524865	54.644755
3267.631463	52.369930
3268.734961	51.853147
3269.839773	50.426573
3270.944428	46.230769
3272.045984	43.490210
3273.147385	36.762238
3274.250099	42.354545
3275.352656	43.443357
3276.452118	44.076224
3277.554362	42.075524
3278.653512	38.995804
3279.751036	39.072028
3280.848405	38.267133
3281.948557	38.421678
3283.045615	38.464336
3284.142518	36.419580
3285.239267	37.957343
3286.331456	37.230070
3287.427895	42.250350
3288.522711	40.162937
3289.617372	40.152448
3290.710412	40.034266
3291.803298	40.325175
3292.894563	38.718881
3293.987141	39.049650
3295.078098	36.693007
3296.167437	36.012587
3297.256621	33.076923
3298.347119	33.360839
3299.434532	32.086014
3300.521793	32.359441
3301.610366	30.306993
3302.698786	33.091608
3303.782659	36.193007
3304.870774	38.695804
3305.955808	36.962937
3307.039226	37.274126
3308.123955	35.152448
3309.207070	35.618881
3310.291496	33.901399
3311.372844	32.981119
3312.455504	30.011189
3313.536550	31.503497
3314.617445	30.901399
3315.696727	31.844056
3316.775858	32.244755
3317.856300	32.101399
3318.933669	28.758042
3320.012349	28.406294
3321.089417	27.618881
3322.166335	28.426573
3323.241642	29.715385
3324.316800	30.842657
3325.393270	29.337762
3326.466668	30.410490
3327.539918	27.973427
3328.614479	29.133566
3329.687430	28.886713
3330.758774	29.933566
3331.831428	28.603497
3332.901015	29.851049
3333.971913	30.797902
3335.041204	33.865734
3336.111806	35.339161
3337.180801	37.458741
3338.248190	35.711888
3339.313974	34.041958
3340.383984	35.441958
3341.450931	37.865035
3342.514816	36.781119
3343.581469	35.772028
3344.646517	32.309091
3345.709963	31.147552
3346.773261	29.857343
3347.836414	28.993706
3348.899420	23.472028
3349.962279	24.597902
3351.023537	22.311189
3352.081738	22.740559
3353.144160	27.126573
3354.203525	30.323077
3355.262745	29.292308
3356.323275	31.358042
3357.379295	31.987413
3358.438080	32.437762
3359.492357	29.839161
3360.549397	28.846154
3361.604840	24.481119
3362.661591	26.233566
3363.716745	24.737063
3364.770301	26.660140
3365.822260	27.319580
3366.876981	28.916783
3367.928653	28.238462
3368.980182	30.719580
3370.033020	30.078322
3371.082810	29.353846
3372.133908	24.555245
3373.181961	24.335664
3374.232774	24.532867
3375.280541	24.300000
3376.328166	24.212587
3377.375649	26.772028
3378.421538	29.817483
3379.468736	31.097902
3380.512892	32.093706
3381.559806	33.547552
3382.605128	31.616783
3383.647410	31.428671
3384.689550	29.847552
3385.732998	30.832867
3386.776306	31.262937
3387.818023	29.518182
3388.859599	28.925175
3389.901035	29.530070
3390.940881	28.318182
3391.979140	26.204895
3393.018706	25.058042
3394.058131	24.320280
3395.095970	20.879021
3396.132221	25.011888
3397.168332	25.847552
3398.205751	27.791608
3399.240137	27.686713
3400.275830	26.983916
3401.311384	27.499301
3402.343907	25.719580
3403.379183	24.058741
3404.411428	26.596503
3405.443535	25.183217
3406.474058	24.643357
3407.505889	22.634266
3408.537580	27.822378
3409.566245	27.736364
3410.594771	31.612587
3411.624605	29.265734
3412.654300	28.567133
3413.680970	28.983217
3414.708947	26.813287
3415.733899	27.397902
3416.761601	29.397203
3417.786280	24.598601
3418.812265	23.916783
3419.836670	22.813986
3420.860939	24.395804
3421.883629	24.737762
3422.906183	26.278322
3423.930043	24.600000
3424.950883	24.798601
3425.971588	24.860140
3426.993598	24.616958
3428.012590	23.914685
3429.031447	22.598951
3430.051609	20.515385
3431.068755	17.509615
