-118.448435	399.649451
-115.778835	399.420879
-113.112170	399.884915
-110.446257	400.895405
-107.783276	402.306194
-105.118866	403.971129
-102.457386	405.744056
-99.794476	408.344056
-97.136674	406.072727
-94.477441	407.542657
-91.818958	410.278322
-89.163398	409.297902
-86.506410	411.893706
-83.854519	413.806294
-81.201199	414.863636
-78.550799	416.932867
-75.898969	417.916084
-73.252230	423.783916
-70.604061	425.914685
-67.956636	431.269930
-65.312124	429.904895
-62.666184	432.330769
-60.025325	434.756643
-57.383037	436.151049
-54.743657	433.601399
-52.102849	435.816783
-49.462781	433.580420
-46.827785	434.351748
-44.191360	436.328671
-41.557839	440.530769
-38.922889	444.336364
-36.293004	450.632168
-33.659527	456.169930
-31.031112	462.910490
-28.403430	465.835664
-25.774321	462.016084
-23.150268	424.973427
-20.522626	267.381818
-17.900037	-133.600000
-15.278180	-76.802797
-12.657053	914.390909
-10.036656	2909.397203
-7.419147	4760.390210
-4.800210	6073.764336
-2.184159	6838.136364
0.431164	7050.197203
3.045760	6711.506294
5.657473	5829.732867
8.270615	4430.512587
10.878723	2616.460839
13.490413	759.567133
16.097072	-226.837063
18.705159	-215.908392
21.312522	370.997203
23.914860	550.287413
26.520776	559.195105
29.121670	566.892308
31.723992	573.836364
34.321297	577.195105
36.922177	582.323776
39.518043	587.237762
42.115336	594.482517
44.711910	600.839161
47.303475	611.506294
49.896468	617.755944
52.486600	628.373427
55.078160	636.612587
57.666860	648.662937
60.256987	659.559441
62.842116	668.204895
65.428671	674.776224
68.014513	687.274825
70.597501	701.278322
73.181915	718.373427
75.759201	731.816084
78.340053	751.295804
80.918056	766.811888
83.495349	784.434965
86.074068	804.502797
88.647806	826.258042
91.222970	846.727972
93.795291	871.460839
96.366904	902.459441
98.935677	941.425874
101.505877	986.160839
104.073239	1046.980420
106.642026	1118.113287
109.207977	1221.186014
111.771093	1415.844056
114.337765	1865.548951
116.895216	2504.696503
119.458352	3259.416084
122.016529	4062.525874
124.578259	4854.072028
127.135034	5581.269231
129.693234	6192.265035
132.246482	6660.633566
134.799031	6960.726573
137.355131	7096.346154
139.906284	7117.636364
142.456738	7137.072028
145.006496	7252.580420
147.553434	7349.039161
150.099676	7420.929371
152.647344	7470.871329
155.194317	7490.960839
157.736353	7496.613986
160.277696	7496.639161
162.818346	7497.140559
165.360422	7494.071329
167.899687	7495.704895
170.436142	7495.523776
172.971907	7496.264336
175.509097	7495.115385
178.045595	7490.332867
180.579288	7487.955944
183.110178	7486.354545
185.640379	7480.474126
188.172005	7474.000000
190.700830	7477.030769
193.226856	7481.433566
195.752197	7485.169930
198.278962	7484.646853
200.802930	7485.521678
203.326214	7483.318881
205.848813	7482.332867
208.368619	7477.150350
210.887742	7474.254545
213.406182	7470.412587
215.926046	7469.142657
218.438909	7467.208392
220.955303	7468.945455
223.471015	7471.188112
225.981838	7467.738462
228.494085	7464.769930
231.003549	7463.621678
233.512335	7462.791608
236.020443	7465.049650
238.529974	7460.493007
241.034625	7461.430769
243.538601	7461.744056
246.044000	7469.490210
248.544524	7473.494406
251.048571	7473.865035
253.545648	7473.917483
256.046247	7471.917483
258.544075	7469.620979
261.041230	7470.346154
263.537712	7474.236364
266.029331	7474.690909
268.524470	7471.172727
271.016843	7475.048252
273.508545	7474.965734
275.997483	7481.026573
278.487846	7480.709091
280.975447	7480.703497
283.460288	7479.727273
285.948643	7480.700699
288.430059	7483.237063
290.914989	7488.660140
293.395074	7490.048252
295.878671	7486.681119
298.357425	7492.816783
300.837603	7495.813986
303.315028	7493.339860
305.791790	7501.409091
308.267889	7512.397203
310.741239	7534.016084
313.213927	7549.692308
315.685954	7566.066434
318.157320	7580.904196
320.625942	7585.496503
323.093904	7582.515385
325.563289	7576.413287
328.027850	7566.188811
330.495916	7549.961538
332.959162	7530.513287
335.421750	7520.799301
337.883682	7513.444056
340.344957	7511.482517
342.803498	7508.660140
345.263461	7507.222378
347.720691	7508.060140
350.177267	7510.925175
352.633189	7510.690210
355.086382	7513.214685
357.540996	7512.094406
359.990809	7511.969930
362.444119	7509.669231
364.892629	7502.658042
367.340489	7495.538462
369.789770	7488.231469
372.234258	7484.923776
374.680168	7478.415385
377.125429	7479.423077
379.567970	7484.289510
382.009864	7481.725175
384.451111	7482.082517
386.889642	7487.667133
389.329595	7489.462238
391.766834	7489.842657
394.201361	7486.869930
396.639376	7491.765035
399.072614	7491.381119
401.507274	7491.764336
403.937160	7493.087413
406.370532	7491.702098
408.799134	7490.873427
411.227095	7485.481818
413.656476	7484.152448
416.081092	7486.270629
418.507130	7484.595804
420.932527	7484.036364
423.357284	7485.331469
425.777283	7487.351748
428.198703	7484.009790
430.617426	7482.865035
433.037570	7483.051049
435.455019	7475.958042
437.873888	7474.218881
440.290064	7472.041259
442.701493	7474.588811
445.116398	7474.896503
447.528613	7476.518881
449.940194	7477.853147
452.351141	7476.587413
454.759402	7475.727273
457.167030	7475.088811
459.574027	7472.527273
461.980391	7473.447552
464.384073	7466.445455
466.787125	7465.572028
469.189547	7456.353147
471.591340	7453.929371
473.990454	7448.423077
476.390988	7443.686014
478.790893	7437.580420
481.186075	7435.018182
483.584724	7426.920280
485.978653	7419.111888
488.371956	7407.553147
490.764633	7404.044755
493.156685	7392.564336
495.550156	7381.588811
497.938914	7367.618182
500.325006	7362.155944
502.712518	7350.881818
505.099406	7345.626573
507.483631	7338.091608
509.869275	7331.066434
512.252256	7318.414685
514.632577	7308.879720
517.014317	7299.927972
519.393398	7300.367832
521.773898	7294.551049
524.151740	7289.409790
526.526927	7284.812587
528.901496	7279.699301
531.277484	7271.553846
533.650818	7267.396503
536.025570	7257.890909
538.395637	7252.790210
540.765088	7247.490909
543.135957	7243.040559
545.502146	7240.193007
547.869753	7240.795105
550.234714	7239.291608
552.599062	7237.630769
554.962798	7235.195804
557.327951	7237.932867
559.688431	7237.228671
562.050330	7239.093706
564.409589	7239.139860
566.766209	7246.044056
569.126274	7247.403497
571.479649	7246.769930
573.836468	7245.403497
576.190651	7241.915385
578.544227	7236.900000
580.897194	7232.893706
583.247530	7234.109790
585.599282	7238.779720
587.944358	7238.628671
590.294898	7236.232168
592.638765	7236.043357
594.988092	7238.787413
597.332772	7239.751748
599.674826	7238.642657
602.018298	7239.811189
604.359147	7236.074126
606.699394	7229.116084
609.037020	7229.886014
611.378081	7227.611189
613.714504	7223.724476
616.052345	7215.740559
618.387567	7209.008392
620.720174	7203.902098
623.054197	7199.607692
625.385607	7193.039860
627.716418	7188.471329
630.046631	7186.200699
632.376246	7180.813287
634.701239	7178.810490
637.031673	7183.299301
639.357485	7179.183217
641.680691	7183.174126
644.005312	7187.588811
646.327329	7195.460839
648.648751	7194.634965
650.967570	7199.711189
653.287805	7199.453846
655.607447	7203.560140
657.924488	7203.000000
660.240937	7205.560140
662.554788	7207.793706
664.870055	7209.381818
667.182725	7205.677622
669.496810	7207.482517
671.806295	7206.097203
674.117196	7207.744056
676.425504	7205.998601
678.733224	7208.152448
681.042359	7206.936364
683.346901	7207.545455
685.650856	7204.948252
687.954226	7208.188112
690.259010	7207.690909
692.559208	7207.727273
694.860820	7207.155944
697.161848	7208.202098
699.458293	7204.434965
701.756154	7203.288811
704.053431	7202.056643
706.350125	7197.192308
708.642243	7197.471329
710.937772	7195.832168
713.228728	7191.602098
715.521098	7196.019580
717.810892	7196.395105
720.100107	7199.123776
722.388741	7202.163636
724.674804	7203.846853
726.962280	7197.497203
729.247186	7193.578322
731.531513	7189.602797
733.813272	7184.353846
736.096445	7183.227273
738.379041	7179.948252
740.657082	7176.665035
742.936536	7180.282517
745.215415	7181.375524
747.493718	7180.802098
749.767472	7184.041259
752.042640	7186.441958
754.317234	7190.527972
756.589268	7193.785315
758.862716	7196.496503
761.133606	7199.018881
763.401940	7202.534965
765.671687	7208.015385
767.938880	7212.232168
770.205502	7217.591608
772.471555	7219.940559
774.735055	7220.692308
776.999969	7221.423077
779.264313	7220.748951
781.524128	7220.695105
783.785356	7216.576923
786.046015	7211.167133
788.304129	7204.958042
790.559698	7204.682517
792.818658	7203.891608
795.071119	7207.328671
797.328947	7209.109091
799.582255	7207.121678
801.833024	7208.614685
804.085205	7206.920979
806.334848	7207.636364
808.585902	7204.539161
810.832445	7203.890909
813.080400	7198.557343
815.325821	7196.100699
817.572653	7196.220979
819.818924	7193.669231
822.060691	7191.206993
824.305840	7191.307692
826.544517	7191.688112
828.786577	7193.676923
831.024138	7200.392308
833.263110	7200.422378
835.499556	7200.982517
837.737413	7201.760839
839.972745	7201.467133
842.205554	7199.739860
844.439774	7194.263636
846.671472	7189.890909
848.902615	7180.289510
851.133203	7179.638462
853.363236	7177.254545
855.592716	7172.581818
857.817714	7174.301399
860.046087	7170.042657
862.269981	7171.612587
864.495285	7174.564336
866.716114	7178.192308
868.940315	7174.997203
871.160043	7175.028671
873.381182	7176.316084
875.601770	7172.696503
877.819848	7175.000000
880.039337	7173.057343
882.254359	7175.718881
884.468833	7177.882517
886.682760	7181.497203
888.896139	7189.964336
891.108971	7194.941958
893.321257	7196.360839
895.531040	7195.840559
897.740278	7197.716783
899.948971	7197.650350
902.155165	7195.698601
904.362768	7194.986014
906.567874	7191.578322
908.772436	7195.448252
910.974502	7193.748951
913.177978	7202.812587
915.378960	7213.431469
917.579401	7218.132867
919.781249	7227.003497
921.976707	7233.300000
924.175524	7241.425874
926.369902	7242.611888
928.567638	7243.052448
930.760938	7243.381818
932.955647	7245.781119
935.147870	7245.276224
937.339555	7247.065734
939.530702	7252.106993
941.719366	7252.079720
943.907493	7255.834266
946.093140	7261.590909
948.282139	7264.393007
950.466715	7268.688112
952.650756	7269.386713
954.838147	7275.834965
957.017234	7286.290909
959.199672	7297.748252
961.381576	7309.449650
963.561006	7321.148951
965.737963	7329.541958
967.916327	7330.776224
970.096099	7338.973427
972.269522	7345.134266
974.446291	7348.455944
976.618653	7351.130769
978.792423	7353.551748
980.961789	7355.961538
983.134500	7363.365035
985.304744	7367.662238
987.474460	7377.455944
989.643647	7384.903497
991.808437	7391.856643
993.976568	7393.127972
996.140305	7401.786014
998.305448	7411.731469
1000.468133	7419.121678
1002.630291	7423.877622
1004.789993	7426.902098
1006.949171	7428.497902
1009.109755	7431.259441
1011.267884	7432.930070
1013.425489	7435.943357
1015.582571	7438.530070
1017.739130	7439.672028
1019.891309	7446.218182
1022.044894	7454.208392
1024.197958	7465.937063
1026.348574	7475.946154
1028.500595	7485.184615
1030.648243	7497.796503
1032.799223	7503.788112
1034.945832	7509.181119
1037.091923	7516.617483
1039.237494	7522.071329
1041.384471	7524.153846
1043.525159	7529.826573
1045.669177	7539.223776
1047.810754	7542.736364
1049.951815	7547.151049
1052.094280	7549.741259
1054.230466	7553.169930
1056.369978	7554.787413
1058.505134	7551.270629
1060.643615	7548.190909
1062.777742	7547.372028
1064.911356	7546.320979
1067.046375	7540.430769
1069.177044	7541.900699
1071.309118	7541.127273
1073.438763	7538.365734
1075.567896	7538.136364
1077.696517	7543.497203
1079.824627	7546.178322
1081.950311	7550.442657
1084.075485	7553.362937
1086.202063	7556.202098
1088.324304	7564.167832
1090.447948	7572.091608
1092.567259	7573.913986
1094.691798	7580.534965
1096.810092	7586.367133
1098.929791	7589.653147
1101.047071	7593.339161
1103.163845	7596.419580
1105.280112	7594.181818
1107.393964	7597.697902
1109.509219	7593.960140
1111.620152	7599.209790
1113.734396	7606.159441
1115.844320	7608.569231
1117.955648	7609.353846
1120.066471	7617.134965
1122.172979	7623.346853
1124.282795	7625.126573
1126.388297	7626.028671
1128.495202	7627.984615
1130.595892	7630.141958
1132.701794	7636.688112
1134.803387	7636.134266
1136.906383	7643.903497
1139.008878	7647.662238
1141.105166	7648.865035
1143.206662	7658.273427
1145.303855	7667.480420
1147.400549	7677.712587
1149.496745	7686.951748
1151.592444	7696.810490
1153.687645	7707.905594
1155.780449	7720.879720
1157.874655	7731.546853
1159.962670	7737.347552
1162.055883	7745.867832
1164.142908	7749.312587
1166.233232	7753.175524
1168.319269	7757.846853
1170.408603	7759.837063
1172.491756	7766.397902
1174.576311	7769.005594
1176.662268	7772.123776
1178.743943	7771.477622
1180.827020	7778.680420
1182.907711	7783.730769
1184.987910	7791.447552
1187.067618	7800.923776
1189.146835	7807.545455
1191.223670	7819.720280
1193.298124	7827.610490
1195.375870	7841.744056
1197.449345	7852.263636
1199.524221	7863.593007
1201.594830	7875.079720
1203.666841	7880.688811
1205.736475	7889.448252
1207.807510	7897.522378
1209.878057	7905.030769
1211.944343	7914.862937
1214.012030	7921.214685
1216.077345	7934.455944
1218.144060	7943.909790
1220.206519	7957.248252
1222.272263	7974.182517
1224.333754	7997.591608
1226.396644	8021.841958
1228.457167	8038.854545
1230.517206	8057.808392
1232.576763	8076.737063
1234.633954	8094.429371
1236.690664	8109.692308
1238.745011	8121.371329
1240.802638	8134.647552
1242.857903	8139.306294
1244.908927	8143.270629
1246.961351	8157.845455
1249.013295	8170.420979
1251.062881	8184.763636
1253.111988	8197.627273
1255.160617	8217.170629
1257.208767	8237.130769
1259.256439	8264.852448
1261.299880	8291.339860
1263.346596	8314.355245
1265.390959	8338.576224
1267.434846	8355.377622
1269.476382	8372.140559
1271.515567	8390.881119
1273.558026	8403.618881
1275.596262	8415.295804
1277.635897	8428.377622
1279.675057	8444.329371
1281.709998	8456.297902
1283.746339	8477.419580
1285.780334	8496.125874
1287.815728	8511.641259
1289.846908	8532.474126
1291.879487	8553.222378
1293.911593	8575.314685
1295.941359	8595.604196
1297.972523	8620.316084
1299.999479	8637.828671
1302.027833	8662.002098
1304.051983	8678.877622
1306.079397	8690.721678
1308.102609	8705.980420
1310.127219	8718.041259
1312.149495	8729.453846
1314.173168	8740.456643
1316.194508	8754.974126
1318.215380	8768.308392
1320.235786	8782.316783
1322.251997	8792.714685
1324.269606	8799.018881
1326.284888	8810.439860
1328.303427	8810.024476
1330.317778	8810.406294
1332.329803	8805.930070
1334.345085	8801.367832
1336.356182	8795.420280
1338.368676	8783.964336
1340.376987	8775.481818
1342.388554	8773.861538
1344.394081	8774.082517
1346.402864	8773.325175
1348.407469	8780.594406
1350.415328	8784.200699
1352.422725	8787.707692
1354.424091	8791.422378
1356.426854	8790.702098
1358.429156	8792.532168
1360.430999	8788.479021
1362.432382	8783.702098
1364.431452	8777.165734
1366.430063	8773.058042
1368.428216	8763.832867
1370.425911	8752.551049
1372.419442	8740.412587
1374.414370	8726.439161
1376.408841	8713.362238
1378.402855	8698.634266
1380.394561	8686.761538
1382.385813	8681.862238
1384.374759	8673.728671
1386.365100	8670.613287
1388.354986	8657.563636
1390.342569	8650.327273
1392.329697	8641.108392
1394.314525	8627.493007
1396.300746	8613.555245
1398.284668	8611.190210
1400.268137	8601.387413
1402.251154	8592.041259
1404.231872	8584.130070
1406.213986	8575.167832
1408.193802	8559.350350
1410.173168	8553.693706
1412.148394	8540.619580
1414.126860	8537.880420
1416.103031	8530.846154
1418.078754	8524.168531
1420.054027	8516.874825
1422.027009	8512.856643
1423.999543	8497.746853
1425.971630	8488.758741
1427.943268	8477.738462
1429.910778	8466.576224
1431.883363	8450.341259
1433.848141	8446.962238
1435.817991	8435.442657
1437.783718	8437.940559
1439.750837	8441.102797
1441.715673	8442.920979
1443.676390	8439.827972
1445.642174	8440.680420
1447.602003	8447.550350
1449.563225	8462.261538
1451.525840	8472.876224
1453.484340	8486.981818
1455.442398	8489.204895
1457.400013	8492.458741
1459.357187	8483.887413
1461.312085	8489.072028
1463.268375	8480.698601
1465.222391	8466.965734
1467.175967	8451.179021
1469.127270	8441.027972
1471.079965	8429.542657
1473.030389	8417.913287
1474.980373	8407.914685
1476.929919	8408.390210
1478.877196	8403.075524
1480.822206	8401.258042
1482.768607	8402.053147
1484.714572	8409.353846
1486.660098	8410.834965
1488.603360	8412.036364
1490.546185	8415.430070
1492.486747	8421.167832
1494.428700	8421.880420
1496.368392	8425.265035
1498.307648	8441.139860
1500.246469	8458.715385
1502.183031	8475.683916
1504.120984	8497.453147
1506.056679	8512.890909
1507.991939	8530.474126
1509.924944	8548.972028
1511.857516	8564.806294
1513.789656	8580.632168
1515.721364	8592.676923
1517.650818	8605.079021
1519.581663	8620.237762
1521.512077	8641.530769
1523.438417	8657.083217
1525.366149	8675.074825
1527.291630	8692.738462
1529.216682	8709.172028
1531.141305	8732.103497
1533.065499	8760.495105
1534.987446	8791.020979
1536.910782	8819.208392
1538.831873	8856.366434
1540.750719	8899.146154
1542.670955	8945.600000
1544.588947	9001.970629
1546.506513	9060.057343
1548.421837	9118.981818
1550.338551	9183.393007
1552.251210	9250.108392
1554.167073	9324.853846
1556.080696	9413.154545
1557.992082	9513.288112
1559.904856	9616.539161
1561.813581	9726.868531
1563.723696	9833.802797
1565.633387	9931.444755
1567.542654	10016.483916
1569.449688	10065.915385
1571.354489	10081.257343
1573.260679	10068.112587
1575.164637	10015.929371
1577.068175	9940.483916
1578.971291	9849.497203
1580.872179	9761.388811
1582.774454	9658.386014
1584.674502	9563.201399
1586.575937	9474.981119
1588.473339	9392.515385
1590.370322	9328.395105
1592.266887	9263.054545
1594.164840	9212.243357
1596.056958	9165.846853
1597.952269	9116.172028
1599.847163	9067.883217
1601.739835	9025.341958
1603.632091	8984.438462
1605.522126	8937.162937
1607.411747	8901.625874
1609.300951	8851.539161
1611.189741	8802.123776
1613.076314	8760.011888
1614.964273	8705.424476
1616.848216	8651.782517
1618.733547	8593.406993
1620.618463	8532.056643
1622.501166	8469.404895
1624.385256	8407.821678
1626.265335	8346.018881
1628.146800	8294.510490
1630.026055	8245.204895
1631.906696	8189.780420
1633.781533	8144.723776
1635.661352	8099.974825
1637.537165	8054.278322
1639.412568	8013.051049
1641.289358	7971.186713
1643.160350	7930.693007
1645.034524	7894.368531
1646.904700	7855.824476
1648.778056	7819.469930
1650.649209	7786.625874
1652.518160	7755.657343
1654.388497	7728.936364
1656.254840	7702.165035
1658.122569	7672.441259
1659.988100	7647.975524
1661.855015	7620.488811
1663.717942	7594.983217
1665.582254	7572.135664
1667.444370	7547.555245
1669.306082	7528.222378
1671.169178	7509.619580
1673.030080	7492.864336
1674.888788	7482.837063
1676.747093	7465.756643
1678.606783	7448.469930
1680.460706	7429.231469
1682.317801	7415.273427
1684.174494	7396.532867
1686.027211	7385.121678
1687.883098	7367.975524
1689.735012	7351.600699
1691.586525	7343.150350
1693.437637	7331.458042
1695.288349	7321.230769
1697.138660	7312.395105
1698.986787	7298.678322
1700.836297	7293.647552
1702.680059	7286.283916
1704.528770	7283.651049
1706.371736	7275.602797
1708.217867	7273.258042
1710.060037	7265.372727
1711.905371	7256.904895
1713.744965	7248.725175
1715.585943	7243.960140
1717.428304	7235.249650
1719.266709	7227.758042
1721.106497	7220.051049
1722.944110	7217.879021
1724.781327	7210.736364
1726.616371	7206.313986
1728.452798	7200.493007
1730.287053	7199.369930
1732.120913	7195.923077
1733.954380	7191.330070
1735.783900	7186.331469
1737.616579	7184.542657
1739.445314	7174.900699
1741.277207	7169.307692
1743.105157	7162.862937
1744.932715	7164.119580
1746.759881	7154.793706
1748.586656	7152.409091
1750.413040	7149.488811
1752.235487	7147.902098
1754.061088	7145.242657
1755.882755	7142.139860
1757.705804	7139.016783
1759.526692	7139.329371
1761.347190	7136.102797
1763.169070	7139.244755
1764.985250	7142.169231
1766.804582	7151.618182
1768.619987	7146.561538
1770.438542	7146.394406
1772.253172	7144.657343
1774.067416	7142.417483
1775.881272	7138.586014
1777.694742	7138.186014
1779.506059	7137.116783
1781.318757	7135.293706
1783.131068	7131.879021
1784.939462	7131.323776
1786.749237	7129.212587
1788.555096	7130.302797
1790.364101	7120.087413
1792.169193	7112.316783
1793.975666	7107.848252
1795.781755	7105.641259
1797.583934	7104.835664
1799.389256	7105.149650
1801.190670	7100.651748
1802.993464	7098.858741
1804.792352	7099.995804
1806.592621	7099.950350
1808.392508	7096.054545
1810.190254	7097.738462
1811.987618	7096.225874
1813.784603	7098.074126
1815.581207	7102.448252
1817.375672	7106.948252
1819.171516	7105.722378
1820.961706	7103.900699
1822.756792	7102.555245
1824.546225	7105.913287
1826.338795	7106.837063
1828.129230	7103.078322
1829.917531	7099.744755
1831.708967	7101.870629
1833.494757	7100.004895
1835.281927	7099.806993
1837.066965	7100.378322
1838.855137	7099.848252
1840.639423	7096.321678
1842.421580	7094.381119
1844.205115	7094.175524
1845.986522	7096.764336
1847.769308	7093.614685
1849.548214	7090.520280
1851.328498	7087.803497
1853.106656	7085.439161
1854.886193	7081.367832
1856.663605	7076.599301
1858.438893	7074.490909
1860.215560	7072.189510
1861.990103	7069.151748
1863.766025	7066.632867
1865.536326	7067.220979
1867.309755	7065.370629
1869.081064	7064.725874
1870.852003	7066.328671
1872.624318	7067.111888
1874.391020	7067.853846
1876.160848	7070.006294
1877.926812	7069.941259
1879.695900	7069.084615
1881.461126	7068.496503
1883.225983	7066.723776
1884.992218	7065.111189
1886.754594	7058.087413
1888.516603	7054.900000
1890.278244	7053.041259
1892.039519	7048.925175
1893.800426	7044.266434
1895.560967	7040.194406
1897.319398	7038.034266
1899.077464	7036.957343
1900.833421	7034.880420
1902.590756	7036.690210
1904.347724	7034.888112
1906.102587	7031.139161
1907.855344	7023.398601
1909.607738	7023.316084
1911.361507	7018.101399
1913.113173	7017.320979
1914.862737	7015.380420
1916.613677	7016.022378
1918.364253	7017.978322
1920.110990	7020.879021
1921.859104	7022.542657
1923.605118	7029.423776
1925.352508	7028.986014
1927.097799	7030.051748
1928.840993	7029.325175
1930.585563	7032.979021
1932.328036	7034.495804
1934.070149	7036.595105
1935.811902	7036.913287
1937.553296	7038.725874
1939.292596	7037.329371
1941.031536	7034.482517
1942.770119	7031.470629
1944.506609	7030.146853
1946.242742	7023.802098
1947.980249	7020.053147
1949.713934	7019.074126
1951.448994	7021.069231
1953.181966	7024.692308
1954.914581	7026.634266
1956.646839	7028.541259
1958.378741	7033.555944
1960.108557	7036.490210
1961.836289	7040.716783
1963.565394	7042.602797
1965.294145	7042.275524
1967.020812	7041.593007
1968.747125	7041.440559
1970.474811	7039.914685
1972.196961	7041.166434
1973.922212	7044.605594
1975.643657	7044.795105
1977.368201	7044.840559
1979.090666	7047.259441
1980.809327	7043.490210
1982.531087	7042.172028
1984.249045	7039.604895
1985.968376	7039.963636
1987.683908	7042.812587
1989.404261	7043.880420
1991.120814	7040.914685
1992.833571	7045.497902
1994.549425	7047.537762
1996.263205	7050.882517
1997.976636	7054.876224
1999.687996	7053.735664
2001.400729	7052.372028
2003.109670	7054.021678
2004.821705	7055.795804
2006.528230	7059.206993
2008.237848	7059.700000
2009.945398	7059.120280
2011.652601	7061.313986
2013.357738	7063.202098
2015.062528	7061.410490
2016.768690	7062.905594
2018.471070	7062.674825
2020.174822	7062.672727
2021.876510	7063.845455
2023.577854	7064.665035
2025.278852	7065.961538
2026.977790	7060.752448
2028.678098	7057.546154
2030.374632	7055.876923
2032.072537	7058.960140
2033.768383	7055.723077
2035.467315	7053.374825
2037.160761	7054.245455
2038.855579	7052.824476
2040.550053	7051.398601
2042.240759	7048.477622
2043.934549	7048.520280
2045.624572	7045.316783
2047.315966	7040.648951
2049.005307	7040.030769
2050.696018	7040.316084
2052.382966	7040.267133
2054.069575	7037.713287
2055.757554	7039.946154
2057.441773	7040.209091
2059.127362	7038.325175
2060.812612	7034.493706
2062.495814	7032.500699
2064.180385	7031.237063
2065.859494	7031.272028
2067.543388	7033.188112
2069.221822	7034.408392
2070.903332	7037.874825
2072.581092	7041.733566
2074.258514	7047.058741
2075.937306	7053.760839
2077.614056	7052.600000
2079.288764	7055.017483
2080.964841	7054.500000
2082.638878	7049.994406
2084.312579	7049.638462
2085.985945	7049.508392
2087.657273	7046.449650
2089.328266	7046.006294
2090.998925	7048.148252
2092.669249	7051.262937
2094.339240	7050.837063
2096.007195	7048.647552
2097.674817	7043.870629
2099.340404	7042.783217
2101.007361	7043.490909
2102.672283	7038.247552
2104.336874	7032.484615
2105.999433	7028.816783
2107.663360	7025.725874
2109.325257	7026.831469
2110.986822	7028.819580
2112.648056	7029.808392
2114.307262	7030.218881
2115.966137	7032.212587
2117.624683	7033.297203
2119.282899	7035.204895
2120.937391	7042.793007
2122.594948	7040.276224
2124.252176	7039.518182
2125.905682	7040.955944
2127.560556	7041.754545
2129.211712	7040.644755
2130.865929	7038.660140
2132.516430	7036.283217
2134.168297	7036.814685
2135.814756	7036.425175
2137.465970	7032.966434
2139.113470	7031.876923
2140.762337	7035.541958
2142.409186	7037.161538
2144.055708	7042.608392
2145.701905	7045.937762
2147.344394	7053.103497
2148.989941	7051.631469
2150.631781	7056.918881
2152.276678	7058.739161
2153.917870	7060.611888
2155.558738	7061.241259
2157.199282	7059.742657
2158.837814	7060.385315
2160.477712	7063.306294
2162.113910	7062.121678
2163.751475	7064.802797
2165.388716	7063.862937
2167.023948	7065.388112
2168.658859	7059.497203
2170.293448	7061.648252
2171.927715	7054.804895
2173.558289	7051.978322
2175.191915	7048.148252
2176.821849	7046.483217
2178.453148	7049.834965
2180.082442	7048.937063
2181.711417	7050.872028
2183.340073	7054.652448
2184.968409	7054.134266
2186.594742	7056.218881
2188.220757	7057.257343
2189.844771	7059.085315
2191.470149	7053.595804
2193.093528	7051.410490
2194.718270	7046.430070
2196.339332	7044.736364
2197.960077	7041.493007
2199.582187	7037.259441
2201.202299	7037.239860
2202.820414	7036.167133
2204.438214	7032.681119
2206.055699	7032.723776
2207.672868	7031.228671
2209.289722	7030.383217
2210.906261	7025.503497
2212.520806	7024.134266
2214.133359	7021.374825
2215.747276	7019.118881
2217.359202	7017.274825
2218.972491	7022.725175
2220.583790	7025.893007
2222.193099	7029.545455
2223.803772	7032.823776
2225.412456	7034.753846
2227.020828	7036.265734
2228.627212	7037.044056
2230.234960	7031.858741
2231.840721	7031.351748
2233.446171	7026.130769
2235.049636	7023.309091
2236.654464	7021.617483
2238.257309	7024.862937
2239.858170	7025.745455
2241.460393	7028.897902
2243.060635	7032.498601
2244.662239	7035.497902
2246.260191	7037.579021
2247.859505	7040.662238
2249.456839	7042.571329
2251.053864	7045.576224
2252.652252	7043.314685
2254.246991	7044.385315
2255.839753	7046.125874
2257.433878	7046.845455
2259.029364	7046.545455
2260.621206	7044.964336
2262.212741	7042.311189
2263.805637	7045.077622
2265.393224	7043.218881
2266.985508	7043.136364
2268.572484	7040.734965
2270.162489	7039.858741
2271.747189	7037.497203
2273.336583	7035.778322
2274.920674	7030.971329
2276.506127	7026.211888
2278.089610	7021.839161
2279.676120	7019.155245
2281.258996	7016.919580
2282.841568	7016.503497
2284.423837	7012.843357
2286.002477	7009.890909
2287.584140	7009.813986
2289.162175	7014.453147
2290.743233	7012.319580
2292.320665	7011.143357
2293.896132	7006.861538
2295.474622	7005.880420
2297.049488	7000.428671
2298.624053	6998.129371
2300.198318	6991.895804
2301.772282	6987.124476
2303.345946	6980.632867
2304.919309	6979.631469
2306.489054	6980.347552
2308.058500	6984.534266
2309.630965	6985.559441
2311.198154	6991.683916
2312.768362	6995.018182
2314.334955	6997.523776
2315.902908	6997.237063
2317.468905	7000.236364
2319.034605	7002.455245
2320.600008	7008.480420
2322.163456	7011.104196
2323.728264	7020.962238
2325.289464	7026.476923
2326.853678	7024.943357
2328.412631	7023.497203
2329.974597	7022.707692
2331.534613	7018.610490
2333.094333	7011.937762
2334.652104	7006.894406
2336.209580	7005.551748
2337.766762	7003.825874
2339.321997	7008.762238
2340.876937	7011.394406
2342.431584	7018.286014
2343.985937	7019.342657
2345.539996	7016.158741
2347.093761	7017.493007
2348.645583	7020.824476
2350.195461	7021.208392
2351.748347	7021.335664
2353.295991	7022.414685
2354.846642	7025.661538
2356.393702	7026.900699
2357.942121	7031.537762
2359.490247	7030.086713
2361.034785	7029.518881
2362.580681	7026.436364
2364.124639	7021.626573
2365.669954	7018.018881
2367.211684	7017.577622
2368.754771	7014.386014
2370.295923	7012.595804
2371.836785	7010.803497
2373.377358	7013.059441
2374.917641	7015.390210
2376.457636	7016.041958
2377.994053	7011.220280
2379.533471	7010.311189
2381.069312	7009.741958
2382.606509	7008.694406
2384.140131	7009.413986
2385.676754	7013.539161
2387.211445	7015.404895
2388.744207	7014.187413
2390.276682	7013.997902
2391.807230	7014.272727
2393.340775	7016.125175
2394.869109	7013.211189
2396.398799	7012.163636
2397.928204	7011.970629
2399.457323	7012.156643
2400.986158	7012.353846
2402.509787	7014.988112
2404.038053	7016.589510
2405.561115	7018.646154
2407.088811	7021.084615
2408.609668	7022.273427
2410.135158	7022.688811
2411.657087	7026.091608
2413.180372	7028.838462
2414.701736	7032.213986
2416.221180	7028.241958
2417.741979	7029.864336
2419.260859	7030.292308
2420.779457	7027.442657
2422.296138	7027.791608
2423.814173	7029.634266
2425.331927	7031.411888
2426.846130	7028.565035
2428.360052	7027.821678
2429.873694	7029.874825
2431.388691	7031.245455
2432.900139	7028.376923
2434.412942	7027.120280
2435.923832	7031.573427
2437.434442	7033.666434
2438.943141	7033.066434
2440.454827	7036.970629
2441.962968	7038.129371
2443.470832	7040.825874
2444.978418	7041.312587
2446.482463	7042.888112
2447.989494	7044.072727
2449.494616	7044.459441
2450.999461	7043.072727
2452.502399	7045.276923
2454.005060	7047.181818
2455.507445	7048.025175
2457.007925	7047.264336
2458.509758	7047.776224
2460.009687	7047.627273
2461.509340	7048.820979
2463.008717	7046.232867
2464.506192	7045.130769
2466.001765	7041.564336
2467.500319	7043.681818
2468.995343	7041.299301
2470.491721	7038.517483
2471.984571	7037.076923
2473.478775	7039.530070
2474.972705	7044.196503
2476.463112	7047.606993
2477.956495	7050.482517
2479.447981	7053.655245
2480.937570	7052.909091
2482.426887	7053.342657
2483.914309	7049.796503
2485.404706	7051.268531
2486.891584	7042.897902
2488.379814	7036.218182
2489.864528	7031.865035
2491.348971	7028.735664
2492.834766	7027.370629
2494.318668	7024.514685
2495.803922	7020.763636
2497.284042	7021.067133
2498.767134	7018.194406
2500.248336	7014.130070
2501.729269	7009.874126
2503.208313	7010.030070
2504.687088	7006.580420
2506.165595	7006.191608
2507.643834	7008.030769
2509.121804	7010.479720
2510.596270	7012.320979
2512.073704	7013.398601
2513.547635	7016.687413
2515.022916	7023.124476
2516.497931	7019.403497
2517.969444	7019.671329
2519.442307	7019.133566
2520.913288	7019.164336
2522.385619	7019.481119
2523.852837	7018.791608
2525.323020	7017.846853
2526.791323	7016.197902
2528.259361	7013.713986
2529.727134	7015.159441
2531.194642	7021.288811
2532.661885	7026.731469
2534.125636	7031.982517
2535.590737	7041.448252
2537.053961	7044.077622
2538.518535	7049.679720
2539.979619	7053.158042
2541.442053	7057.548252
2542.904224	7056.041958
2544.362909	7057.587413
2545.826166	7057.973427
2547.284326	7062.336364
2548.743835	7065.833566
2550.198251	7069.315385
2551.657236	7073.941259
2553.114350	7072.906294
2554.569593	7070.617483
2556.024575	7068.255245
2557.477687	7066.100000
2558.932148	7068.287413
2560.384740	7065.556643
2561.837072	7064.063636
2563.287536	7063.304196
2564.740956	7068.245455
2566.189294	7070.563636
2567.640588	7074.247552
2569.090015	7078.495105
2570.535970	7080.967133
2571.984881	7086.839161
2573.430320	7086.811888
2574.877108	7087.967133
2576.322032	7093.079720
2577.766699	7093.544755
2579.212713	7092.028671
2580.655260	7091.095804
2582.099155	7093.146154
2583.539585	7093.202797
2584.981362	7090.509091
2586.421280	7087.527972
2587.862545	7086.098601
2589.300349	7085.125874
2590.741102	7083.289510
2592.176792	7082.928671
2593.615432	7087.753846
2595.052215	7086.129371
2596.487141	7088.638462
2597.925016	7089.913287
2599.357832	7091.157343
2600.791996	7088.472727
2602.224306	7087.511189
2603.657962	7086.870629
2605.089765	7090.863636
2606.521315	7091.922378
2607.952611	7096.135664
2609.382055	7100.403497
2610.811248	7107.261538
2612.238589	7111.650350
2613.667277	7119.546853
2615.095712	7122.246154
2616.520700	7121.027273
2617.947035	7123.382517
2619.371521	7128.679021
2620.797353	7131.877622
2622.219741	7136.106993
2623.643475	7133.211189
2625.065362	7132.159441
2626.487000	7133.213986
2627.906792	7135.579720
2629.327930	7139.620280
2630.748818	7140.800000
2632.166268	7138.560839
2633.586657	7138.341958
2635.003609	7143.385315
2636.420313	7147.851049
2637.836768	7151.493007
2639.252975	7154.430070
2640.668933	7155.832867
2642.083051	7161.147552
2643.496922	7167.207692
2644.908953	7178.555944
2646.322329	7189.595105
2647.732275	7194.086014
2649.145156	7198.444755
2650.554610	7204.930769
2651.963817	7213.525175
2653.371187	7218.717483
2654.781493	7221.190210
2656.189962	7225.918182
2657.596596	7230.218182
2659.002985	7236.032867
2660.407540	7241.959441
2661.813439	7253.788811
2663.217505	7265.132867
2664.621326	7272.668531
2666.024904	7279.246154
2667.426649	7291.778322
2668.829738	7302.232867
2670.229409	7305.437762
2671.630424	7309.652448
2673.028023	7312.145455
2674.428552	7312.189510
2675.825666	7312.193007
2677.224123	7314.396503
2678.620752	7316.622378
2680.017139	7319.590210
2681.413285	7320.958042
2682.807604	7324.442657
2684.203266	7330.212587
2685.595518	7331.034965
2686.989114	7334.186014
2688.380885	7338.548951
2689.773998	7342.221678
2691.165288	7344.839161
2692.554755	7346.155245
2693.943982	7343.188811
2695.332970	7340.952448
2696.723300	7339.358741
2698.108645	7338.318182
2699.496914	7334.918881
2700.883363	7326.244755
2702.269573	7319.758741
2703.655545	7316.491608
2705.038117	7311.048951
2706.422032	7305.842657
2707.805709	7299.900699
2709.189148	7294.347552
2710.569191	7283.281818
2711.950576	7281.072028
2713.330145	7275.148252
2714.711056	7269.071329
2716.090151	7261.613287
2717.467433	7253.183916
2718.846056	7240.846154
2720.222866	7226.786713
2721.599440	7216.113986
2722.975778	7206.502797
2724.350304	7199.148252
2725.726171	7191.952448
2727.098651	7182.151049
2728.474047	7180.841259
2729.844483	7171.900000
2731.216260	7166.195105
2732.587802	7160.890210
2733.957536	7154.070629
2735.328611	7141.070629
2736.697877	7133.436364
2738.066911	7129.085315
2739.434137	7126.045455
2740.801131	7125.371329
2742.167892	7123.262238
2743.534420	7124.046154
2744.899143	7126.230070
2746.263635	7121.527972
2747.627894	7122.673427
2748.991921	7118.421678
2750.355717	7115.441958
2751.716139	7110.611888
2753.079472	7106.771329
2754.437862	7100.634965
2755.799162	7098.553147
2757.157091	7099.966434
2758.517930	7096.825874
2759.876968	7099.155245
2761.232638	7102.969930
2762.591216	7102.695804
2763.946428	7106.158042
2765.301410	7103.293007
2766.654595	7101.604895
2768.010687	7097.808392
2769.363415	7098.093706
2770.715914	7091.832168
2772.068185	7090.848252
2773.421795	7089.744056
2774.772043	7083.994406
2776.120498	7083.544755
2777.471857	7082.659441
2778.819857	7078.253846
2780.169196	7077.077622
2781.516742	7071.572727
2782.864061	7070.616783
2784.211154	7068.603497
2785.556456	7070.720280
2786.901532	7064.896503
2788.246382	7065.260839
2789.591005	7064.488112
2790.932277	7060.862238
2792.274887	7061.663636
2793.617271	7061.633566
2794.959431	7063.031469
2796.298241	7065.644755
2797.639950	7065.976923
2798.978312	7071.720979
2800.318011	7073.861538
2801.655924	7082.548951
2802.992053	7087.960140
2804.327958	7093.993007
2805.665201	7097.772727
2807.000660	7098.586713
2808.335896	7099.398601
2809.669349	7097.193007
2811.004140	7095.146154
2812.335589	7091.602098
2813.669934	7084.322378
2814.999381	7078.178322
2816.330165	7070.023077
2817.660727	7070.008392
2818.989510	7064.718182
2820.319629	7060.193706
2821.647970	7057.592308
2822.976090	7054.551049
2824.302432	7054.906993
2825.630111	7054.231469
2826.954457	7054.758042
2828.280138	7052.504895
2829.604044	7046.870629
2830.927731	7045.026573
2832.252753	7039.887413
2833.574445	7041.784615
2834.895919	7038.385315
2836.217174	7038.034965
2837.538210	7036.705594
2838.857474	7038.286014
2840.178073	7039.732168
2841.496900	7037.571329
2842.815509	7037.441958
2844.132347	7037.629371
2845.448968	7036.761538
2846.765372	7042.090210
2848.080007	7042.975524
2849.395976	7048.311888
2850.708625	7047.857343
2852.022610	7050.532168
2853.336377	7050.481818
2854.649929	7052.486713
2855.961713	7053.648252
2857.271731	7056.189510
2858.583084	7058.442657
2859.891122	7061.647552
2861.200495	7059.650350
2862.509652	7061.248252
2863.818594	7058.230769
2865.125773	7057.032867
2866.431188	7052.890909
2867.737938	7050.323077
2869.042925	7045.289510
2870.347699	7043.671329
2871.650711	7044.504895
2872.956605	7044.958741
2874.257643	7042.181119
2875.560016	7041.100000
2876.860629	7036.720280
2878.162576	7033.472028
2879.464310	7029.067133
2880.762739	7026.762238
2882.062503	7025.104895
2883.360508	7020.837762
2884.658302	7017.146154
2885.954340	7019.709091
2887.251711	7020.181818
2888.547326	7022.491608
2889.842730	7022.040559
2891.137924	7023.426573
2892.429819	7023.014685
2893.724591	7023.768531
2895.016066	7021.051748
2896.308874	7017.247552
2897.601472	7015.535664
2898.890776	7011.952448
2900.181412	7012.779720
2901.470297	7016.070629
2902.760515	7020.822378
2904.047440	7026.301399
2905.335699	7030.893706
2906.622207	7035.721678
2907.908508	7039.538462
2909.194600	7041.093706
2910.478944	7036.436364
2911.766160	7030.953846
2913.048548	7027.369231
2914.332269	7019.462937
2915.614244	7018.139161
2916.896012	7016.648951
2918.176034	7017.168531
2919.458926	7016.177622
2920.740073	7017.936364
2922.017938	7018.941958
2923.298672	7019.067832
2924.576125	7018.083217
2925.853372	7015.808392
2927.128878	7013.366434
2928.407251	7009.511888
2929.680809	7003.448252
2930.957235	7001.374126
2932.231920	7000.600000
2933.504865	6996.202797
2934.779140	6993.918881
2936.051676	6990.116084
2937.324008	6982.380420
2938.593066	6979.258042
2939.864990	6978.751049
2941.135176	6979.879021
2942.405159	6981.310490
2943.674938	6979.876923
2944.942980	6978.058741
2946.209287	6976.565035
2947.475391	6977.341958
2948.742825	6974.951049
2950.008525	6975.208392
2951.274022	6971.897902
2952.539317	6968.152448
2953.801347	6970.611189
2955.064708	6974.578322
2956.327866	6978.874126
2957.589293	6978.637063
2958.852049	6976.500699
2960.113074	6974.061538
2961.372367	6971.240559
2962.631461	6967.670629
2963.890354	6965.888811
2965.149047	6964.388811
2966.407540	6961.622378
2967.664304	6957.766434
2968.920868	6954.085315
2970.175705	6958.341958
2971.431871	6955.810490
2972.684781	6951.258042
2973.939021	6952.512587
2975.193062	6952.741958
2976.445377	6951.614685
2977.697494	6951.198601
2978.947886	6951.812587
2980.201133	6952.886713
2981.449603	6951.030070
2982.700927	6946.694406
2983.949003	6947.053846
2985.196881	6953.727972
2986.444562	6949.420979
2987.692047	6948.330070
2988.937810	6952.765035
2990.183376	6954.607692
2991.430270	6952.006993
2992.673920	6952.008392
2993.918898	6952.758042
2995.160633	6953.686014
2996.405218	6952.502797
2997.648085	6951.929371
2998.887711	6954.801399
3000.130187	6957.684615
3001.369424	6955.162937
3002.609988	6954.798601
3003.848835	6956.874825
3005.087488	6955.739161
3006.324425	6947.934266
3007.562689	6950.579720
3008.799239	6947.451748
3010.035594	6948.023077
3011.271756	6949.012587
3012.506205	6949.232168
3013.740460	6951.173427
3014.974522	6952.186713
3016.206872	6950.248951
3017.437510	6947.294406
3018.670994	6946.562937
3019.902766	6946.363636
3021.132828	6943.998601
3022.362698	6948.967133
3023.590858	6946.805594
3024.820344	6947.548951
3026.048122	6947.083916
3027.275708	6946.309091
3028.504620	6942.934965
3029.728790	6938.879720
3030.955803	6935.287413
3032.179592	6927.370629
3033.404708	6924.951748
3034.628117	6921.725874
3035.851337	6920.036364
3037.072851	6919.315385
3038.297206	6918.762238
3039.516826	6917.321678
3040.737771	6917.482517
3041.958528	6918.536364
3043.177581	6917.606294
3044.397960	6916.248252
3045.615122	6913.013287
3046.833609	6911.019580
3048.050394	6912.128671
3049.266992	6913.907692
3050.483401	6915.613287
3051.696598	6915.540559
3052.912632	6915.717483
3054.125454	6916.518881
3055.341113	6914.888811
3056.552049	6914.872727
3057.764310	6912.023776
3058.976385	6907.063636
3060.188273	6900.476923
3061.398463	6897.490210
3062.608467	6897.345455
3063.818286	6899.646154
3065.026408	6898.050350
3066.234344	6900.475524
3067.440586	6900.027273
3068.648151	6900.354545
3069.854023	6897.620280
3071.059709	6897.769930
3072.265210	6896.050350
3073.469018	6893.077622
3074.674150	6884.839860
3075.877590	6880.884615
3077.079337	6880.157343
3078.280901	6880.701399
3079.482281	6878.090210
3080.683477	6879.129371
3081.882983	6879.160140
3083.082305	6881.513287
3084.282951	6882.213287
3085.481907	6885.197203
3086.677669	6885.757343
3087.876260	6888.722378
3089.071657	6888.961538
3090.268377	6894.377622
3091.461905	6898.448252
3092.658261	6901.227273
3093.852931	6901.220280
3095.044410	6903.573427
3096.240220	6903.217483
3097.431337	6900.876224
3098.623776	6896.488811
3099.813028	6894.127972
3101.005106	6888.314685
3102.195499	6887.241958
3103.382707	6884.843357
3104.571238	6885.045455
3105.761091	6885.048252
3106.947759	6885.439860
3108.134248	6883.223077
3109.320557	6883.066434
3110.508188	6881.301399
3111.692638	6879.746154
3112.875407	6879.530070
3114.061000	6879.840559
3115.244912	6878.869930
3116.427146	6881.151748
3117.609201	6881.666434
3118.791079	6880.524476
3119.972778	6878.090909
3121.152799	6876.536364
3122.331144	6873.404895
3123.512310	6870.993007
3124.690300	6867.026573
3125.868113	6866.619580
3127.045749	6863.137063
3128.221710	6863.446853
3129.397494	6865.145455
3130.574600	6867.879021
3131.750031	6869.507692
3132.923789	6870.831469
3134.095875	6871.427273
3135.269281	6872.793007
3136.442512	6878.287413
3137.614070	6877.703497
3138.786950	6875.951049
3139.956662	6877.779720
3141.127695	6873.064336
3142.297057	6876.652448
3143.464750	6878.069930
3144.635258	6876.454545
3145.801107	6874.823776
3146.971266	6876.342657
3148.136767	6875.654545
3149.302095	6877.064336
3150.467249	6878.068531
3151.632229	6878.526573
3152.798530	6875.504196
3153.960177	6874.516783
3155.123145	6871.637063
3156.285939	6873.196503
3157.448561	6869.893706
3158.609518	6862.508392
3159.770302	6859.074825
3160.930914	6860.139860
3162.089863	6859.455245
3163.248639	6858.781119
3164.407244	6854.109790
3165.565677	6858.518881
3166.723938	6859.382517
3167.880537	6860.224476
3169.035475	6858.148252
3170.191732	6853.088112
3171.346329	6848.060140
3172.500754	6844.836364
3173.653520	6841.876224
3174.806116	6842.907692
3175.958541	6842.252448
3177.110797	6839.590909
3178.262883	6836.187413
3179.411822	6838.523776
3180.563568	6837.013287
3181.713656	6835.658741
3182.862088	6835.099301
3184.010351	6831.788811
3185.158444	6832.495804
3186.306369	6836.953846
3187.452639	6837.761538
3188.598740	6840.938462
3189.743186	6843.955245
3190.887465	6842.686014
3192.031576	6841.453846
3193.177005	6844.138462
3194.319294	6841.961538
3195.461417	6841.146154
3196.603372	6843.039161
3197.745161	6838.609790
3198.886782	6835.900699
3200.025267	6834.492308
3201.165070	6831.762238
3202.306191	6828.451748
3203.444177	6827.736364
3204.580514	6823.348252
3205.716685	6824.800699
3206.854174	6826.103497
3207.990013	6823.826573
3209.127170	6821.460839
3210.259714	6822.355245
3211.396540	6820.946853
3212.528754	6821.088112
3213.662286	6819.169930
3214.795652	6818.288811
3215.925891	6817.938462
3217.058928	6816.345455
3218.188839	6817.427972
3219.320067	6817.595105
3220.448169	6815.586014
3221.579068	6813.983916
3222.708324	6811.038462
3223.835935	6811.899301
3224.960425	6813.818182
3226.089190	6813.348951
3227.214833	6812.111888
3228.340313	6815.640559
3229.464152	6818.083916
3230.590785	6814.068531
3231.712821	6814.291608
3232.836173	6808.972727
3233.959363	6805.184615
3235.082391	6801.153147
3236.203779	6799.858741
3237.325006	6797.324476
3238.444594	6795.270629
3239.564021	6793.788811
3240.681810	6793.787413
3241.802392	6796.278322
3242.919859	6796.639860
3244.037167	6793.342657
3245.154313	6794.390210
3246.269824	6792.717483
3247.386650	6794.679720
3248.500365	6794.687413
3249.616870	6796.448252
3250.731741	6790.295804
3251.843503	6789.574825
3252.955106	6790.235664
3254.068023	6786.828671
3255.180782	6782.663636
3256.290434	6781.532168
3257.401400	6776.942657
3258.512208	6779.692308
3259.621385	6779.018881
3260.728930	6782.772727
3261.837790	6781.456643
3262.946491	6783.365035
3264.052090	6782.567133
3265.159003	6782.700699
3266.264288	6783.395804
3267.370886	6778.641259
3268.474384	6775.880420
3269.579196	6775.806993
3270.683851	6773.679720
3271.785407	6777.928671
3272.886808	6777.109091
3273.989522	6775.572727
3275.092079	6769.834965
3276.191540	6769.849650
3277.293785	6766.758741
3278.392934	6764.653147
3279.490459	6762.323077
3280.587828	6762.858741
3281.687980	6763.613986
3282.785038	6764.294406
3283.881941	6766.523776
3284.978689	6769.807692
3286.070879	6769.640559
3287.167317	6766.679021
3288.262134	6761.841259
3289.356795	6764.957343
3290.449835	6761.900000
3291.542721	6763.514685
3292.633986	6759.720280
3293.726564	6760.825175
3294.817521	6757.019580
3295.906859	6755.010490
3296.996044	6753.007692
3298.086542	6752.365734
3299.173955	6752.569930
3300.261216	6751.747552
3301.349789	6750.294406
3302.438209	6752.812587
3303.522082	6751.276923
3304.610197	6752.613287
3305.695231	6749.830070
3306.778648	6748.411888
3307.863378	6746.843357
3308.946493	6747.217483
3310.030919	6746.604196
3311.112267	6748.560839
3312.194927	6749.913986
3313.275973	6748.609091
3314.356868	6747.981119
3315.436150	6750.260839
3316.515281	6750.960839
3317.595723	6753.361538
3318.673092	6751.260839
3319.751771	6751.990909
3320.828840	6753.504895
3321.905758	6755.273427
3322.981065	6759.681818
3324.056223	6761.461538
3325.132692	6762.691608
3326.206091	6762.399301
3327.279341	6761.683916
3328.353902	6764.341259
3329.426853	6762.800000
3330.498197	6759.708392
3331.570851	6756.071329
3332.640438	6753.532867
3333.711336	6751.325874
3334.780627	6752.000000
3335.851229	6749.302797
3336.920224	6748.140559
3337.987613	6748.076923
3339.053397	6746.272727
3340.123407	6742.283916
3341.190354	6742.041958
3342.254239	6738.627273
3343.320892	6735.894406
3344.385940	6738.232168
3345.449385	6739.462937
3346.512684	6741.143357
3347.575836	6744.640559
3348.638842	6739.586713
3349.701702	6742.408392
3350.762960	6739.171329
3351.821161	6736.765734
3352.883583	6734.109091
3353.942948	6733.102797
3355.002168	6730.796503
3356.062698	6731.176224
3357.118718	6731.598601
3358.177503	6733.918881
3359.231780	6736.015385
3360.288820	6740.351748
3361.344263	6739.523776
3362.401014	6743.490210
3363.456168	6742.837762
3364.509724	6741.823776
3365.561683	6738.372028
3366.616404	6737.287413
3367.668076	6730.687413
3368.719605	6730.316783
3369.772443	6729.312587
3370.822233	6733.587413
3371.873331	6736.963636
3372.921384	6742.388112
3373.972197	6743.514685
3375.019964	6746.191608
3376.067589	6744.469231
3377.115071	6743.869930
3378.160961	6745.102797
3379.208159	6748.393007
3380.252315	6744.500699
3381.299229	6746.969930
3382.344551	6749.116783
3383.386833	6751.988112
3384.428973	6751.895105
3385.472421	6753.148951
3386.515729	6744.134266
3387.557446	6740.390909
3388.599022	6736.948252
3389.640458	6737.265035
3390.680304	6736.850350
3391.718563	6734.411888
3392.758129	6730.109790
3393.797554	6728.930769
3394.835392	6725.622378
3395.871643	6723.678322
3396.907755	6723.320979
3397.945174	6726.549650
3398.979560	6721.824476
3400.015253	6724.400000
3401.050807	6725.990210
3402.083330	6728.010490
3403.118606	6730.779720
3404.150851	6733.246154
3405.182958	6732.748252
3406.213481	6733.196503
3407.245312	6727.243357
3408.277003	6726.444755
3409.305668	6726.763636
3410.334194	6725.306993
3411.364028	6720.153846
3412.393723	6719.858042
3413.420393	6715.938462
3414.448370	6717.909790
3415.473322	6720.123776
3416.501024	6722.992308
3417.525703	6723.090909
3418.551688	6725.411888
3419.576093	6723.209091
3420.600362	6726.916084
3421.623052	6726.976224
3422.645606	6723.490210
3423.669466	6722.476224
3424.690306	6720.697902
3425.711011	6717.407992
3426.733021	6714.326474
3427.752013	6711.891109
3428.770870	6710.539660
3429.791032	6710.709890
3430.808178	6712.839560
