-118.187858	49.839286
-115.518258	49.494505
-112.851593	49.868282
-110.185680	50.800999
-107.522699	52.133042
-104.858289	53.704795
-102.196809	55.356643
-99.533899	55.258042
-96.876097	56.651049
-94.216864	58.867832
-91.558380	59.400699
-88.902821	59.998601
-86.245833	60.017483
-83.593942	57.554545
-80.940622	56.921678
-78.290222	55.589510
-75.638392	56.780420
-72.991653	56.172028
-70.343484	57.476923
-67.696059	56.234965
-65.051547	57.872727
-62.405607	58.271329
-59.764748	58.220979
-57.122460	58.440559
-54.483080	57.662238
-51.842272	57.053846
-49.202204	56.688811
-46.567208	56.076224
-43.930783	56.828671
-41.297262	57.670629
-38.662312	58.719580
-36.032427	56.662937
-33.398950	59.816084
-30.770535	58.303497
-28.142853	59.016084
-25.513744	55.340559
-22.889691	37.807692
-20.262049	-26.058042
-17.639460	-160.923077
-15.017602	-103.504196
-12.396476	325.046154
-9.776079	978.018881
-7.158570	1506.083217
-4.539633	1864.641259
-1.923582	2056.018881
0.691741	2076.081818
3.306337	1928.630769
5.918050	1612.295105
8.531192	1140.177622
11.139300	553.080420
13.750990	-5.302797
16.357649	-227.095804
18.965736	-119.529371
21.573099	44.002797
24.175437	62.129371
26.781353	61.535664
29.382247	62.781818
31.984570	62.161538
34.581874	63.092308
37.182754	67.867832
39.778620	70.472727
42.375913	72.238462
44.972487	75.469930
47.564052	74.688112
50.157045	76.058042
52.747177	74.144056
55.338737	74.541958
57.927437	71.037063
60.517564	68.682517
63.102693	65.155245
65.689249	65.109091
68.275090	66.822378
70.858078	67.068531
73.442493	69.601399
76.019778	72.519580
78.600630	72.313287
81.178633	75.258042
83.755926	76.577622
86.334645	79.227273
88.908383	77.441259
91.483547	77.988112
94.055868	78.240559
96.627481	79.194406
99.196255	82.082517
101.766455	83.391608
104.333816	85.515385
106.902604	90.558741
109.468554	95.649650
112.031670	105.763636
114.598342	117.835664
117.155793	138.716783
119.718929	177.675524
122.277106	249.744056
124.838836	383.197902
127.395611	601.972727
129.953811	930.634266
132.507059	1383.623776
135.059608	1953.389510
137.615708	2599.994406
140.166861	3280.850350
142.717315	3942.422378
145.267073	4538.933566
147.814011	5027.737063
150.360253	5400.832168
152.907922	5629.302098
155.454894	5752.532867
157.996930	5796.604895
160.538273	5796.295105
163.078924	5784.932867
165.620999	5780.032168
168.160264	5766.383217
170.696719	5768.641259
173.232484	5765.315385
175.769674	5771.039860
178.306172	5778.897902
180.839865	5793.076224
183.370755	5794.090909
185.900956	5798.479720
188.432582	5800.201399
190.961407	5798.053846
193.487433	5795.752448
196.012774	5797.046853
198.539539	5795.528671
201.063508	5796.521678
203.586791	5789.144755
206.109390	5777.972727
208.629196	5769.001399
211.148319	5764.968531
213.666759	5772.060140
216.186623	5773.913986
218.699486	5775.701399
221.215880	5773.608392
223.731592	5776.916783
226.242415	5785.352448
228.754662	5800.005594
231.264126	5803.878322
233.772912	5804.549650
236.281020	5802.564336
238.790551	5802.137063
241.295203	5806.941958
243.799178	5817.219580
246.304577	5816.651748
248.805101	5816.951748
251.309148	5818.241958
253.806225	5826.917483
256.306824	5826.305594
258.804652	5822.744755
261.301807	5820.679720
263.798289	5812.996503
266.289909	5807.641259
268.785047	5798.927273
271.277420	5782.516084
273.769122	5778.372727
276.258061	5765.740559
278.748423	5759.698601
281.236024	5755.949650
283.720865	5754.300000
286.209220	5747.153846
288.690636	5742.799301
291.175566	5750.177622
293.655651	5753.246853
296.139248	5757.351049
298.618002	5756.117483
301.098180	5753.456643
303.575605	5755.476224
306.052367	5749.544755
308.528466	5749.741958
311.001816	5758.543357
313.474504	5775.860140
315.946531	5783.013287
318.417897	5800.083217
320.886519	5814.470629
323.354481	5834.262238
325.823866	5842.583217
328.288428	5842.856643
330.756493	5844.517483
333.219739	5836.317483
335.682328	5829.935664
338.144259	5823.740559
340.605534	5823.300699
343.064075	5823.293706
345.524038	5811.215385
347.981269	5809.274126
350.437844	5799.780420
352.893766	5801.581119
355.346959	5790.946154
357.801573	5779.707692
360.251386	5771.387413
362.704696	5751.322378
365.153206	5735.100000
367.601066	5717.678322
370.050347	5701.217483
372.494835	5689.534965
374.940745	5678.303497
377.386006	5669.477622
379.828548	5668.060140
382.270442	5667.326573
384.711688	5666.979021
387.150219	5678.049650
389.590172	5683.448951
392.027411	5671.763636
394.461938	5665.772727
396.899953	5664.859441
399.333191	5662.064336
401.767851	5662.820280
404.197737	5667.481818
406.631109	5666.932867
409.059711	5668.325874
411.487672	5665.929371
413.917053	5671.141259
416.341669	5680.390909
418.767707	5670.307692
421.193104	5666.613287
423.617861	5675.533566
426.037860	5686.417483
428.459280	5690.357343
430.878003	5708.009091
433.298147	5723.383217
435.715596	5727.455944
438.134465	5729.220979
440.550641	5735.358042
442.962070	5740.847552
445.376975	5742.972727
447.789190	5745.837063
450.200771	5753.379021
452.611718	5751.255245
455.019979	5742.900000
457.427607	5736.437063
459.834604	5740.953147
462.240968	5740.613986
464.644650	5740.014685
467.047702	5734.357343
469.450124	5730.086713
471.851917	5727.500699
474.251031	5722.061538
476.651565	5721.330769
479.051470	5708.869930
481.446652	5697.053846
483.845301	5693.106993
486.239230	5687.293706
488.632533	5685.411189
491.025210	5686.174825
493.417262	5681.988112
495.810733	5668.189510
498.199491	5651.676923
500.585583	5647.093706
502.973095	5641.069231
505.359983	5639.004895
507.744208	5633.265035
510.129852	5636.074126
512.512833	5639.958741
514.893154	5642.425175
517.274894	5652.395105
519.653975	5662.644056
522.034475	5671.095804
524.412317	5672.488112
526.787504	5664.640559
529.162073	5673.837762
531.538061	5684.006294
533.911395	5673.979021
536.286148	5673.669231
538.656214	5672.397902
541.025665	5664.255944
543.396535	5659.739860
545.762723	5665.727273
548.130330	5657.197203
550.495291	5663.300000
552.859639	5664.055944
555.223375	5664.337762
557.588528	5676.162238
559.949008	5682.408392
562.310907	5672.549650
564.670166	5677.280420
567.026786	5668.244755
569.386851	5657.464336
571.740226	5646.582517
574.097045	5643.465734
576.451228	5635.497902
578.804804	5642.404196
581.157771	5639.566434
583.508107	5641.444755
585.859859	5640.996503
588.204935	5639.351049
590.555475	5629.567133
592.899342	5622.796503
595.248669	5615.632168
597.593349	5613.704895
599.935404	5603.838462
602.278875	5602.206993
604.619724	5603.329371
606.959971	5600.374825
609.297597	5589.393007
611.638658	5587.834266
613.975082	5591.809790
616.312922	5599.387413
618.648144	5594.428671
620.980751	5599.621678
623.314775	5603.800699
625.646184	5611.860839
627.976995	5609.333566
630.307208	5619.248951
632.636823	5631.325175
634.961816	5637.151748
637.292250	5630.327273
639.618062	5636.476224
641.941268	5646.411189
644.265889	5651.006294
646.587906	5643.516783
648.909328	5654.457343
651.228147	5651.438462
653.548382	5644.983916
655.868024	5641.862937
658.185065	5648.173427
660.501515	5649.820280
662.815366	5658.525175
665.130632	5651.000699
667.443302	5653.974126
669.757387	5651.950350
672.066872	5661.455944
674.377773	5665.586014
676.686081	5675.941958
678.993801	5662.839860
681.302936	5657.000000
683.607478	5666.623077
685.911434	5662.501399
688.214803	5653.072028
690.519587	5651.663636
692.819785	5639.928671
695.121398	5633.404196
697.422425	5618.809091
699.718870	5620.267832
702.016731	5611.732168
704.314008	5606.555944
706.610702	5601.971329
708.902820	5607.051748
711.198349	5613.695804
713.489305	5606.641958
715.781675	5613.513287
718.071469	5614.688811
720.360684	5616.821678
722.649318	5617.025175
724.935381	5611.492308
727.222857	5617.084615
729.507763	5620.718881
731.792090	5627.255245
734.073849	5633.462238
736.357023	5643.778322
738.639618	5654.709091
740.917659	5662.172727
743.197113	5678.121678
745.475992	5673.111888
747.754295	5671.760140
750.028049	5678.453147
752.303217	5682.156643
754.577811	5681.298601
756.849846	5677.835664
759.123293	5671.342657
761.394183	5678.105594
763.662517	5683.738462
765.932264	5678.302797
768.199457	5681.448252
770.466079	5685.776224
772.732132	5682.467832
774.995632	5680.054545
777.260546	5693.141958
779.524890	5696.417483
781.784705	5697.008392
784.045933	5697.527972
786.306593	5692.016783
788.564706	5691.172028
790.820275	5679.799301
793.079235	5665.819580
795.331696	5669.365734
797.589524	5673.480420
799.842832	5668.346154
802.093601	5660.785315
804.345782	5664.269231
806.595425	5665.742657
808.846479	5676.541958
811.093022	5676.614685
813.340978	5661.261538
815.586398	5653.187413
817.833230	5645.951748
820.079501	5645.751748
822.321268	5651.484615
824.566417	5657.528671
826.805094	5657.332867
829.047154	5646.867832
831.284715	5649.344755
833.523687	5658.553147
835.760133	5672.655944
837.997991	5662.119580
840.233323	5650.511189
842.466131	5652.086014
844.700351	5649.958042
846.932049	5656.544755
849.163192	5667.902098
851.393780	5673.095804
853.623814	5678.311189
855.853293	5672.981818
858.078291	5677.881818
860.306664	5689.154545
862.530558	5694.704196
864.755862	5679.397203
866.976691	5677.452448
869.200892	5676.819580
871.420620	5673.520280
873.641759	5677.974825
875.862347	5688.297902
878.080425	5690.350350
880.299914	5692.665734
882.514936	5696.855944
884.729410	5699.269930
886.943337	5700.716783
889.156716	5694.830070
891.369549	5689.752448
893.581834	5690.998601
895.791618	5685.779720
898.000856	5680.400000
900.209548	5683.348252
902.415742	5687.283217
904.623345	5685.589510
906.828451	5682.923776
909.033013	5682.930769
911.235079	5685.730070
913.438555	5684.682517
915.639537	5691.003497
917.839978	5701.306294
920.041827	5699.852448
922.237284	5703.531469
924.436101	5705.165734
926.630480	5711.497902
928.828215	5717.451049
931.021515	5715.286014
933.216224	5724.295105
935.408447	5732.022378
937.600132	5744.662937
939.791279	5758.923776
941.979943	5778.855944
944.168070	5793.062238
946.353717	5802.365734
948.542716	5813.939161
950.727292	5817.607692
952.911333	5814.808392
955.098724	5816.216783
957.277812	5815.621678
959.460249	5826.958042
961.642153	5833.265734
963.821583	5842.649650
965.998540	5859.648252
968.176905	5874.261538
970.356676	5882.240559
972.530099	5887.648951
974.706868	5893.483916
976.879231	5896.895105
979.053000	5891.741958
981.222366	5889.325175
983.395077	5896.144056
985.565321	5896.248951
987.735037	5896.234965
989.904224	5900.386713
992.069014	5902.353846
994.237145	5900.203497
996.400882	5892.890909
998.566025	5889.637063
1000.728710	5884.363636
1002.890868	5884.815385
1005.050570	5886.512587
1007.209748	5885.704196
1009.370332	5886.915385
1011.528461	5879.334965
1013.686066	5877.584615
1015.843148	5872.906993
1017.999707	5862.711888
1020.151886	5855.853147
1022.305471	5848.817483
1024.458535	5840.806294
1026.609151	5833.650350
1028.761172	5841.951049
1030.908820	5848.083217
1033.059800	5855.198601
1035.206409	5848.565035
1037.352500	5851.311888
1039.498071	5852.576923
1041.645048	5853.910490
1043.785737	5849.998601
1045.929754	5855.895105
1048.071331	5862.068531
1050.212392	5870.789510
1052.354857	5876.627273
1054.491043	5883.869930
1056.630555	5892.064336
1058.765711	5893.621678
1060.904192	5891.566434
1063.038320	5905.941958
1065.171933	5919.204196
1067.306952	5927.246853
1069.437621	5939.837063
1071.569695	5961.920280
1073.699340	5982.725175
1075.828473	6002.246154
1077.957094	6018.105594
1080.085204	6029.473427
1082.210888	6042.080420
1084.336062	6041.532867
1086.462640	6044.939860
1088.584881	6050.723776
1090.708525	6060.253846
1092.827836	6064.790210
1094.952375	6080.182517
1097.070669	6105.062937
1099.190368	6114.043357
1101.307648	6132.206294
1103.424422	6142.430769
1105.540689	6156.021678
1107.654541	6166.091608
1109.769796	6169.048951
1111.880729	6166.693706
1113.994973	6167.065734
1116.104897	6178.564336
1118.216225	6188.628671
1120.327049	6193.739161
1122.433556	6202.704895
1124.543372	6198.453147
1126.648874	6209.693007
1128.755779	6214.993007
1130.856469	6226.822378
1132.962371	6223.177622
1135.063964	6223.153147
1137.166960	6211.738462
1139.269455	6212.486014
1141.365744	6215.231469
1143.467239	6213.878322
1145.564432	6208.687413
1147.661126	6213.025874
1149.757323	6221.609091
1151.853021	6240.325874
1153.948222	6259.948951
1156.041026	6264.484615
1158.135232	6269.623776
1160.223247	6283.962238
1162.316460	6287.427972
1164.403485	6304.514685
1166.493810	6314.990210
1168.579846	6325.239161
1170.669180	6339.155245
1172.752333	6348.066434
1174.836889	6353.294406
1176.922845	6364.232867
1179.004520	6373.833566
1181.087597	6373.531469
1183.168288	6380.634266
1185.248487	6392.055944
1187.328195	6397.786713
1189.407412	6413.937762
1191.484247	6431.806294
1193.558701	6437.961538
1195.636447	6455.976224
1197.709922	6457.713287
1199.784798	6464.712587
1201.855407	6477.486014
1203.927418	6495.217483
1205.997052	6505.055944
1208.068087	6524.823776
1210.138634	6549.961538
1212.204920	6563.670629
1214.272607	6579.932168
1216.337922	6604.509790
1218.404637	6622.202797
1220.467096	6646.276923
1222.532840	6661.383217
1224.594331	6683.222378
1226.657221	6706.500699
1228.717744	6728.003497
1230.777784	6750.676224
1232.837340	6777.639161
1234.894531	6799.203497
1236.951241	6810.755245
1239.005588	6833.746154
1241.063215	6861.096503
1243.118480	6890.215385
1245.169504	6910.055245
1247.221928	6933.579021
1249.273873	6967.825175
1251.323458	6996.681119
1253.372565	7025.883916
1255.421194	7050.870629
1257.469344	7072.822378
1259.517016	7103.118881
1261.560457	7132.748951
1263.607173	7167.751049
1265.651537	7193.994406
1267.695423	7223.623776
1269.736959	7243.297203
1271.776145	7281.291608
1273.818603	7327.781818
1275.856839	7372.703497
1277.896474	7422.334965
1279.935634	7479.416084
1281.970576	7547.230769
1284.006916	7635.152448
1286.040911	7728.998601
1288.076305	7847.383916
1290.107485	7969.827273
1292.140064	8106.979720
1294.172170	8265.365734
1296.201936	8467.076923
1298.233100	8683.539161
1300.260056	8946.321678
1302.288410	9262.327972
1304.312560	9661.681818
1306.339974	10081.024476
1308.363187	10557.140559
1310.387796	10948.493007
1312.410072	11531.250350
1314.433745	14928.451748
1316.455085	20591.113986
1318.475957	27799.800699
1320.496363	35845.066434
1322.512574	44029.571329
1324.530184	51728.444056
1326.545465	58344.803497
1328.564005	64905.097203
1330.578355	69188.436364
1332.590380	69408.806294
1334.605662	65427.128671
1336.616759	58689.718182
1338.629253	51740.423077
1340.637564	43717.940559
1342.649131	35187.045455
1344.654658	26806.944056
1346.663441	19286.110490
1348.668046	13369.539161
1350.675905	9784.862937
1352.683302	9305.108392
1354.684668	9332.774126
1356.687431	9082.586014
1358.689733	8776.469930
1360.691576	8491.377622
1362.692960	8261.946853
1364.692029	8076.683217
1366.690640	7931.488112
1368.688793	7797.946853
1370.686488	7690.152448
1372.680019	7608.727273
1374.674947	7516.216084
1376.669418	7453.213986
1378.663432	7392.132168
1380.655139	7337.056643
1382.646390	7291.760839
1384.635336	7246.252448
1386.625677	7219.367832
1388.615563	7190.734266
1390.603146	7166.890210
1392.590275	7152.883217
1394.575102	7152.224476
1396.561323	7157.861538
1398.545245	7160.569930
1400.528714	7166.253846
1402.511731	7166.793007
1404.492450	7168.714685
1406.474563	7170.811888
1408.454379	7181.187413
1410.433745	7202.045455
1412.408971	7209.705594
1414.387437	7227.848951
1416.363609	7246.456643
1418.339331	7262.332867
1420.314604	7272.990909
1422.287586	7287.544056
1424.260120	7296.536364
1426.232207	7315.267832
1428.203845	7314.557343
1430.171355	7328.250350
1432.143940	7346.567133
1434.108718	7359.775524
1436.078569	7363.822378
1438.044295	7373.586014
1440.011415	7382.060140
1441.976250	7385.669231
1443.936967	7383.385315
1445.902751	7390.723776
1447.862580	7401.798601
1449.823802	7402.656643
1451.786417	7397.541958
1453.744917	7401.857343
1455.702975	7396.546154
1457.660590	7390.281818
1459.617764	7383.470629
1461.572662	7381.188811
1463.528952	7370.699301
1465.482968	7345.752448
1467.436544	7330.429371
1469.387847	7326.550350
1471.340542	7316.121678
1473.290966	7298.434965
1475.240951	7288.722378
1477.190496	7287.431469
1479.137773	7281.381119
1481.082783	7285.061538
1483.029184	7286.723077
1484.975149	7283.570629
1486.920675	7270.416783
1488.863937	7261.606993
1490.806762	7282.194406
1492.747324	7299.467832
1494.689277	7328.360140
1496.628969	7352.951748
1498.568225	7384.873427
1500.507047	7402.740559
1502.443608	7416.302098
1504.381561	7422.530070
1506.317256	7412.174825
1508.252517	7388.713287
1510.185521	7369.561538
1512.118093	7354.365035
1514.050233	7356.262238
1515.981941	7365.897203
1517.911395	7391.288811
1519.842240	7408.509091
1521.772654	7440.682517
1523.698995	7451.945455
1525.626726	7482.404196
1527.552207	7492.553846
1529.477259	7502.683217
1531.401882	7499.248252
1533.326076	7513.716783
1535.248023	7520.657343
1537.171359	7533.767832
1539.092450	7548.320280
1541.011296	7556.343357
1542.931532	7574.400699
1544.849524	7583.808392
1546.767090	7580.116084
1548.682414	7582.641958
1550.599128	7560.820280
1552.511787	7541.836364
1554.427650	7531.165734
1556.341273	7525.190210
1558.252659	7520.192308
1560.165433	7511.632168
1562.074158	7512.405594
1563.984273	7513.053147
1565.893964	7529.330070
1567.803231	7527.283217
1569.710265	7518.290210
1571.615066	7516.609790
1573.521256	7503.124476
1575.425214	7498.688112
1577.328752	7500.475524
1579.231868	7498.580420
1581.132756	7500.380420
1583.035031	7490.558042
1584.935079	7494.254545
1586.836515	7492.322378
1588.733916	7486.451748
1590.630899	7474.847552
1592.527464	7462.676923
1594.425417	7475.190909
1596.317535	7470.535664
1598.212846	7475.173427
1600.107740	7474.847552
1602.000412	7484.037762
1603.892668	7483.739161
1605.782704	7486.862937
1607.672324	7493.031469
1609.561529	7495.437762
1611.450318	7491.548252
1613.336891	7511.158741
1615.224850	7520.580420
1617.108793	7546.441958
1618.994124	7556.013287
1620.879040	7571.690210
1622.761744	7576.741958
1624.645833	7587.800699
1626.525912	7587.713986
1628.407377	7585.503497
1630.286632	7582.192308
1632.167273	7582.326573
1634.042110	7588.516084
1635.921929	7603.951049
1637.797742	7607.550350
1639.673145	7626.902797
1641.549935	7635.220979
1643.420927	7651.225874
1645.295101	7668.893706
1647.165277	7681.056643
1649.038633	7673.622378
1650.909786	7674.208392
1652.778737	7669.375524
1654.649074	7673.511189
1656.515417	7666.413287
1658.383146	7667.277622
1660.248677	7650.828671
1662.115592	7645.076923
1663.978519	7643.732867
1665.842831	7654.112587
1667.704947	7665.027273
1669.566659	7661.563636
1671.429755	7656.609091
1673.290657	7663.909790
1675.149365	7666.500000
1677.007670	7694.492308
1678.867360	7699.381119
1680.721283	7715.548252
1682.578378	7717.880420
1684.435071	7729.995105
1686.287788	7742.598601
1688.143676	7750.653147
1689.995589	7754.744056
1691.847102	7755.720979
1693.698215	7744.301399
1695.548926	7738.572028
1697.399237	7739.562238
1699.247364	7752.937762
1701.096874	7750.481818
1702.940636	7758.717483
1704.789348	7764.773427
1706.632313	7767.083217
1708.478444	7771.700699
1710.320614	7776.572727
1712.165948	7786.828671
1714.005542	7800.281818
1715.846520	7787.514685
1717.688881	7787.686713
1719.527286	7796.961538
1721.367074	7808.819580
1723.204687	7817.784615
1725.041904	7835.578322
1726.876948	7853.470629
1728.713375	7868.565035
1730.547630	7883.383217
1732.381490	7885.598601
1734.214957	7905.772028
1736.044477	7921.639860
1737.877156	7916.283916
1739.705891	7927.842657
1741.537784	7938.801399
1743.365734	7939.680420
1745.193292	7947.230769
1747.020458	7964.228671
1748.847233	7979.691608
1750.673617	7989.889510
1752.496064	7996.146154
1754.321665	8006.672727
1756.143332	8026.043357
1757.966381	8041.236364
1759.787269	8042.818881
1761.607767	8055.785315
1763.429647	8059.123776
1765.245827	8068.486014
1767.065159	8086.939860
1768.880564	8101.438462
1770.699119	8117.537063
1772.513749	8126.981818
1774.327993	8148.560140
1776.141849	8173.025175
1777.955319	8195.049650
1779.766636	8216.636364
1781.579334	8225.281119
1783.391645	8243.401399
1785.200039	8251.309091
1787.009814	8257.779021
1788.815673	8260.709790
1790.624679	8271.413287
1792.429771	8280.102797
1794.236243	8278.448951
1796.042332	8295.425874
1797.844511	8322.688112
1799.649833	8342.398601
1801.451247	8364.513287
1803.254041	8381.970629
1805.052929	8400.960140
1806.853198	8416.517483
1808.653085	8422.708392
1810.450831	8428.640559
1812.248196	8444.179720
1814.045180	8459.014685
1815.841784	8472.031469
1817.636249	8490.068531
1819.432093	8510.436364
1821.222283	8514.155944
1823.017369	8526.032168
1824.806802	8536.002098
1826.599372	8542.164336
1828.389807	8555.963636
1830.178108	8564.030769
1831.969544	8569.309091
1833.755334	8589.253147
1835.542504	8610.582517
1837.327542	8624.476923
1839.115714	8646.381119
1840.900000	8670.206993
1842.682157	8687.339161
1844.465692	8707.461538
1846.247099	8731.059441
1848.029885	8736.422378
1849.808791	8750.612587
1851.589075	8767.027972
1853.367233	8781.431469
1855.146770	8794.952448
1856.924182	8801.986014
1858.699470	8813.979021
1860.476137	8836.055245
1862.250681	8859.701399
1864.026602	8881.134266
1865.796904	8916.845455
1867.570332	8945.080420
1869.341641	8965.072727
1871.112580	8996.405594
1872.884895	9028.772727
1874.651598	9048.875524
1876.421425	9057.213287
1878.187389	9073.573427
1879.956477	9087.367832
1881.721703	9103.342657
1883.486561	9107.015385
1885.252795	9104.194406
1887.015171	9110.906294
1888.777180	9121.404895
1890.538822	9131.353846
1892.300096	9133.679720
1894.061003	9142.393706
1895.821544	9142.241259
1897.579975	9158.902098
1899.338041	9183.772028
1901.093998	9201.727273
1902.851333	9229.039860
1904.608301	9243.569930
1906.363164	9267.583916
1908.115921	9285.112587
1909.868315	9294.753846
1911.622084	9299.913986
1913.373750	9310.645455
1915.123314	9330.881119
1916.874254	9344.012587
1918.624830	9377.611888
1920.371568	9407.786014
1922.119681	9432.389510
1923.865695	9457.851049
1925.613085	9494.751748
1927.358376	9516.695105
1929.101570	9527.372727
1930.846140	9546.974126
1932.588613	9568.583916
1934.330726	9597.732867
1936.072479	9617.293007
1937.813873	9639.395804
1939.553173	9678.665734
1941.292114	9707.393007
1943.030696	9729.060140
1944.767186	9761.665734
1946.503319	9794.518182
1948.240826	9812.647552
1949.974512	9835.726573
1951.709571	9873.551748
1953.442543	9894.172727
1955.175158	9920.623776
1956.907416	9938.083217
1958.639318	9960.280420
1960.369134	9982.433566
1962.096866	10015.379720
1963.825971	10050.695105
1965.554722	10091.567832
1967.281389	10118.339161
1969.007702	10145.781119
1970.735388	10170.358042
1972.457538	10205.830769
1974.182789	10232.139161
1975.904234	10272.861538
1977.628778	10297.634266
1979.351243	10329.822378
1981.069904	10357.694406
1982.791664	10407.420280
1984.509622	10443.913287
1986.228954	10479.090210
1987.944485	10508.717483
1989.664838	10540.044056
1991.381391	10568.412587
1993.094149	10610.055944
1994.810002	10642.730769
1996.523782	10680.655245
1998.237213	10708.723776
1999.948573	10735.884615
2001.661306	10763.857343
2003.370247	10794.862238
2005.082282	10829.320979
2006.788807	10853.644755
2008.498425	10872.277622
2010.205975	10904.461538
2011.913178	10945.381119
2013.618315	10982.683217
2015.323105	11009.781818
2017.029267	11047.579021
2018.731647	11077.029371
2020.435399	11097.831469
2022.137087	11120.332168
2023.838431	11138.893007
2025.539429	11165.731469
2027.238367	11173.769231
2028.938675	11190.216783
2030.635209	11219.915385
2032.333114	11248.884615
2034.028961	11273.454545
2035.727892	11305.651748
2037.421338	11340.118182
2039.116156	11360.640559
2040.810630	11395.151748
2042.501336	11410.669231
2044.195126	11438.003497
2045.885149	11440.845455
2047.576543	11449.332867
2049.265884	11468.483916
2050.956595	11468.161538
2052.643544	11472.814685
2054.330152	11471.253147
2056.018131	11484.834965
2057.702350	11493.306294
2059.387939	11506.241958
2061.073189	11518.479720
2062.756391	11517.288112
2064.440962	11525.787413
2066.120071	11524.613986
2067.803965	11549.040559
2069.482399	11583.289510
2071.163909	11607.753147
2072.841669	11643.248951
2074.519091	11667.702797
2076.197884	11701.736364
2077.874633	11726.381818
2079.549341	11742.498601
2081.225418	11752.349650
2082.899455	11762.781119
2084.573156	11772.411189
2086.246522	11796.103497
2087.917850	11816.600699
2089.588843	11846.493706
2091.259502	11863.673427
2092.929826	11887.472727
2094.599817	11903.310490
2096.267772	11927.227273
2097.935394	11954.835664
2099.600982	11996.308392
2101.267938	12045.434266
2102.932861	12107.610490
2104.597451	12162.481818
2106.260010	12227.779720
2107.923937	12279.016783
2109.585834	12327.232867
2111.247399	12371.352448
2112.908634	12414.694406
2114.567839	12445.821678
2116.226715	12481.094406
2117.885260	12520.827972
2119.543476	12561.627972
2121.197968	12588.888112
2122.855525	12634.969930
2124.512753	12641.411888
2126.166259	12677.123776
2127.821133	12692.934266
2129.472289	12693.439161
2131.126506	12714.913986
2132.777007	12738.683217
2134.428874	12767.040559
2136.075333	12795.953846
2137.726547	12850.263636
2139.374047	12890.197902
2141.022914	12939.865035
2142.669763	12980.719580
2144.316285	13000.969231
2145.962482	13038.793706
2147.604971	13047.690909
2149.250518	13062.408392
2150.892358	13084.086014
2152.537255	13108.794406
2154.178447	13135.931469
2155.819315	13163.509091
2157.459860	13206.804196
2159.098392	13228.474126
2160.738290	13246.608392
2162.374488	13248.055944
2164.012052	13260.205594
2165.649293	13272.030769
2167.284525	13288.895804
2168.919436	13327.243357
2170.554025	13340.357343
2172.188292	13383.594406
2173.818867	13442.841259
2175.452492	13489.760839
2177.082426	13536.549650
2178.713725	13579.032867
2180.343020	13612.588811
2181.971994	13633.379720
2183.600650	13659.223776
2185.228986	13678.855245
2186.855319	13697.969930
2188.481334	13713.962937
2190.105348	13711.256643
2191.730726	13722.388811
2193.354105	13729.414685
2194.978847	13733.129371
2196.599909	13756.009091
2198.220654	13773.080420
2199.842764	13778.263636
2201.462876	13794.929371
2203.080991	13820.230769
2204.698791	13860.589510
2206.316276	13897.611189
2207.933445	13939.676923
2209.550299	13965.843357
2211.166838	13989.173427
2212.781383	14030.967133
2214.393936	14066.656643
2216.007853	14105.744755
2217.619779	14136.145455
2219.233068	14163.036364
2220.844367	14202.281119
2222.453676	14245.200699
2224.064349	14298.152448
2225.673033	14361.723776
2227.281405	14408.229371
2228.887789	14453.351748
2230.495537	14494.775524
2232.101298	14550.248951
2233.706748	14584.098601
2235.310214	14644.818881
2236.915042	14688.937762
2238.517886	14722.359441
2240.118747	14755.779720
2241.720971	14803.206993
2243.321212	14844.431469
2244.922816	14891.453147
2246.520768	14912.848252
2248.120082	14971.727273
2249.717416	15014.857343
2251.314442	15082.758042
2252.912829	15152.152448
2254.507568	15222.069930
2256.100331	15246.117483
2257.694455	15273.153846
2259.289941	15294.560140
2260.881783	15308.567832
2262.473318	15319.751049
2264.066214	15318.728671
2265.653801	15320.420280
2267.246085	15349.010490
2268.833061	15367.757343
2270.423066	15408.891608
2272.007766	15422.541259
2273.597160	15432.486713
2275.181251	15418.747552
2276.766704	15404.833566
2278.350187	15408.627972
2279.936697	15402.353846
2281.519573	15422.486713
2283.102145	15438.888811
2284.684414	15470.056643
2286.263054	15506.179720
2287.844717	15535.888811
2289.422752	15575.464336
2291.003810	15586.465035
2292.581242	15606.089510
2294.156710	15610.988811
2295.735199	15618.606993
2297.310065	15633.522378
2298.884630	15624.635664
2300.458895	15629.004196
2302.032859	15635.176923
2303.606523	15650.706294
2305.179886	15661.600699
2306.749631	15689.095105
2308.319077	15719.495105
2309.891542	15754.948951
2311.458731	15795.883217
2313.028939	15854.674825
2314.595532	15910.959441
2316.163485	15968.500000
2317.729483	16030.284615
2319.295182	16089.172028
2320.860585	16138.004895
2322.424034	16196.443357
2323.988841	16257.720979
2325.550041	16306.650350
2327.114255	16362.430070
2328.673208	16404.447552
2330.235174	16434.663636
2331.795190	16475.178322
2333.354910	16515.072028
2334.912681	16566.560839
2336.470158	16625.616783
2338.027339	16660.544755
2339.582574	16705.990210
2341.137514	16760.006294
2342.692161	16801.146154
2344.246514	16821.883217
2345.800573	16867.987413
2347.354338	16892.219580
2348.906160	16918.254545
2350.456038	16934.290210
2352.008924	16964.666434
2353.556568	16994.467832
2355.107219	17035.954545
2356.654280	17068.467133
2358.202698	17108.304895
2359.750824	17145.082517
2361.295363	17171.911888
2362.841259	17213.765035
2364.385216	17249.398601
2365.930531	17304.943357
2367.472261	17352.893706
2369.015348	17387.537063
2370.556500	17458.299301
2372.097362	17498.309790
2373.637935	17559.003497
2375.178219	17592.777622
2376.718214	17621.192308
2378.254630	17660.580420
2379.794048	17708.050350
2381.329889	17734.834965
2382.867086	17763.173427
2384.400709	17811.423776
2385.937331	17861.688112
2387.472022	17917.387413
2389.004784	17982.698601
2390.537260	18032.190210
2392.067807	18085.391608
2393.601352	18125.173427
2395.129686	18171.315385
2396.659376	18230.965734
2398.188781	18284.883217
2399.717900	18338.081119
2401.246735	18411.266434
2402.770365	18469.883217
2404.298630	18546.255944
2405.821692	18619.268531
2407.349388	18682.883916
2408.870245	18755.472028
2410.395735	18816.157343
2411.917664	18883.039161
2413.440949	18950.839860
2414.962313	19016.324476
2416.481757	19077.267832
2418.002556	19150.281818
2419.521436	19221.311189
2421.040034	19268.123776
2422.556715	19326.184615
2424.074750	19374.908392
2425.592504	19428.200699
2427.106707	19480.130070
2428.620629	19556.254545
2430.134272	19618.153846
2431.649268	19683.450350
2433.160716	19735.786014
2434.673519	19793.283217
2436.184409	19857.136364
2437.695019	19923.169930
2439.203718	19993.548252
2440.715404	20074.356643
2442.223546	20154.285315
2443.731409	20261.588811
2445.238995	20370.887413
2446.743040	20490.230070
2448.250071	20587.580420
2449.755193	20704.681119
2451.260038	20805.336364
2452.762976	20894.562238
2454.265637	20990.698601
2455.768022	21057.506294
2457.268502	21126.263636
2458.770335	21183.926573
2460.270264	21247.895804
2461.769917	21311.034965
2463.269295	21361.204196
2464.766769	21405.881818
2466.262343	21442.293007
2467.760896	21499.334266
2469.255920	21515.008392
2470.752298	21551.260140
2472.245149	21579.577622
2473.739352	21598.401399
2475.233282	21608.783217
2476.723689	21645.070629
2478.217072	21685.092308
2479.708558	21719.622378
2481.198147	21754.293007
2482.687464	21802.818182
2484.174886	21821.665035
2485.665283	21850.209091
2487.152161	21844.563636
2488.640391	21851.254545
2490.125105	21825.472727
2491.609548	21813.574126
2493.095343	21776.791608
2494.579245	21767.088112
2496.064499	21738.857343
2497.544619	21720.102797
2499.027711	21702.344056
2500.508913	21691.248252
2501.989846	21670.229371
2503.468890	21656.106294
2504.947666	21594.712587
2506.426172	21545.625874
2507.904411	21495.859441
2509.382381	21458.927273
2510.856847	21421.518182
2512.334281	21391.937762
2513.808212	21365.470629
2515.283494	21339.936364
2516.758508	21332.808392
2518.230021	21321.276224
2519.702885	21322.702797
2521.173865	21311.686713
2522.646196	21293.819580
2524.113414	21285.700699
2525.583597	21276.621678
2527.051900	21287.870629
2528.519938	21299.341259
2529.987711	21302.909091
2531.455219	21322.781119
2532.922462	21342.542657
2534.386213	21382.951049
2535.851315	21423.153147
2537.314538	21470.150350
2538.779112	21514.765035
2540.240196	21570.465734
2541.702630	21618.608392
2543.164801	21681.112587
2544.623486	21736.506993
2546.086743	21775.693706
2547.544903	21817.325175
2549.004412	21857.787413
2550.458828	21887.852448
2551.917813	21903.158741
2553.374927	21917.711189
2554.830170	21922.997203
2556.285152	21935.506294
2557.738264	21961.176224
2559.192725	21994.567832
2560.645317	22028.534965
2562.097649	22060.295105
2563.548113	22114.017483
2565.001533	22184.269231
2566.449871	22246.365734
2567.901165	22305.569930
2569.350592	22358.047552
2570.796548	22433.246853
2572.245458	22489.377622
2573.690897	22553.697902
2575.137685	22603.960839
2576.582609	22651.444755
2578.027276	22683.295804
2579.473290	22710.634266
2580.915837	22712.913287
2582.359732	22733.135664
2583.800162	22752.498601
2585.241940	22775.367832
2586.681857	22821.304895
2588.123122	22896.302098
2589.560926	22956.756643
2591.001679	23014.715385
2592.437369	23087.225175
2593.876009	23157.493007
2595.312792	23210.353846
2596.747718	23262.960140
2598.185593	23291.039161
2599.618410	23353.273427
2601.052573	23371.832168
2602.484883	23409.276224
2603.918539	23433.640559
2605.350342	23475.281818
2606.781892	23494.148252
2608.213188	23501.858042
2609.642633	23524.474126
2611.071825	23534.099301
2612.499166	23571.695804
2613.927854	23600.773427
2615.356289	23642.831469
2616.781277	23693.767133
2618.207612	23713.732168
2619.632098	23789.316084
2621.057930	23823.161538
2622.480318	23873.993007
2623.904052	23909.557343
2625.325940	23919.058741
2626.747577	23929.078322
2628.167369	23943.751049
2629.588507	23983.202797
2631.009395	23982.074126
2632.426845	24043.179021
2633.847234	24081.332867
2635.264186	24129.727273
2636.680890	24191.415385
2638.097345	24222.594406
2639.513552	24265.222378
2640.929510	24303.346853
2642.343628	24286.543357
2643.757499	24304.908392
2645.169530	24338.343357
2646.582906	24382.959441
2647.992852	24430.610490
2649.405733	24490.917483
2650.815187	24540.937063
2652.224394	24594.479021
2653.631765	24646.720280
2655.042070	24708.240559
2656.450539	24754.832168
2657.857173	24831.108392
2659.263562	24877.576224
2660.668117	24955.835664
2662.074016	25057.814685
2663.478082	25142.506993
2664.881904	25225.209091
2666.285481	25259.079021
2667.687226	25292.828671
2669.090315	25279.670629
2670.489987	25242.255245
2671.891001	25196.041259
2673.288600	25106.075524
2674.689129	25063.535664
2676.086243	25003.625175
2677.484700	24937.274126
2678.881329	24923.115385
2680.277716	24890.633566
2681.673862	24889.929371
2683.068181	24894.413287
2684.463843	24875.764336
2685.856095	24870.397902
2687.249691	24880.802797
2688.641462	24895.213986
2690.034575	24882.960140
2691.425865	24908.976224
2692.815332	24941.383916
2694.204560	24945.107692
2695.593547	24989.585315
2696.983877	25000.693007
2698.369222	25048.133566
2699.757491	25089.820280
2701.143940	25099.555944
2702.530150	25162.305594
2703.916122	25198.314685
2705.298695	25216.416783
2706.682609	25266.323077
2708.066286	25299.277622
2709.449725	25366.394406
2710.829768	25410.441259
2712.211153	25474.994406
2713.590722	25535.997902
2714.971633	25597.032168
2716.350729	25667.448252
2717.728010	25730.560839
2719.106633	25796.903497
2720.483443	25837.449650
2721.860017	25894.097203
2723.236355	25960.313287
2724.610881	26001.346853
2725.986748	26065.057343
2727.359228	26126.157343
2728.734625	26191.923077
2730.105060	26270.837063
2731.476837	26316.140559
2732.848380	26378.340559
2734.218114	26449.644755
2735.589188	26519.823776
2736.958455	26544.423776
2738.327488	26573.721678
2739.694714	26614.818881
2741.061708	26636.088112
2742.428469	26673.794406
2743.794997	26731.759441
2745.159720	26788.518881
2746.524212	26879.597203
2747.888471	26952.802797
2749.252499	27028.820280
2750.616294	27135.656643
2751.976716	27200.883916
2753.340049	27208.065035
2754.698439	27250.118881
2756.059739	27277.219580
2757.417668	27285.727273
2758.778507	27306.385315
2760.137545	27303.492308
2761.493215	27328.548951
2762.851793	27375.187413
2764.207005	27444.223776
2765.561987	27511.483916
2766.915172	27598.601399
2768.271264	27646.814685
2769.623992	27718.742657
2770.976491	27782.080420
2772.328762	27831.452448
2773.682372	27868.001399
2775.032620	27905.743357
2776.381075	27948.235664
2777.732434	28013.322378
2779.080434	28051.551049
2780.429773	28115.710490
2781.777319	28171.168531
2783.124638	28206.832867
2784.471731	28221.718881
2785.817033	28260.421678
2787.162109	28265.349650
2788.506959	28302.725874
2789.851582	28336.954545
2791.192854	28416.594406
2792.535464	28502.114685
2793.877848	28586.529371
2795.220008	28670.005594
2796.558818	28764.848252
2797.900527	28868.447552
2799.238889	28942.424476
2800.578588	29001.331469
2801.916501	29082.525175
2803.252630	29142.210490
2804.588536	29222.782517
2805.925778	29307.792308
2807.261237	29433.688112
2808.596473	29509.732867
2809.929927	29604.455944
2811.264717	29714.306993
2812.596166	29775.867133
2813.930511	29842.192308
2815.259958	29883.199301
2816.590742	29931.639161
2817.921304	29989.025874
2819.250087	30009.227273
2820.580207	30048.165734
2821.908547	30111.144755
2823.236667	30138.130769
2824.563010	30141.939161
2825.890688	30182.341259
2827.215034	30224.220979
2828.540715	30226.786014
2829.864621	30234.349650
2831.188308	30252.672727
2832.513330	30251.887413
2833.835023	30272.134266
2835.156496	30280.041259
2836.477751	30311.151049
2837.798787	30313.191608
2839.118051	30304.608392
2840.438650	30332.009790
2841.757477	30352.526573
2843.076086	30378.724476
2844.392925	30404.550350
2845.709546	30424.304196
2847.025949	30474.501399
2848.340584	30495.087413
2849.656553	30545.556643
2850.969202	30584.174126
2852.283187	30636.042657
2853.596955	30668.672028
2854.910506	30707.328671
2856.222290	30770.507692
2857.532309	30794.558042
2858.843661	30835.323776
2860.151699	30887.870629
2861.461072	30978.525874
2862.770229	31090.638462
2864.079171	31166.941259
2865.386350	31255.471329
2866.691765	31359.596503
2867.998515	31464.060140
2869.303502	31511.207692
2870.608276	31559.142657
2871.911288	31634.537762
2873.217182	31635.674126
2874.518220	31685.256643
2875.820593	31710.868531
2877.121206	31755.955944
2878.423153	31774.500699
2879.724887	31787.623077
2881.023317	31827.392308
2882.323080	31843.019580
2883.621085	31840.752448
2884.918879	31810.795804
2886.214917	31832.632168
2887.512288	31850.911888
2888.807903	31858.759441
2890.103307	31874.358741
2891.398501	31866.715385
2892.690396	31896.689510
2893.985168	31919.967133
2895.276643	31949.262238
2896.569452	31967.402098
2897.862049	31952.418182
2899.151353	31985.569231
2900.441989	32023.085315
2901.730874	32058.802797
2903.021092	32117.746853
2904.308018	32157.313287
2905.596276	32164.889510
2906.882784	32216.037762
2908.169085	32264.188811
2909.455177	32279.439860
2910.739521	32309.080420
2912.026737	32316.504895
2913.309126	32336.637762
2914.592846	32372.220280
2915.874821	32400.687413
2917.156589	32450.544755
2918.436611	32495.239161
2919.719503	32506.847552
2921.000650	32501.716783
2922.278515	32544.715385
2923.559249	32516.677622
2924.836702	32506.040559
2926.113950	32526.121678
2927.389455	32522.627972
2928.667828	32512.930070
2929.941386	32501.286014
2931.217812	32511.581119
2932.492497	32565.172727
2933.765442	32583.039860
2935.039717	32617.185315
2936.312253	32631.508392
2937.584585	32677.032168
2938.853644	32691.949650
2940.125567	32700.686014
2941.395753	32696.987413
2942.665736	32696.983916
2943.935515	32698.103497
2945.203557	32726.965035
2946.469864	32777.455944
2947.735968	32835.688112
2949.003402	32896.032867
2950.269102	32915.036364
2951.534599	32969.819580
2952.799894	33016.723077
2954.061924	33060.609790
2955.325285	33059.503497
2956.588444	33068.048252
2957.849870	33072.737063
2959.112626	33113.321678
2960.373651	33153.472727
2961.632945	33186.284615
2962.892038	33220.486014
2964.150931	33244.992308
2965.409624	33248.359441
2966.668117	33315.914685
2967.924881	33369.483217
2969.181445	33453.045455
2970.436282	33504.542657
2971.692448	33555.338462
2972.945358	33595.431469
2974.199598	33701.324476
2975.453639	33726.891608
2976.705954	33775.144056
2977.958071	33849.688811
2979.208463	33907.031469
2980.461710	33977.426573
2981.710180	34067.353147
2982.961504	34158.333566
2984.209580	34220.851748
2985.457458	34263.216084
2986.705139	34303.669231
2987.952624	34390.518881
2989.198387	34448.064336
2990.443953	34485.211189
2991.690848	34561.674126
2992.934497	34663.993007
2994.179475	34780.482517
2995.421210	34873.993706
2996.665796	34953.580420
2997.908662	35037.372727
2999.148288	35086.089510
3000.390765	35148.800699
3001.630001	35156.182517
3002.870565	35246.702098
3004.109412	35275.616783
3005.348065	35324.749650
3006.585002	35396.451049
3007.823266	35454.706993
3009.059816	35563.382517
3010.296171	35630.263636
3011.532333	35707.140559
3012.766782	35788.817483
3014.001037	35839.539161
3015.235099	35890.898601
3016.467449	35938.683916
3017.698087	35992.246154
3018.931571	36023.679021
3020.163343	36052.182517
3021.393405	36119.905594
3022.623275	36178.772028
3023.851435	36266.548951
3025.080921	36315.565035
3026.308699	36376.255944
3027.536285	36445.088112
3028.765197	36483.297203
3029.989367	36537.013287
3031.216380	36617.562238
3032.440170	36622.047552
3033.665285	36669.019580
3034.888694	36715.604196
3036.111914	36761.556643
3037.333428	36817.090210
3038.557783	36878.221678
3039.777403	36933.204895
3040.998348	36972.983916
3042.219105	37037.364336
3043.438158	37082.995804
3044.658537	37142.758042
3045.875699	37202.326573
3047.094186	37266.032168
3048.310972	37320.609790
3049.527569	37379.267133
3050.743979	37435.327972
3051.957175	37488.188811
3053.173209	37573.865035
3054.386031	37620.264336
3055.601690	37673.029371
3056.812626	37727.489510
3058.024887	37780.569930
3059.236962	37854.272727
3060.448850	37878.759441
3061.659040	37925.297203
3062.869045	37955.515734
3064.078863	38017.000000
3065.286985	38063.513636
3066.494921	38107.152448
3067.701163	38185.289161
3068.908728	38195.060839
3070.114600	38281.755594
3071.320286	38371.187413
3072.525787	38446.501748
3073.729596	38554.034266
3074.934728	38574.592657
3076.138167	38635.945455
3077.339914	38711.415734
3078.541478	38768.727972
3079.742858	38830.660140
3080.944054	38878.174825
3082.143560	38932.695804
3083.342882	38943.646154
3084.543528	39037.588811
3085.742485	39090.976923
3086.938246	39111.764336
3088.136837	39162.327972
3089.332234	39199.265734
3090.528954	39242.712587
3091.722482	39280.619580
3092.918839	39343.570629
3094.113508	39411.405594
3095.304987	39465.321678
3096.500797	39501.137762
3097.691914	39548.436364
3098.884353	39602.637063
3100.073605	39664.068531
3101.265683	39708.356643
3102.456076	39762.123077
3103.643284	39796.079720
3104.831815	39823.244056
3106.021668	39863.242657
3107.208336	39885.425874
3108.394825	39903.132168
3109.581134	39888.890210
3110.768765	39874.568531
3111.953215	39875.814685
3113.135984	39902.300699
3114.321577	39967.274126
3115.505489	40007.924476
3116.687723	40044.832867
3117.869779	40078.793007
3119.051656	40139.224476
3120.233355	40194.208392
3121.413376	40203.858042
3122.591721	40224.813986
3123.772887	40205.424476
3124.950877	40239.969231
3126.128690	40258.967832
3127.306326	40270.558741
3128.482287	40290.230769
3129.658072	40291.553147
3130.835177	40311.453147
3132.010608	40345.488112
3133.184366	40401.840559
3134.356452	40457.741958
3135.529858	40482.143357
3136.703089	40560.983916
3137.874647	40667.553147
3139.047527	40799.069930
3140.217239	40934.872727
3141.388272	40995.255944
3142.557634	41054.598601
3143.725327	41078.119580
3144.895835	41089.346853
3146.061684	41121.325874
3147.231843	41130.896503
3148.397344	41136.739860
3149.562672	41097.176224
3150.727826	41090.195804
3151.892806	41099.537762
3153.059107	41051.831469
3154.220754	40988.326573
3155.383722	40880.405594
3156.546516	40732.215385
3157.709138	40563.632867
3158.870095	40450.439161
3160.030879	40337.751049
3161.191491	40237.472727
3162.350440	40218.991608
3163.509216	40217.814685
3164.667821	40232.334266
3165.826254	40271.931469
3166.984515	40310.134266
3168.141114	40372.323776
3169.296052	40425.767832
3170.452309	40428.073427
3171.606906	40466.182517
3172.761331	40537.535664
3173.914097	40526.390909
3175.066693	40582.442657
3176.219118	40630.153147
3177.371374	40680.921678
3178.523460	40698.671329
3179.672399	40755.223776
3180.824145	40861.745455
3181.974234	40948.899301
3183.122665	41052.118182
3184.270928	41172.087413
3185.419021	41343.985315
3186.566946	41529.379021
3187.713216	41660.930769
3188.859317	41794.443357
3190.003763	41838.052448
3191.148042	41921.729371
3192.292153	41943.598601
3193.437582	41950.653147
3194.579872	41947.609091
3195.721994	41913.918881
3196.863950	41899.497203
3198.005738	41902.112587
3199.147359	41931.588112
3200.285844	41971.481818
3201.425647	42002.772028
3202.566768	42036.306294
3203.704754	42062.471329
3204.841091	42097.994406
3205.977262	42141.719580
3207.114751	42161.589510
3208.250591	42214.874126
3209.387747	42208.050350
3210.520291	42205.609790
3211.657117	42224.015385
3212.789331	42205.932168
3213.922863	42144.857343
3215.056229	42047.581818
3216.186468	41924.676224
3217.319505	41828.302797
3218.449416	41716.721678
3219.580644	41648.676224
3220.708746	41610.720979
3221.839645	41597.037762
3222.968901	41577.223077
3224.096512	41634.942657
3225.221002	41711.655245
3226.349767	41768.815385
3227.475410	41825.885315
3228.600890	41877.987413
3229.724729	41904.088811
3230.851362	41924.408392
3231.973398	41898.837762
3233.096750	41896.642657
3234.219940	41886.391608
3235.342968	41840.756643
3236.464356	41812.101399
3237.585583	41808.735664
3238.705171	41848.087413
3239.824598	41922.104196
3240.942387	42030.596503
3242.062969	42186.657343
3243.180436	42321.976923
3244.297744	42499.711189
3245.414890	42684.867832
3246.530401	42867.838462
3247.647227	42996.031469
3248.760942	43116.513287
3249.877448	43190.076923
3250.992318	43229.647552
3252.104080	43297.381119
3253.215683	43270.720280
3254.328600	43219.324476
3255.441359	43240.221678
3256.551011	43225.985315
3257.661978	43252.439860
3258.772786	43278.603497
3259.881962	43322.925175
3260.989507	43378.680420
3262.098367	43482.290210
3263.207068	43579.358042
3264.312667	43682.999301
3265.419581	43802.689510
3266.524865	43830.899301
3267.631463	43862.143357
3268.734961	43938.420280
3269.839773	43931.577622
3270.944428	43963.024476
3272.045984	43999.175524
3273.147385	44030.236364
3274.250099	44039.762238
3275.352656	44115.460140
3276.452118	44141.668531
3277.554362	44212.480420
3278.653512	44272.073427
3279.751036	44276.395105
3280.848405	44284.900699
3281.948557	44293.811189
3283.045615	44232.597902
3284.142518	44253.059441
3285.239267	44227.968531
3286.331456	44215.674825
3287.427895	44210.440559
3288.522711	44195.365734
3289.617372	44214.264336
3290.710412	44275.490210
3291.803298	44324.837063
3292.894563	44346.630769
3293.987141	44395.265035
3295.078098	44416.951748
3296.167437	44409.466434
3297.256621	44466.106993
3298.347119	44447.938462
3299.434532	44455.316084
3300.521793	44468.957343
3301.610366	44518.902098
3302.698786	44578.639161
3303.782659	44634.528671
3304.870774	44731.455944
3305.955808	44788.813986
3307.039226	44906.512587
3308.123955	44975.860140
3309.207070	45069.039161
3310.291496	45146.315385
3311.372844	45199.777622
3312.455504	45261.183916
3313.536550	45285.629371
3314.617445	45350.255944
3315.696727	45351.579720
3316.775858	45423.797902
3317.856300	45474.922378
3318.933669	45483.430070
3320.012349	45557.560839
3321.089417	45583.741958
3322.166335	45656.234965
3323.241642	45724.247552
3324.316800	45760.599301
3325.393270	45795.213287
3326.466668	45802.313986
3327.539918	45873.247552
3328.614479	45921.046853
3329.687430	45949.445455
3330.758774	45916.608392
3331.831428	45926.716783
3332.901015	45936.698601
3333.971913	45918.116783
3335.041204	45906.793706
3336.111806	45869.355245
3337.180801	45805.507692
3338.248190	45800.383916
3339.313974	45754.239860
3340.383984	45734.409790
3341.450931	45729.072727
3342.514816	45705.679021
3343.581469	45724.251748
3344.646517	45779.946154
3345.709963	45807.218182
3346.773261	45815.641259
3347.836414	45863.607692
3348.899420	45858.460140
3349.962279	45908.804196
3351.023537	45900.759441
3352.081738	45871.462238
3353.144160	45898.712587
3354.203525	45985.628671
3355.262745	46034.806294
3356.323275	46142.037063
3357.379295	46272.334266
3358.438080	46381.407692
3359.492357	46480.716084
3360.549397	46581.334266
3361.604840	46667.469231
3362.661591	46758.528671
3363.716745	46770.872028
3364.770301	46804.844755
3365.822260	46878.849650
3366.876981	46935.814685
3367.928653	46978.262937
3368.980182	47056.893706
3370.033020	47112.088112
3371.082810	47157.444056
3372.133908	47182.590909
3373.181961	47231.759441
3374.232774	47289.269930
3375.280541	47311.724476
3376.328166	47354.051748
3377.375649	47395.980420
3378.421538	47459.472028
3379.468736	47467.311189
3380.512892	47545.253147
3381.559806	47578.706993
3382.605128	47558.100699
3383.647410	47591.562937
3384.689550	47573.762937
3385.732998	47620.872028
3386.776306	47622.567832
3387.818023	47651.864336
3388.859599	47727.724476
3389.901035	47790.364336
3390.940881	47861.265035
3391.979140	47928.972028
3393.018706	48056.262937
3394.058131	48109.566434
3395.095970	48122.153846
3396.132221	48158.859441
3397.168332	48185.102098
3398.205751	48250.152448
3399.240137	48245.575524
3400.275830	48269.235664
3401.311384	48328.194406
3402.343907	48409.888112
3403.379183	48487.217483
3404.411428	48552.472028
3405.443535	48652.167832
3406.474058	48714.299301
3407.505889	48771.905594
3408.537580	48824.406993
3409.566245	48925.830769
3410.594771	48983.553846
3411.624605	48979.779021
3412.654300	49029.587413
3413.680970	49091.566434
3414.708947	49192.386713
3415.733899	49219.492308
3416.761601	49296.577622
3417.786280	49351.255245
3418.812265	49400.548252
3419.836670	49458.618881
3420.860939	49464.722378
3421.883629	49520.551748
3422.906183	49486.088112
3423.930043	49443.309790
3424.950883	49409.257343
3425.971588	49362.611688
3426.993598	49328.627847
3428.012590	49317.870330
3429.031447	49340.903646
3430.051609	49408.292308
3431.068755	49530.600824
