-118.187858	64.800000
-115.518258	83.700000
-112.851593	73.700000
-110.185680	69.300000
-107.522699	80.200000
-104.858289	69.300000
-102.196809	74.500000
-99.533899	82.400000
-96.876097	75.000000
-94.216864	77.500000
-91.558380	80.400000
-88.902821	77.000000
-86.245833	66.800000
-83.593942	80.500000
-80.940622	76.200000
-78.290222	65.600000
-75.638392	85.200000
-72.991653	76.300000
-70.343484	73.900000
-67.696059	74.900000
-65.051547	68.500000
-62.405607	68.300000
-59.764748	92.900000
-57.122460	79.200000
-54.483080	88.200000
-51.842272	80.300000
-49.202204	77.700000
-46.567208	92.200000
-43.930783	74.200000
-41.297262	79.200000
-38.662312	80.100000
-36.032427	77.000000
-33.398950	84.600000
-30.770535	88.000000
-28.142853	73.900000
-25.513744	92.500000
-22.889691	100.800000
-20.262049	101.800000
-17.639460	104.900000
-15.017602	124.100000
-12.396476	139.500000
-9.776079	240.300000
-7.158570	609.200000
-4.539633	1864.400000
-1.923582	4665.000000
0.691741	5918.100000
3.306337	3464.100000
5.918050	508.800000
8.531192	131.300000
11.139300	109.400000
13.750990	95.900000
16.357649	85.300000
18.965736	80.100000
21.573099	97.000000
24.175437	82.000000
26.781353	93.900000
29.382247	84.900000
31.984570	86.500000
34.581874	90.200000
37.182754	95.500000
39.778620	96.200000
42.375913	102.300000
44.972487	92.500000
47.564052	105.800000
50.157045	97.500000
52.747177	96.500000
55.338737	100.100000
57.927437	93.100000
60.517564	79.900000
63.102693	91.200000
65.689249	82.400000
68.275090	87.700000
70.858078	87.300000
73.442493	95.800000
76.019778	90.700000
78.600630	102.700000
81.178633	108.700000
83.755926	95.200000
86.334645	84.100000
88.908383	95.500000
91.483547	103.300000
94.055868	112.000000
96.627481	109.100000
99.196255	105.700000
101.766455	131.600000
104.333816	146.600000
106.902604	123.400000
109.468554	143.200000
112.031670	155.900000
114.598342	179.400000
117.155793	233.800000
119.718929	285.500000
122.277106	399.900000
124.838836	540.000000
127.395611	798.900000
129.953811	1165.600000
132.507059	1739.800000
135.059608	2490.400000
137.615708	3486.500000
140.166861	4520.300000
142.717315	5680.600000
145.267073	6516.200000
147.814011	7169.900000
150.360253	7510.700000
152.907922	7812.400000
155.454894	7907.400000
157.996930	7925.200000
160.538273	7992.100000
163.078924	7961.300000
165.620999	8027.000000
168.160264	8034.500000
170.696719	8005.600000
173.232484	7983.200000
175.769674	7962.200000
178.306172	8036.700000
180.839865	8004.400000
183.370755	8001.200000
185.900956	7959.500000
188.432582	8003.400000
190.961407	8033.500000
193.487433	7972.500000
196.012774	7984.700000
198.539539	7973.000000
201.063508	7971.500000
203.586791	8023.200000
206.109390	8028.500000
208.629196	7964.200000
211.148319	7969.100000
213.666759	8000.500000
216.186623	7999.300000
218.699486	7991.500000
221.215880	8003.200000
223.731592	8050.800000
226.242415	8015.700000
228.754662	7982.800000
231.264126	8053.300000
233.772912	8029.900000
236.281020	7998.000000
238.790551	8047.600000
241.295203	8052.400000
243.799178	8045.800000
246.304577	8039.700000
248.805101	8090.400000
251.309148	8114.500000
253.806225	8053.300000
256.306824	8100.600000
258.804652	8053.900000
261.301807	8013.700000
263.798289	8031.500000
266.289909	7975.700000
268.785047	8045.400000
271.277420	8031.300000
273.769122	8001.000000
276.258061	8048.100000
278.748423	7990.700000
281.236024	7998.200000
283.720865	7932.800000
286.209220	7995.300000
288.690636	7915.600000
291.175566	7963.800000
293.655651	7920.900000
296.139248	7897.500000
298.618002	8017.800000
301.098180	7966.500000
303.575605	8016.800000
306.052367	7987.300000
308.528466	8009.400000
311.001816	7949.200000
313.474504	7965.800000
315.946531	7911.600000
318.417897	8030.500000
320.886519	8040.200000
323.354481	8062.100000
325.823866	8058.600000
328.288428	8077.700000
330.756493	8100.300000
333.219739	8017.800000
335.682328	8078.000000
338.144259	8066.300000
340.605534	8058.600000
343.064075	8028.400000
345.524038	8009.600000
347.981269	8026.600000
350.437844	8051.300000
352.893766	7972.200000
355.346959	7914.400000
357.801573	7968.700000
360.251386	7912.900000
362.704696	7928.700000
365.153206	7882.000000
367.601066	7831.100000
370.050347	7832.400000
372.494835	7928.100000
374.940745	7817.200000
377.386006	7794.300000
379.828548	7845.700000
382.270442	7834.500000
384.711688	7831.800000
387.150219	7844.800000
389.590172	7790.300000
392.027411	7847.400000
394.461938	7776.400000
396.899953	7852.400000
399.333191	7790.900000
401.767851	7780.800000
404.197737	7741.300000
406.631109	7785.600000
409.059711	7872.200000
411.487672	7758.200000
413.917053	7813.700000
416.341669	7758.100000
418.767707	7891.900000
421.193104	7841.200000
423.617861	7795.500000
426.037860	7859.500000
428.459280	7886.500000
430.878003	7853.300000
433.298147	7807.400000
435.715596	7862.700000
438.134465	7853.500000
440.550641	7877.300000
442.962070	7929.600000
445.376975	7857.400000
447.789190	7848.400000
450.200771	7981.500000
452.611718	7941.300000
455.019979	7880.800000
457.427607	7913.500000
459.834604	7912.900000
462.240968	7871.000000
464.644650	7936.100000
467.047702	7874.900000
469.450124	7914.100000
471.851917	7834.300000
474.251031	7854.100000
476.651565	7876.800000
479.051470	7843.400000
481.446652	7758.900000
483.845301	7923.400000
486.239230	7887.100000
488.632533	7785.000000
491.025210	7804.600000
493.417262	7839.900000
495.810733	7785.300000
498.199491	7859.900000
500.585583	7796.900000
502.973095	7744.300000
505.359983	7817.500000
507.744208	7773.000000
510.129852	7804.800000
512.512833	7743.600000
514.893154	7711.400000
517.274894	7829.800000
519.653975	7820.600000
522.034475	7868.700000
524.412317	7724.000000
526.787504	7832.000000
529.162073	7780.700000
531.538061	7824.900000
533.911395	7771.600000
536.286148	7782.400000
538.656214	7804.100000
541.025665	7865.900000
543.396535	7826.200000
545.762723	7736.200000
548.130330	7792.700000
550.495291	7767.500000
552.859639	7803.000000
555.223375	7801.200000
557.588528	7849.600000
559.949008	7866.900000
562.310907	7827.300000
564.670166	7836.300000
567.026786	7834.600000
569.386851	7816.800000
571.740226	7767.000000
574.097045	7835.700000
576.451228	7728.800000
578.804804	7797.400000
581.157771	7783.800000
583.508107	7793.500000
585.859859	7806.200000
588.204935	7754.900000
590.555475	7761.200000
592.899342	7729.500000
595.248669	7764.000000
597.593349	7745.100000
599.935404	7751.800000
602.278875	7683.300000
604.619724	7710.800000
606.959971	7672.300000
609.297597	7730.900000
611.638658	7685.500000
613.975082	7721.100000
616.312922	7623.900000
618.648144	7709.300000
620.980751	7611.900000
623.314775	7694.300000
625.646184	7764.700000
627.976995	7720.800000
630.307208	7706.400000
632.636823	7654.500000
634.961816	7730.700000
637.292250	7739.000000
639.618062	7680.700000
641.941268	7788.100000
644.265889	7804.500000
646.587906	7755.100000
648.909328	7770.900000
651.228147	7772.900000
653.548382	7721.100000
655.868024	7711.300000
658.185065	7745.900000
660.501515	7783.200000
662.815366	7750.500000
665.130632	7810.400000
667.443302	7800.000000
669.757387	7685.800000
672.066872	7771.400000
674.377773	7782.000000
676.686081	7717.400000
678.993801	7804.100000
681.302936	7793.500000
683.607478	7771.800000
685.911434	7711.900000
688.214803	7754.600000
690.519587	7760.800000
692.819785	7719.600000
695.121398	7787.700000
697.422425	7676.800000
699.718870	7753.000000
702.016731	7766.600000
704.314008	7734.800000
706.610702	7619.200000
708.902820	7624.000000
711.198349	7671.500000
713.489305	7724.400000
715.781675	7703.700000
718.071469	7710.400000
720.360684	7688.900000
722.649318	7699.800000
724.935381	7729.000000
727.222857	7796.800000
729.507763	7653.900000
731.792090	7690.500000
734.073849	7829.600000
736.357023	7641.800000
738.639618	7733.300000
740.917659	7781.800000
743.197113	7802.700000
745.475992	7779.900000
747.754295	7767.200000
750.028049	7798.200000
752.303217	7823.900000
754.577811	7790.000000
756.849846	7847.600000
759.123293	7790.000000
761.394183	7830.100000
763.662517	7828.600000
765.932264	7786.100000
768.199457	7836.700000
770.466079	7779.100000
772.732132	7844.500000
774.995632	7776.800000
777.260546	7790.500000
779.524890	7772.900000
781.784705	7761.900000
784.045933	7742.200000
786.306593	7797.900000
788.564706	7830.400000
790.820275	7827.200000
793.079235	7895.300000
795.331696	7790.600000
797.589524	7713.200000
799.842832	7788.700000
802.093601	7817.200000
804.345782	7723.800000
806.595425	7851.000000
808.846479	7817.300000
811.093022	7709.300000
813.340978	7770.400000
815.586398	7768.900000
817.833230	7734.200000
820.079501	7692.300000
822.321268	7748.200000
824.566417	7783.900000
826.805094	7729.200000
829.047154	7700.800000
831.284715	7755.300000
833.523687	7823.100000
835.760133	7729.800000
837.997991	7750.900000
840.233323	7659.400000
842.466131	7706.000000
844.700351	7829.000000
846.932049	7737.000000
849.163192	7760.200000
851.393780	7759.600000
853.623814	7806.000000
855.853293	7722.900000
858.078291	7825.300000
860.306664	7835.700000
862.530558	7804.800000
864.755862	7791.200000
866.976691	7840.900000
869.200892	7796.300000
871.420620	7747.300000
873.641759	7760.300000
875.862347	7764.100000
878.080425	7828.200000
880.299914	7839.800000
882.514936	7865.700000
884.729410	7827.000000
886.943337	7839.000000
889.156716	7766.900000
891.369549	7824.600000
893.581834	7739.900000
895.791618	7776.800000
898.000856	7723.000000
900.209548	7728.200000
902.415742	7751.200000
904.623345	7739.900000
906.828451	7740.300000
909.033013	7782.900000
911.235079	7834.900000
913.438555	7792.700000
915.639537	7752.000000
917.839978	7747.100000
920.041827	7771.900000
922.237284	7757.600000
924.436101	7799.200000
926.630480	7813.500000
928.828215	7838.100000
931.021515	7814.000000
933.216224	7811.200000
935.408447	7836.400000
937.600132	7858.600000
939.791279	7876.600000
941.979943	7902.300000
944.168070	7902.700000
946.353717	7840.200000
948.542716	7918.700000
950.727292	7956.200000
952.911333	7932.500000
955.098724	7919.700000
957.277812	8010.900000
959.460249	7903.400000
961.642153	7945.400000
963.821583	8012.500000
965.998540	8079.600000
968.176905	7999.800000
970.356676	8002.000000
972.530099	8091.700000
974.706868	8042.200000
976.879231	8052.900000
979.053000	8025.600000
981.222366	8036.500000
983.395077	8071.100000
985.565321	8079.800000
987.735037	8047.800000
989.904224	8025.900000
992.069014	8035.500000
994.237145	8031.800000
996.400882	7990.200000
998.566025	8055.900000
1000.728710	8101.700000
1002.890868	8046.400000
1005.050570	8106.300000
1007.209748	8003.700000
1009.370332	8067.500000
1011.528461	8020.800000
1013.686066	8009.800000
1015.843148	8007.600000
1017.999707	8046.100000
1020.151886	8043.100000
1022.305471	7986.200000
1024.458535	7978.900000
1026.609151	7980.100000
1028.761172	7990.900000
1030.908820	8013.200000
1033.059800	7965.800000
1035.206409	7947.500000
1037.352500	8028.600000
1039.498071	8007.700000
1041.645048	7994.000000
1043.785737	8013.100000
1045.929754	7936.200000
1048.071331	8008.900000
1050.212392	7944.600000
1052.354857	7974.200000
1054.491043	8025.800000
1056.630555	8024.100000
1058.765711	8028.300000
1060.904192	8104.300000
1063.038320	8065.900000
1065.171933	8121.100000
1067.306952	8007.500000
1069.437621	8200.200000
1071.569695	8146.400000
1073.699340	8086.400000
1075.828473	8170.100000
1077.957094	8172.700000
1080.085204	8185.900000
1082.210888	8187.000000
1084.336062	8281.200000
1086.462640	8335.100000
1088.584881	8271.700000
1090.708525	8303.100000
1092.827836	8296.300000
1094.952375	8277.500000
1097.070669	8320.100000
1099.190368	8330.800000
1101.307648	8378.700000
1103.424422	8407.900000
1105.540689	8351.700000
1107.654541	8359.700000
1109.769796	8344.400000
1111.880729	8351.000000
1113.994973	8389.000000
1116.104897	8426.700000
1118.216225	8373.700000
1120.327049	8391.700000
1122.433556	8378.900000
1124.543372	8492.700000
1126.648874	8423.100000
1128.755779	8502.500000
1130.856469	8433.300000
1132.962371	8489.000000
1135.063964	8552.500000
1137.166960	8511.100000
1139.269455	8472.800000
1141.365744	8427.200000
1143.467239	8483.800000
1145.564432	8504.500000
1147.661126	8459.200000
1149.757323	8501.200000
1151.853021	8507.100000
1153.948222	8598.800000
1156.041026	8476.700000
1158.135232	8533.900000
1160.223247	8589.500000
1162.316460	8589.100000
1164.403485	8549.300000
1166.493810	8621.100000
1168.579846	8630.800000
1170.669180	8598.200000
1172.752333	8656.200000
1174.836889	8686.000000
1176.922845	8650.000000
1179.004520	8650.100000
1181.087597	8687.600000
1183.168288	8680.600000
1185.248487	8698.400000
1187.328195	8776.100000
1189.407412	8756.700000
1191.484247	8744.500000
1193.558701	8812.000000
1195.636447	8797.000000
1197.709922	8818.600000
1199.784798	8852.800000
1201.855407	8850.100000
1203.927418	8890.600000
1205.997052	8928.900000
1208.068087	8816.400000
1210.138634	9042.800000
1212.204920	8929.600000
1214.272607	9000.500000
1216.337922	9021.300000
1218.404637	8982.300000
1220.467096	9050.400000
1222.532840	9147.600000
1224.594331	9113.700000
1226.657221	9122.600000
1228.717744	9149.800000
1230.777784	9118.300000
1232.837340	9200.900000
1234.894531	9272.500000
1236.951241	9360.500000
1239.005588	9290.100000
1241.063215	9326.900000
1243.118480	9450.700000
1245.169504	9414.800000
1247.221928	9409.500000
1249.273873	9526.400000
1251.323458	9522.500000
1253.372565	9564.700000
1255.421194	9583.400000
1257.469344	9631.500000
1259.517016	9658.300000
1261.560457	9704.900000
1263.607173	9707.700000
1265.651537	9824.300000
1267.695423	9848.300000
1269.736959	9927.800000
1271.776145	9936.000000
1273.818603	10026.400000
1275.856839	10098.200000
1277.896474	10198.900000
1279.935634	10224.500000
1281.970576	10371.000000
1284.006916	10393.000000
1286.040911	10617.200000
1288.076305	10686.800000
1290.107485	10868.700000
1292.140064	11099.800000
1294.172170	11340.100000
1296.201936	11559.300000
1298.233100	11924.600000
1300.260056	12347.600000
1302.288410	12730.200000
1304.312560	13450.800000
1306.339974	14301.300000
1308.363187	15237.800000
1310.387796	16552.400000
1312.410072	18191.200000
1314.433745	20752.300000
1316.455085	24264.500000
1318.475957	30367.700000
1320.496363	40035.200000
1322.512574	56806.500000
1324.530184	64559.000000
1326.545465	64558.400000
1328.564005	64559.000000
1330.578355	64558.400000
1332.590380	64559.000000
1334.605662	64558.400000
1336.616759	64559.000000
1338.629253	64558.400000
1340.637564	64514.400000
1342.649131	38599.000000
1344.654658	27604.300000
1346.663441	21618.900000
1348.668046	18314.800000
1350.675905	16248.500000
1352.683302	14865.400000
1354.684668	13598.400000
1356.687431	12746.700000
1358.689733	12276.300000
1360.691576	11728.900000
1362.692960	11333.500000
1364.692029	11139.300000
1366.690640	10866.800000
1368.688793	10732.800000
1370.686488	10543.600000
1372.680019	10367.600000
1374.674947	10336.200000
1376.669418	10214.200000
1378.663432	10097.600000
1380.655139	10085.300000
1382.646390	9954.700000
1384.635336	9885.900000
1386.625677	9754.400000
1388.615563	9708.400000
1390.603146	9774.300000
1392.590275	9765.000000
1394.575102	9799.400000
1396.561323	9724.300000
1398.545245	9767.800000
1400.528714	9777.200000
1402.511731	9825.300000
1404.492450	9776.700000
1406.474563	9823.800000
1408.454379	9785.000000
1410.433745	9750.100000
1412.408971	9761.700000
1414.387437	9817.900000
1416.363609	9822.400000
1418.339331	9856.800000
1420.314604	9854.800000
1422.287586	9876.800000
1424.260120	9968.300000
1426.232207	9981.900000
1428.203845	9950.900000
1430.171355	9996.900000
1432.143940	9983.700000
1434.108718	9932.200000
1436.078569	10017.000000
1438.044295	9981.400000
1440.011415	10043.400000
1441.976250	10010.000000
1443.936967	10116.400000
1445.902751	10069.400000
1447.862580	10054.500000
1449.823802	10037.600000
1451.786417	10045.300000
1453.744917	10000.400000
1455.702975	10077.700000
1457.660590	10080.900000
1459.617764	9988.900000
1461.572662	9984.700000
1463.528952	10062.700000
1465.482968	9961.800000
1467.436544	9975.300000
1469.387847	9938.500000
1471.340542	9958.900000
1473.290966	9880.800000
1475.240951	9922.200000
1477.190496	9975.500000
1479.137773	9880.100000
1481.082783	9851.700000
1483.029184	9812.400000
1484.975149	9920.600000
1486.920675	9926.600000
1488.863937	9865.000000
1490.806762	9913.700000
1492.747324	9845.600000
1494.689277	9936.500000
1496.628969	9890.900000
1498.568225	10036.300000
1500.507047	10133.000000
1502.443608	10051.700000
1504.381561	10050.800000
1506.317256	10094.400000
1508.252517	9979.700000
1510.185521	9912.000000
1512.118093	10025.800000
1514.050233	10045.900000
1515.981941	10029.500000
1517.911395	10003.100000
1519.842240	10061.200000
1521.772654	10090.900000
1523.698995	10064.100000
1525.626726	10177.100000
1527.552207	10128.300000
1529.477259	10146.100000
1531.401882	10286.600000
1533.326076	10166.300000
1535.248023	10189.200000
1537.171359	10133.900000
1539.092450	10222.200000
1541.011296	10216.100000
1542.931532	10288.100000
1544.849524	10199.800000
1546.767090	10231.100000
1548.682414	10294.000000
1550.599128	10310.400000
1552.511787	10234.800000
1554.427650	10220.600000
1556.341273	10229.200000
1558.252659	10203.300000
1560.165433	10136.300000
1562.074158	10268.900000
1563.984273	10173.400000
1565.893964	10143.400000
1567.803231	10191.300000
1569.710265	10127.600000
1571.615066	10124.600000
1573.521256	10216.300000
1575.425214	10217.400000
1577.328752	10176.900000
1579.231868	10118.900000
1581.132756	10261.700000
1583.035031	10069.300000
1584.935079	10202.600000
1586.836515	10158.200000
1588.733916	10108.800000
1590.630899	10186.100000
1592.527464	10034.400000
1594.425417	10194.300000
1596.317535	10158.200000
1598.212846	10165.200000
1600.107740	10244.300000
1602.000412	10176.300000
1603.892668	10139.900000
1605.782704	10126.100000
1607.672324	10171.900000
1609.561529	10100.800000
1611.450318	10262.200000
1613.336891	10124.600000
1615.224850	10280.200000
1617.108793	10243.000000
1618.994124	10332.900000
1620.879040	10338.000000
1622.761744	10223.100000
1624.645833	10289.400000
1626.525912	10259.700000
1628.407377	10352.100000
1630.286632	10267.100000
1632.167273	10287.500000
1634.042110	10273.800000
1635.921929	10331.500000
1637.797742	10313.500000
1639.673145	10295.600000
1641.549935	10408.000000
1643.420927	10368.500000
1645.295101	10313.900000
1647.165277	10379.000000
1649.038633	10340.000000
1650.909786	10385.500000
1652.778737	10445.700000
1654.649074	10439.300000
1656.515417	10420.200000
1658.383146	10478.400000
1660.248677	10343.100000
1662.115592	10424.000000
1663.978519	10422.300000
1665.842831	10372.100000
1667.704947	10427.700000
1669.566659	10382.000000
1671.429755	10393.700000
1673.290657	10507.200000
1675.149365	10486.500000
1677.007670	10361.800000
1678.867360	10491.200000
1680.721283	10376.200000
1682.578378	10501.500000
1684.435071	10547.200000
1686.287788	10540.100000
1688.143676	10573.200000
1689.995589	10540.700000
1691.847102	10581.800000
1693.698215	10498.700000
1695.548926	10536.900000
1697.399237	10600.100000
1699.247364	10528.900000
1701.096874	10493.200000
1702.940636	10433.400000
1704.789348	10546.100000
1706.632313	10617.000000
1708.478444	10544.100000
1710.320614	10506.900000
1712.165948	10661.200000
1714.005542	10600.700000
1715.846520	10660.500000
1717.688881	10630.300000
1719.527286	10621.200000
1721.367074	10606.100000
1723.204687	10656.100000
1725.041904	10570.600000
1726.876948	10685.100000
1728.713375	10671.700000
1730.547630	10695.300000
1732.381490	10713.100000
1734.214957	10675.300000
1736.044477	10715.400000
1737.877156	10722.900000
1739.705891	10821.600000
1741.537784	10807.900000
1743.365734	10835.700000
1745.193292	10742.600000
1747.020458	10727.200000
1748.847233	10926.300000
1750.673617	10838.600000
1752.496064	10892.400000
1754.321665	10809.000000
1756.143332	10976.200000
1757.966381	10860.700000
1759.787269	10872.700000
1761.607767	10926.800000
1763.429647	10957.800000
1765.245827	10949.200000
1767.065159	10935.200000
1768.880564	10926.600000
1770.699119	11009.500000
1772.513749	11104.600000
1774.327993	11077.000000
1776.141849	10998.100000
1777.955319	11134.400000
1779.766636	11115.900000
1781.579334	11108.900000
1783.391645	11181.000000
1785.200039	11182.400000
1787.009814	11125.100000
1788.815673	11173.200000
1790.624679	11193.400000
1792.429771	11270.000000
1794.236243	11214.500000
1796.042332	11231.400000
1797.844511	11242.100000
1799.649833	11300.700000
1801.451247	11280.600000
1803.254041	11352.500000
1805.052929	11408.700000
1806.853198	11404.800000
1808.653085	11345.000000
1810.450831	11419.500000
1812.248196	11428.400000
1814.045180	11411.800000
1815.841784	11442.000000
1817.636249	11465.000000
1819.432093	11437.100000
1821.222283	11489.800000
1823.017369	11548.800000
1824.806802	11508.500000
1826.599372	11634.000000
1828.389807	11569.400000
1830.178108	11574.600000
1831.969544	11630.300000
1833.755334	11608.900000
1835.542504	11704.600000
1837.327542	11696.500000
1839.115714	11760.600000
1840.900000	11754.200000
1842.682157	11735.400000
1844.465692	11776.600000
1846.247099	11763.400000
1848.029885	11791.100000
1849.808791	11909.400000
1851.589075	11808.800000
1853.367233	11864.600000
1855.146770	11826.300000
1856.924182	11956.000000
1858.699470	11959.300000
1860.476137	12035.800000
1862.250681	11988.000000
1864.026602	12053.800000
1865.796904	12036.400000
1867.570332	12093.200000
1869.341641	12198.100000
1871.112580	12145.100000
1872.884895	12133.500000
1874.651598	12266.400000
1876.421425	12270.800000
1878.187389	12326.300000
1879.956477	12379.000000
1881.721703	12348.500000
1883.486561	12345.600000
1885.252795	12428.400000
1887.015171	12449.700000
1888.777180	12300.600000
1890.538822	12434.000000
1892.300096	12412.100000
1894.061003	12510.500000
1895.821544	12448.200000
1897.579975	12512.100000
1899.338041	12399.300000
1901.093998	12477.000000
1902.851333	12472.900000
1904.608301	12498.200000
1906.363164	12520.200000
1908.115921	12525.100000
1909.868315	12705.300000
1911.622084	12559.100000
1913.373750	12639.900000
1915.123314	12648.900000
1916.874254	12616.400000
1918.624830	12680.600000
1920.371568	12789.700000
1922.119681	12858.700000
1923.865695	12818.800000
1925.613085	12896.600000
1927.358376	12857.400000
1929.101570	12869.600000
1930.846140	12955.600000
1932.588613	12936.500000
1934.330726	12969.800000
1936.072479	13031.800000
1937.813873	13068.000000
1939.553173	13134.600000
1941.292114	13215.000000
1943.030696	13233.900000
1944.767186	13236.200000
1946.503319	13315.250000
1948.240826	13394.300000
1949.974512	13419.500000
1951.709571	13337.000000
1953.442543	13322.200000
1955.175158	13368.100000
1956.907416	13425.900000
1958.639318	13632.400000
1960.369134	13623.300000
1962.096866	13627.400000
1963.825971	13684.100000
1965.554722	13594.300000
1967.281389	13719.000000
1969.007702	13807.600000
1970.735388	13846.300000
1972.457538	13802.000000
1974.182789	13757.000000
1975.904234	13892.700000
1977.628778	13968.800000
1979.351243	13991.400000
1981.069904	14070.700000
1982.791664	14203.200000
1984.509622	14055.200000
1986.228954	14164.200000
1987.944485	14328.500000
1989.664838	14305.200000
1991.381391	14262.500000
1993.094149	14398.800000
1994.810002	14384.700000
1996.523782	14405.400000
1998.237213	14498.400000
1999.948573	14490.900000
2001.661306	14601.300000
2003.370247	14534.600000
2005.082282	14729.800000
2006.788807	14696.300000
2008.498425	14790.000000
2010.205975	14856.000000
2011.913178	14869.800000
2013.618315	14862.400000
2015.323105	14904.000000
2017.029267	14920.600000
2018.731647	15057.000000
2020.435399	15011.600000
2022.137087	15001.400000
2023.838431	15076.900000
2025.539429	15050.900000
2027.238367	15091.600000
2028.938675	15133.500000
2030.635209	15165.300000
2032.333114	15190.100000
2034.028961	15243.900000
2035.727892	15321.400000
2037.421338	15369.600000
2039.116156	15406.500000
2040.810630	15396.800000
2042.501336	15521.100000
2044.195126	15555.800000
2045.885149	15529.200000
2047.576543	15466.000000
2049.265884	15620.100000
2050.956595	15451.200000
2052.643544	15506.200000
2054.330152	15526.600000
2056.018131	15653.400000
2057.702350	15593.000000
2059.387939	15557.200000
2061.073189	15608.100000
2062.756391	15585.700000
2064.440962	15713.800000
2066.120071	15614.400000
2067.803965	15601.200000
2069.482399	15595.300000
2071.163909	15681.800000
2072.841669	15789.700000
2074.519091	15804.900000
2076.197884	15779.800000
2077.874633	15891.800000
2079.549341	15828.500000
2081.225418	15936.100000
2082.899455	15989.400000
2084.573156	15870.300000
2086.246522	16001.500000
2087.917850	15962.600000
2089.588843	16040.200000
2091.259502	16087.700000
2092.929826	16014.000000
2094.599817	16226.000000
2096.267772	16167.600000
2097.935394	16162.900000
2099.600982	16105.700000
2101.267938	16397.200000
2102.932861	16283.300000
2104.597451	16501.300000
2106.260010	16481.500000
2107.923937	16689.600000
2109.585834	16581.300000
2111.247399	16694.200000
2112.908634	16747.800000
2114.567839	16860.900000
2116.226715	17011.600000
2117.885260	17050.500000
2119.543476	16947.200000
2121.197968	16936.400000
2122.855525	17072.800000
2124.512753	17083.800000
2126.166259	17101.900000
2127.821133	16973.200000
2129.472289	17234.000000
2131.126506	17250.800000
2132.777007	17211.500000
2134.428874	17258.300000
2136.075333	17190.500000
2137.726547	17308.200000
2139.374047	17345.400000
2141.022914	17440.800000
2142.669763	17585.700000
2144.316285	17572.900000
2145.962482	17746.600000
2147.604971	17593.900000
2149.250518	17712.600000
2150.892358	17704.000000
2152.537255	17793.000000
2154.178447	17747.100000
2155.819315	17759.700000
2157.459860	17819.000000
2159.098392	17848.100000
2160.738290	17824.600000
2162.374488	17884.700000
2164.012052	17945.200000
2165.649293	18038.600000
2167.284525	17969.300000
2168.919436	18077.900000
2170.554025	18113.100000
2172.188292	18226.700000
2173.818867	18207.300000
2175.452492	18258.900000
2177.082426	18362.500000
2178.713725	18318.900000
2180.343020	18427.100000
2181.971994	18564.800000
2183.600650	18408.200000
2185.228986	18581.500000
2186.855319	18432.800000
2188.481334	18427.900000
2190.105348	18570.900000
2191.730726	18598.700000
2193.354105	18592.600000
2194.978847	18602.600000
2196.599909	18668.700000
2198.220654	18669.300000
2199.842764	18679.300000
2201.462876	18723.600000
2203.080991	18638.000000
2204.698791	18688.300000
2206.316276	18689.900000
2207.933445	18873.600000
2209.550299	18864.000000
2211.166838	18849.200000
2212.781383	18991.600000
2214.393936	19077.400000
2216.007853	19159.400000
2217.619779	19069.500000
2219.233068	19082.700000
2220.844367	19242.800000
2222.453676	19230.400000
2224.064349	19378.500000
2225.673033	19468.000000
2227.281405	19454.300000
2228.887789	19439.500000
2230.495537	19664.500000
2232.101298	19714.200000
2233.706748	19798.500000
2235.310214	19826.500000
2236.915042	19787.300000
2238.517886	19992.100000
2240.118747	20008.400000
2241.720971	20019.100000
2243.321212	20159.800000
2244.922816	20188.900000
2246.520768	20206.100000
2248.120082	20344.200000
2249.717416	20513.000000
2251.314442	20475.600000
2252.912829	20582.700000
2254.507568	20636.300000
2256.100331	20683.400000
2257.694455	20628.100000
2259.289941	20747.400000
2260.881783	20693.800000
2262.473318	20782.700000
2264.066214	20691.000000
2265.653801	20792.700000
2267.246085	20798.500000
2268.833061	21014.800000
2270.423066	21057.800000
2272.007766	20850.900000
2273.597160	20961.800000
2275.181251	20948.300000
2276.766704	20925.200000
2278.350187	20985.900000
2279.936697	20872.900000
2281.519573	20928.000000
2283.102145	20906.800000
2284.684414	21009.300000
2286.263054	21229.700000
2287.844717	20986.700000
2289.422752	21205.500000
2291.003810	21164.200000
2292.581242	21136.750000
2294.156710	21109.300000
2295.735199	21073.800000
2297.310065	21327.000000
2298.884630	21229.600000
2300.458895	21262.700000
2302.032859	21382.400000
2303.606523	21246.200000
2305.179886	21370.700000
2306.749631	21197.200000
2308.319077	21347.200000
2309.891542	21434.700000
2311.458731	21475.100000
2313.028939	21659.700000
2314.595532	21753.800000
2316.163485	21681.000000
2317.729483	21811.700000
2319.295182	21801.800000
2320.860585	22017.500000
2322.424034	21948.700000
2323.988841	22126.400000
2325.550041	22262.300000
2327.114255	22171.300000
2328.673208	22300.000000
2330.235174	22429.200000
2331.795190	22404.800000
2333.354910	22419.900000
2334.912681	22600.500000
2336.470158	22612.000000
2338.027339	22760.400000
2339.582574	22862.200000
2341.137514	22851.600000
2342.692161	22846.200000
2344.246514	22933.400000
2345.800573	22977.900000
2347.354338	23001.300000
2348.906160	22992.100000
2350.456038	23045.100000
2352.008924	23216.400000
2353.556568	23190.800000
2355.107219	23210.100000
2356.654280	23345.600000
2358.202698	23265.800000
2359.750824	23405.600000
2361.295363	23444.400000
2362.841259	23341.600000
2364.385216	23595.900000
2365.930531	23573.300000
2367.472261	23670.100000
2369.015348	23744.900000
2370.556500	23833.400000
2372.097362	23782.300000
2373.637935	23990.100000
2375.178219	23987.400000
2376.718214	23989.000000
2378.254630	24080.800000
2379.794048	24081.300000
2381.329889	24150.300000
2382.867086	24149.100000
2384.400709	24333.600000
2385.937331	24388.900000
2387.472022	24517.500000
2389.004784	24450.400000
2390.537260	24470.600000
2392.067807	24569.200000
2393.601352	24764.900000
2395.129686	24868.600000
2396.659376	24874.000000
2398.188781	24982.500000
2399.717900	24897.700000
2401.246735	25156.300000
2402.770365	25193.600000
2404.298630	25352.500000
2405.821692	25368.400000
2407.349388	25637.200000
2408.870245	25589.400000
2410.395735	25703.700000
2411.917664	25766.500000
2413.440949	25807.300000
2414.962313	25987.300000
2416.481757	26005.900000
2418.002556	26056.500000
2419.521436	26110.600000
2421.040034	26177.600000
2422.556715	26161.600000
2424.074750	26361.100000
2425.592504	26425.900000
2427.106707	26662.500000
2428.620629	26645.800000
2430.134272	26769.400000
2431.649268	26745.800000
2433.160716	26758.100000
2434.673519	27042.900000
2436.184409	27149.100000
2437.695019	27118.200000
2439.203718	27348.700000
2440.715404	27383.000000
2442.223546	27477.700000
2443.731409	27540.500000
2445.238995	27538.900000
2446.743040	27883.100000
2448.250071	27816.800000
2449.755193	28056.000000
2451.260038	28364.000000
2452.762976	28301.100000
2454.265637	28464.900000
2455.768022	28632.700000
2457.268502	28796.500000
2458.770335	28708.900000
2460.270264	28844.900000
2461.769917	28855.500000
2463.269295	28838.900000
2464.766769	29053.500000
2466.262343	29033.100000
2467.760896	29195.100000
2469.255920	29128.700000
2470.752298	29298.700000
2472.245149	29205.000000
2473.739352	29296.300000
2475.233282	29274.700000
2476.723689	29332.600000
2478.217072	29555.900000
2479.708558	29340.200000
2481.198147	29543.900000
2482.687464	29427.300000
2484.174886	29425.700000
2485.665283	29526.900000
2487.152161	29642.700000
2488.640391	29561.900000
2490.125105	29564.200000
2491.609548	29475.800000
2493.095343	29595.800000
2494.579245	29656.000000
2496.064499	29574.600000
2497.544619	29437.200000
2499.027711	29516.200000
2500.508913	29469.600000
2501.989846	29481.600000
2503.468890	29409.400000
2504.947666	29378.700000
2506.426172	29214.000000
2507.904411	29407.600000
2509.382381	29263.000000
2510.856847	29162.000000
2512.334281	28920.100000
2513.808212	29164.900000
2515.283494	29151.600000
2516.758508	28941.500000
2518.230021	29026.600000
2519.702885	28962.600000
2521.173865	28875.000000
2522.646196	28896.500000
2524.113414	28994.500000
2525.583597	28775.300000
2527.051900	28959.000000
2528.519938	29006.600000
2529.987711	28899.600000
2531.455219	28782.400000
2532.922462	29066.800000
2534.386213	29105.200000
2535.851315	29197.200000
2537.314538	29099.700000
2538.779112	29297.600000
2540.240196	29238.000000
2541.702630	29312.500000
2543.164801	29458.600000
2544.623486	29524.300000
2546.086743	29500.100000
2547.544903	29820.400000
2549.004412	29694.400000
2550.458828	29570.900000
2551.917813	29771.200000
2553.374927	29781.700000
2554.830170	29873.300000
2556.285152	29823.700000
2557.738264	29832.500000
2559.192725	29914.700000
2560.645317	29929.700000
2562.097649	29917.500000
2563.548113	30030.200000
2565.001533	30213.200000
2566.449871	30089.200000
2567.901165	30243.400000
2569.350592	30268.500000
2570.796548	30407.600000
2572.245458	30495.000000
2573.690897	30552.200000
2575.137685	30775.800000
2576.582609	30558.500000
2578.027276	30920.200000
2579.473290	30809.400000
2580.915837	30875.900000
2582.359732	30812.400000
2583.800162	30893.200000
2585.241940	30771.500000
2586.681857	30884.400000
2588.123122	30854.100000
2589.560926	31206.200000
2591.001679	31218.400000
2592.437369	31168.400000
2593.876009	31407.200000
2595.312792	31408.300000
2596.747718	31588.100000
2598.185593	31416.500000
2599.618410	31623.200000
2601.052573	31527.900000
2602.484883	31802.400000
2603.918539	31862.200000
2605.350342	31645.700000
2606.781892	31815.200000
2608.213188	31895.500000
2609.642633	32167.400000
2611.071825	31911.000000
2612.499166	32099.400000
2613.927854	31965.600000
2615.356289	32196.000000
2616.781277	32310.400000
2618.207612	32247.000000
2619.632098	32161.100000
2621.057930	32239.100000
2622.480318	32449.800000
2623.904052	32442.300000
2625.325940	32420.000000
2626.747577	32556.300000
2628.167369	32390.300000
2629.588507	32552.900000
2631.009395	32627.700000
2632.426845	32738.400000
2633.847234	32923.500000
2635.264186	32816.200000
2636.680890	32821.000000
2638.097345	32717.600000
2639.513552	33154.700000
2640.929510	32713.300000
2642.343628	33036.600000
2643.757499	33205.500000
2645.169530	33081.400000
2646.582906	32988.400000
2647.992852	33095.800000
2649.405733	33130.800000
2650.815187	33246.900000
2652.224394	33454.300000
2653.631765	33446.000000
2655.042070	33403.000000
2656.450539	33494.500000
2657.857173	33615.300000
2659.263562	33646.000000
2660.668117	33932.900000
2662.074016	34040.400000
2663.478082	34042.300000
2664.881904	34278.200000
2666.285481	34073.700000
2667.687226	34500.000000
2669.090315	34534.300000
2670.489987	34182.700000
2671.891001	34172.300000
2673.288600	34046.400000
2674.689129	33914.600000
2676.086243	33869.100000
2677.484700	33774.400000
2678.881329	33920.500000
2680.277716	33802.600000
2681.673862	33840.100000
2683.068181	33677.700000
2684.463843	33659.800000
2685.856095	33879.900000
2687.249691	33618.600000
2688.641462	33940.900000
2690.034575	33792.400000
2691.425865	33716.000000
2692.815332	33925.700000
2694.204560	33731.500000
2695.593547	33778.500000
2696.983877	33995.700000
2698.369222	34097.700000
2699.757491	33798.700000
2701.143940	33965.000000
2702.530150	34026.500000
2703.916122	34067.700000
2705.298695	34191.100000
2706.682609	34199.600000
2708.066286	34086.600000
2709.449725	34486.300000
2710.829768	34302.100000
2712.211153	34554.500000
2713.590722	34620.600000
2714.971633	34585.600000
2716.350729	34977.800000
2717.728010	34629.500000
2719.106633	34886.500000
2720.483443	34902.300000
2721.860017	34971.400000
2723.236355	35290.400000
2724.610881	35227.500000
2725.986748	35414.700000
2727.359228	35393.000000
2728.734625	35542.400000
2730.105060	35512.000000
2731.476837	35628.900000
2732.848380	35665.400000
2734.218114	35870.400000
2735.589188	35857.500000
2736.958455	35975.700000
2738.327488	35976.900000
2739.694714	36250.200000
2741.061708	36114.700000
2742.428469	36072.700000
2743.794997	36199.300000
2745.159720	36324.900000
2746.524212	36524.900000
2747.888471	36463.900000
2749.252499	36834.100000
2750.616294	36648.900000
2751.976716	37001.700000
2753.340049	36753.300000
2754.698439	37017.600000
2756.059739	36848.100000
2757.417668	37068.200000
2758.778507	36846.300000
2760.137545	36750.300000
2761.493215	37211.700000
2762.851793	36973.600000
2764.207005	37076.600000
2765.561987	36928.600000
2766.915172	37137.300000
2768.271264	37443.100000
2769.623992	37363.300000
2770.976491	37547.800000
2772.328762	37624.600000
2773.682372	37656.700000
2775.032620	37684.400000
2776.381075	37919.400000
2777.732434	37770.600000
2779.080434	37860.400000
2780.429773	38036.400000
2781.777319	38340.400000
2783.124638	38265.400000
2784.471731	38244.900000
2785.817033	37879.800000
2787.162109	38174.100000
2788.506959	38296.500000
2789.851582	38253.000000
2791.192854	38328.500000
2792.535464	38510.300000
2793.877848	38642.900000
2795.220008	38882.100000
2796.558818	38795.300000
2797.900527	38966.300000
2799.238889	39152.500000
2800.578588	39211.100000
2801.916501	39221.900000
2803.252630	39383.200000
2804.588536	39531.400000
2805.925778	39404.600000
2807.261237	39789.900000
2808.596473	40006.200000
2809.929927	39949.600000
2811.264717	40186.200000
2812.596166	40244.200000
2813.930511	40328.100000
2815.259958	40018.400000
2816.590742	40727.100000
2817.921304	40305.200000
2819.250087	40390.800000
2820.580207	40562.400000
2821.908547	40758.800000
2823.236667	40798.900000
2824.563010	40678.000000
2825.890688	40689.600000
2827.215034	40784.600000
2828.540715	40670.400000
2829.864621	40744.200000
2831.188308	40910.400000
2832.513330	40800.500000
2833.835023	40897.700000
2835.156496	40823.500000
2836.477751	40974.900000
2837.798787	41012.000000
2839.118051	40962.000000
2840.438650	41104.700000
2841.757477	40977.800000
2843.076086	41087.900000
2844.392925	40865.600000
2845.709546	41042.300000
2847.025949	41045.700000
2848.340584	40941.800000
2849.656553	41169.900000
2850.969202	41370.400000
2852.283187	41166.300000
2853.596955	41394.200000
2854.910506	41429.800000
2856.222290	41392.100000
2857.532309	41588.000000
2858.843661	41658.000000
2860.151699	41757.400000
2861.461072	41916.300000
2862.770229	41961.900000
2864.079171	41827.900000
2865.386350	42321.600000
2866.691765	42253.700000
2867.998515	42442.100000
2869.303502	42382.000000
2870.608276	42443.200000
2871.911288	42670.500000
2873.217182	42507.100000
2874.518220	42713.300000
2875.820593	42599.200000
2877.121206	43038.200000
2878.423153	43067.600000
2879.724887	42738.100000
2881.023317	43045.900000
2882.323080	42780.100000
2883.621085	42837.600000
2884.918879	42953.400000
2886.214917	42838.200000
2887.512288	42977.200000
2888.807903	42586.300000
2890.103307	43133.100000
2891.398501	43088.100000
2892.690396	42927.700000
2893.985168	42985.300000
2895.276643	42996.200000
2896.569452	42998.600000
2897.862049	43098.000000
2899.151353	43298.100000
2900.441989	42915.600000
2901.730874	43255.900000
2903.021092	43112.100000
2904.308018	43343.700000
2905.596276	43616.900000
2906.882784	43414.900000
2908.169085	43481.500000
2909.455177	43568.500000
2910.739521	43346.500000
2912.026737	43497.900000
2913.309126	43726.500000
2914.592846	43598.700000
2915.874821	43540.400000
2917.156589	43706.700000
2918.436611	43839.500000
2919.719503	43698.900000
2921.000650	43557.400000
2922.278515	43893.200000
2923.559249	43924.500000
2924.836702	43718.300000
2926.113950	43787.300000
2927.389455	43789.900000
2928.667828	44086.400000
2929.941386	43538.100000
2931.217812	43921.000000
2932.492497	43724.100000
2933.765442	43761.600000
2935.039717	43917.800000
2936.312253	44150.200000
2937.584585	44018.600000
2938.853644	43882.600000
2940.125567	44059.200000
2941.395753	44074.200000
2942.665736	44000.600000
2943.935515	44043.700000
2945.203557	43930.400000
2946.469864	44011.600000
2947.735968	44168.900000
2949.003402	44368.700000
2950.269102	44492.900000
2951.534599	44427.200000
2952.799894	44501.700000
2954.061924	44394.100000
2955.325285	44636.000000
2956.588444	44375.700000
2957.849870	44735.000000
2959.112626	44368.900000
2960.373651	44675.500000
2961.632945	44634.700000
2962.892038	44717.200000
2964.150931	44772.700000
2965.409624	44994.200000
2966.668117	44734.600000
2967.924881	44796.000000
2969.181445	45033.600000
2970.436282	44883.400000
2971.692448	45219.300000
2972.945358	45404.600000
2974.199598	45244.800000
2975.453639	45430.800000
2976.705954	45253.700000
2977.958071	45394.900000
2979.208463	45444.700000
2980.461710	45738.600000
2981.710180	45513.800000
2982.961504	46126.000000
2984.209580	46065.800000
2985.457458	46188.500000
2986.705139	45847.300000
2987.952624	46148.200000
2989.198387	46201.700000
2990.443953	46137.700000
2991.690848	46445.800000
2992.934497	46386.100000
2994.179475	46539.000000
2995.421210	46636.500000
2996.665796	46704.200000
2997.908662	46844.600000
2999.148288	46969.300000
3000.390765	47076.200000
3001.630001	46885.800000
3002.870565	47361.300000
3004.109412	47508.100000
3005.348065	47155.700000
3006.585002	47317.900000
3007.823266	47299.100000
3009.059816	47850.500000
3010.296171	47586.700000
3011.532333	47824.000000
3012.766782	47949.500000
3014.001037	47902.500000
3015.235099	48198.400000
3016.467449	48017.600000
3017.698087	48169.400000
3018.931571	48227.400000
3020.163343	48363.200000
3021.393405	48457.700000
3022.623275	48540.500000
3023.851435	48285.300000
3025.080921	48635.800000
3026.308699	48653.000000
3027.536285	48884.800000
3028.765197	48768.400000
3029.989367	48823.000000
3031.216380	48856.100000
3032.440170	48930.700000
3033.665285	49066.200000
3034.888694	49055.200000
3036.111914	49068.000000
3037.333428	49071.200000
3038.557783	49129.100000
3039.777403	49244.800000
3040.998348	49595.000000
3042.219105	49410.600000
3043.438158	49481.100000
3044.658537	49692.300000
3045.875699	49513.000000
3047.094186	49659.000000
3048.310972	49956.500000
3049.527569	49996.900000
3050.743979	49840.700000
3051.957175	49971.500000
3053.173209	50324.500000
3054.386031	49944.300000
3055.601690	50122.600000
3056.812626	50324.400000
3058.024887	50246.900000
3059.236962	50517.900000
3060.448850	50328.600000
3061.659040	50537.500000
3062.869045	50555.300000
3064.078863	50502.800000
3065.286985	50762.100000
3066.494921	50403.400000
3067.701163	50842.800000
3068.908728	50910.700000
3070.114600	50972.400000
3071.320286	51034.100000
3072.525787	51201.800000
3073.729596	51180.500000
3074.934728	51171.600000
3076.138167	51748.900000
3077.339914	51456.100000
3078.541478	51385.600000
3079.742858	51594.400000
3080.944054	51692.600000
3082.143560	51672.100000
3083.342882	51767.700000
3084.543528	51741.200000
3085.742485	51989.500000
3086.938246	51923.800000
3088.136837	52153.200000
3089.332234	52013.800000
3090.528954	52058.400000
3091.722482	51981.400000
3092.918839	52196.100000
3094.113508	52206.600000
3095.304987	52192.800000
3096.500797	52355.900000
3097.691914	52400.900000
3098.884353	52696.300000
3100.073605	52395.800000
3101.265683	52517.900000
3102.456076	52407.500000
3103.643284	52978.000000
3104.831815	52765.800000
3106.021668	52960.100000
3107.208336	52781.900000
3108.394825	52873.300000
3109.581134	52850.900000
3110.768765	52807.000000
3111.953215	52780.000000
3113.135984	52695.700000
3114.321577	52793.400000
3115.505489	52698.100000
3116.687723	53147.400000
3117.869779	52828.000000
3119.051656	53134.500000
3120.233355	53312.800000
3121.413376	52969.600000
3122.591721	53110.600000
3123.772887	53323.500000
3124.950877	53128.500000
3126.128690	53120.700000
3127.306326	53088.000000
3128.482287	53333.800000
3129.658072	53251.800000
3130.835177	53232.900000
3132.010608	53364.800000
3133.184366	53321.100000
3134.356452	53436.300000
3135.529858	53511.200000
3136.703089	53776.500000
3137.874647	53465.300000
3139.047527	53950.000000
3140.217239	53846.600000
3141.388272	53947.900000
3142.557634	54299.900000
3143.725327	54171.200000
3144.895835	54178.800000
3146.061684	54158.400000
3147.231843	53833.800000
3148.397344	53988.700000
3149.562672	54205.700000
3150.727826	54104.700000
3151.892806	54325.300000
3153.059107	54219.100000
3154.220754	54053.300000
3155.383722	53794.300000
3156.546516	53758.100000
3157.709138	53582.000000
3158.870095	53108.100000
3160.030879	53372.200000
3161.191491	53373.600000
3162.350440	53135.200000
3163.509216	53193.000000
3164.667821	53442.000000
3165.826254	52924.500000
3166.984515	53541.000000
3168.141114	53423.700000
3169.296052	53397.200000
3170.452309	53248.500000
3171.606906	53316.300000
3172.761331	53620.000000
3173.914097	53540.300000
3175.066693	53468.500000
3176.219118	53556.900000
3177.371374	53867.000000
3178.523460	53725.600000
3179.672399	53537.600000
3180.824145	54038.600000
3181.974234	53910.800000
3183.122665	54210.900000
3184.270928	54194.200000
3185.419021	54384.700000
3186.566946	54529.800000
3187.713216	54722.300000
3188.859317	54925.400000
3190.003763	55138.000000
3191.148042	55018.700000
3192.292153	55128.400000
3193.437582	54819.900000
3194.579872	55047.700000
3195.721994	54887.700000
3196.863950	55283.200000
3198.005738	54979.200000
3199.147359	55076.800000
3200.285844	55123.800000
3201.425647	54994.300000
3202.566768	55089.700000
3203.704754	55149.500000
3204.841091	55376.700000
3205.977262	55368.200000
3207.114751	55414.800000
3208.250591	55300.900000
3209.387747	55334.600000
3210.520291	55260.900000
3211.657117	55652.500000
3212.789331	55311.300000
3213.922863	55376.500000
3215.056229	55029.600000
3216.186468	55301.600000
3217.319505	55010.600000
3218.449416	54822.100000
3219.580644	54693.400000
3220.708746	54696.500000
3221.839645	54722.100000
3222.968901	54685.300000
3224.096512	54672.100000
3225.221002	54788.200000
3226.349767	54922.100000
3227.475410	54657.300000
3228.600890	54899.700000
3229.724729	54934.200000
3230.851362	54829.100000
3231.973398	55121.900000
3233.096750	55082.600000
3234.219940	55068.400000
3235.342968	54855.700000
3236.464356	54874.400000
3237.585583	55091.900000
3238.705171	55325.600000
3239.824598	54772.500000
3240.942387	55188.700000
3242.062969	55108.900000
3243.180436	55521.700000
3244.297744	55697.600000
3245.414890	55832.700000
3246.530401	55882.400000
3247.647227	56152.500000
3248.760942	56234.800000
3249.877448	56347.500000
3250.992318	56221.800000
3252.104080	56377.400000
3253.215683	56518.500000
3254.328600	56280.500000
3255.441359	56308.800000
3256.551011	56460.600000
3257.661978	56458.000000
3258.772786	56208.300000
3259.881962	56288.400000
3260.989507	56791.200000
3262.098367	56501.100000
3263.207068	56638.100000
3264.312667	56673.500000
3265.419581	56947.400000
3266.524865	56958.700000
3267.631463	57064.400000
3268.734961	56905.300000
3269.839773	56996.000000
3270.944428	56909.900000
3272.045984	57107.100000
3273.147385	57122.300000
3274.250099	57124.100000
3275.352656	57204.300000
3276.452118	57468.000000
3277.554362	57284.800000
3278.653512	57338.700000
3279.751036	57237.400000
3280.848405	57381.100000
3281.948557	57484.300000
3283.045615	57460.900000
3284.142518	57304.000000
3285.239267	57243.400000
3286.331456	57386.600000
3287.427895	57339.700000
3288.522711	57279.900000
3289.617372	57523.700000
3290.710412	57233.400000
3291.803298	57681.900000
3292.894563	57378.900000
3293.987141	57342.300000
3295.078098	57701.700000
3296.167437	57471.800000
3297.256621	57349.300000
3298.347119	57571.000000
3299.434532	57644.800000
3300.521793	57630.100000
3301.610366	57622.500000
3302.698786	57712.000000
3303.782659	57714.800000
3304.870774	57992.500000
3305.955808	57991.200000
3307.039226	58031.300000
3308.123955	57867.500000
3309.207070	58133.100000
3310.291496	58299.900000
3311.372844	58125.900000
3312.455504	58664.700000
3313.536550	58222.300000
3314.617445	58440.100000
3315.696727	58379.400000
3316.775858	58607.600000
3317.856300	58360.900000
3318.933669	58526.200000
3320.012349	58690.900000
3321.089417	58586.000000
3322.166335	58861.100000
3323.241642	58402.400000
3324.316800	58807.800000
3325.393270	58906.500000
3326.466668	58785.200000
3327.539918	58874.900000
3328.614479	58804.400000
3329.687430	58921.800000
3330.758774	58945.300000
3331.831428	58883.600000
3332.901015	58674.500000
3333.971913	58790.800000
3335.041204	58734.400000
3336.111806	58763.400000
3337.180801	58857.200000
3338.248190	58719.000000
3339.313974	58714.900000
3340.383984	58660.700000
3341.450931	58673.600000
3342.514816	58602.600000
3343.581469	58814.700000
3344.646517	58467.700000
3345.709963	58873.900000
3346.773261	58783.300000
3347.836414	58847.400000
3348.899420	58815.200000
3349.962279	58811.200000
3351.023537	58801.500000
3352.081738	58784.100000
3353.144160	58926.000000
3354.203525	58774.800000
3355.262745	59036.600000
3356.323275	58837.500000
3357.379295	59179.300000
3358.438080	59270.600000
3359.492357	59355.700000
3360.549397	59356.200000
3361.604840	59529.400000
3362.661591	59475.900000
3363.716745	59437.100000
3364.770301	59557.200000
3365.822260	59632.100000
3366.876981	59734.600000
3367.928653	59673.700000
3368.980182	59678.300000
3370.033020	59813.600000
3371.082810	59952.300000
3372.133908	59753.300000
3373.181961	59951.300000
3374.232774	59952.900000
3375.280541	59951.500000
3376.328166	60035.000000
3377.375649	60080.900000
3378.421538	60272.500000
3379.468736	60061.900000
3380.512892	60134.700000
3381.559806	60234.200000
3382.605128	60076.000000
3383.647410	60181.900000
3384.689550	60167.000000
3385.732998	60247.800000
3386.776306	60128.300000
3387.818023	60123.200000
3388.859599	60339.600000
3389.901035	60336.500000
3390.940881	60417.700000
3391.979140	60354.000000
3393.018706	60642.400000
3394.058131	60596.400000
3395.095970	60580.000000
3396.132221	60687.300000
3397.168332	60696.600000
3398.205751	60737.400000
3399.240137	60572.900000
3400.275830	60744.800000
3401.311384	60791.200000
3402.343907	60839.100000
3403.379183	60968.800000
3404.411428	60880.500000
3405.443535	61056.500000
3406.474058	61043.400000
3407.505889	61104.800000
3408.537580	61096.400000
3409.566245	61144.200000
3410.594771	61150.000000
3411.624605	61147.400000
3412.654300	61206.000000
3413.680970	61304.900000
3414.708947	61427.800000
3415.733899	61301.100000
3416.761601	61474.100000
3417.786280	61605.800000
3418.812265	61577.300000
3419.836670	61643.400000
3420.860939	61568.800000
3421.883629	61762.000000
3422.906183	61370.800000
3423.930043	61664.000000
3424.950883	61719.000000
3425.971588	61432.400000
3426.993598	61633.500000
3428.012590	61317.400000
3429.031447	61537.200000
3430.051609	61501.700000
3431.068755	61720.900000
