-117.384298	142.579396
-114.714698	137.256044
-112.048033	134.223127
-109.382120	133.066833
-106.719139	133.373352
-104.054729	134.728871
-101.393249	136.719580
-98.730339	137.167133
-96.072537	140.248951
-93.413304	139.970629
-90.754821	141.323776
-88.099261	140.060140
-85.442273	143.165035
-82.790382	142.877622
-80.137062	143.551748
-77.486662	141.613986
-74.834832	143.345455
-72.188093	143.527972
-69.539924	142.351049
-66.892499	140.055944
-64.247987	141.259441
-61.602047	137.249650
-58.961188	138.053846
-56.318900	139.318881
-53.679520	142.964336
-51.038712	142.278322
-48.398644	142.694406
-45.763648	142.967832
-43.127224	144.291608
-40.493702	144.350350
-37.858752	147.121678
-35.228867	145.894406
-32.595390	148.358042
-29.966975	146.644755
-27.339293	147.001399
-24.710184	145.128671
-22.086131	131.293007
-19.458489	79.823776
-16.835900	-13.479021
-14.214043	32.283916
-11.592916	394.436364
-8.972519	933.851748
-6.355010	1375.938462
-3.736073	1673.192308
-1.120022	1828.761538
1.495301	1837.919580
4.109897	1709.040559
6.721610	1442.326573
9.334752	1044.898601
11.942860	562.007692
14.554550	107.086014
17.161209	-87.963636
19.769296	4.678322
22.376659	139.057343
24.978997	162.442657
27.584913	166.418182
30.185807	168.439860
32.788129	170.247552
35.385434	174.990909
37.986314	177.258741
40.582180	179.326573
43.179473	179.490210
45.776047	177.218182
48.367612	176.639860
50.960605	172.704895
53.550737	172.430070
56.142297	175.555944
58.730997	177.775524
61.321124	179.778322
63.906253	182.093706
66.492808	184.958042
69.078650	187.856643
71.661638	190.998601
74.246052	191.905594
76.823338	194.474825
79.404190	194.523776
81.982193	193.448252
84.559486	197.655944
87.138205	203.287413
89.711943	207.210490
92.287107	212.679021
94.859428	218.287413
97.431041	223.504196
99.999814	229.836364
102.570014	237.955245
105.137376	250.323077
107.706163	266.381119
110.272114	290.662238
112.835230	320.285315
115.401902	365.686014
117.959353	436.644755
120.522489	555.168531
123.080666	773.316783
125.642396	1158.430769
128.199170	1837.381818
130.757371	2933.937762
133.310619	4496.600000
135.863168	6545.494406
138.419268	8976.734266
140.970421	11623.392308
143.520875	14301.760839
146.070632	16797.325874
148.617571	18923.207692
151.163813	20579.380420
153.711481	21709.065734
156.258453	22378.144755
158.800490	22704.428671
161.341833	22819.336364
163.882483	22816.322378
166.424559	22790.437063
168.963823	22793.641958
171.500279	22790.057343
174.036043	22797.199301
176.573233	22779.451049
179.109732	22758.864336
181.643425	22751.525874
184.174315	22725.964336
186.704516	22711.269930
189.236142	22715.931469
191.764967	22710.234266
194.290993	22702.628671
196.816333	22693.737762
199.343099	22714.877622
201.867067	22680.836364
204.390351	22640.626573
206.912950	22592.124476
209.432756	22550.643357
211.951879	22533.590210
214.470319	22506.877622
216.990183	22506.624476
219.503046	22535.446154
222.019440	22541.784615
224.535152	22582.248252
227.045974	22632.385315
229.558222	22686.247552
232.067686	22703.053846
234.576472	22708.553846
237.084580	22716.397902
239.594111	22736.737063
242.098762	22772.138462
244.602738	22792.386014
247.108137	22841.914685
249.608661	22867.297203
252.112708	22878.000699
254.609785	22910.117483
257.110384	22939.494406
259.608212	22934.734965
262.105367	22905.600699
264.601849	22864.927273
267.093468	22833.376224
269.588607	22771.913986
272.080980	22705.267832
274.572682	22654.945455
277.061620	22610.832867
279.551983	22533.097902
282.039583	22493.876224
284.524425	22461.331469
287.012780	22437.576224
289.494196	22440.017483
291.979126	22456.421678
294.459211	22473.876224
296.942808	22500.123077
299.421562	22481.761538
301.901740	22481.026573
304.379165	22473.023077
306.855927	22449.568531
309.332026	22420.669930
311.805376	22457.556643
314.278064	22470.732867
316.750091	22496.888811
319.221457	22536.049650
321.690079	22566.515385
324.158041	22621.693706
326.627425	22646.048252
329.091987	22644.162238
331.560053	22664.565035
334.023299	22665.411888
336.485887	22649.667832
338.947819	22655.951748
341.409094	22684.918881
343.867635	22681.513287
346.327598	22674.544755
348.784828	22656.824476
351.241404	22658.368531
353.697326	22653.739860
356.150519	22610.806294
358.605133	22584.855245
361.054946	22578.534266
363.508255	22548.144056
365.956766	22492.249650
368.404626	22471.680420
370.853907	22440.467832
373.298395	22407.171329
375.744305	22391.824476
378.189566	22380.056643
380.632107	22389.800000
383.074001	22372.340559
385.515248	22369.458741
387.953779	22380.446154
390.393732	22386.220280
392.830971	22366.883217
395.265498	22345.888811
397.703513	22357.251049
400.136751	22349.401399
402.571411	22333.080420
405.001297	22356.235664
407.434669	22379.421678
409.863271	22407.027972
412.291232	22427.002797
414.720613	22454.951049
417.145229	22515.453846
419.571267	22559.233566
421.996664	22592.983916
424.421421	22668.077622
426.841420	22756.660140
429.262840	22822.426573
431.681563	22893.004196
434.101707	22984.134965
436.519156	23029.069930
438.938025	23075.091608
441.354201	23104.041958
443.765630	23113.306294
446.180535	23138.104196
448.592750	23141.713986
451.004331	23125.446154
453.415278	23148.234266
455.823539	23141.514685
458.231167	23139.067133
460.638164	23133.168531
463.044528	23129.011888
465.448210	23098.293007
467.851262	23104.688811
470.253684	23082.238462
472.655477	23068.358042
475.054591	23079.660839
477.455125	23079.577622
479.855030	23067.054545
482.250212	23083.204895
484.648861	23041.153147
487.042790	23007.327972
489.436093	22974.282517
491.828770	22939.835664
494.220822	22911.969930
496.614292	22881.843357
499.003051	22855.146853
501.389143	22830.567133
503.776654	22815.958042
506.163543	22818.878322
508.547768	22816.897203
510.933412	22845.889510
513.316393	22821.469930
515.696714	22836.797902
518.078454	22866.974126
520.457535	22895.158042
522.838035	22938.173427
525.215877	22962.000699
527.591064	22989.525874
529.965633	23007.417483
532.341621	23029.204196
534.714955	23046.300699
537.089707	23057.044056
539.459774	23066.904196
541.829225	23052.817483
544.200094	23054.826573
546.566283	23059.023776
548.933890	23049.727273
551.298851	23075.760140
553.663199	23095.002797
556.026935	23103.083916
558.392088	23141.269930
560.752568	23141.351049
563.114467	23150.885315
565.473726	23172.065734
567.830346	23173.321678
570.190411	23160.206294
572.543786	23122.047552
574.900605	23103.736364
577.254788	23063.148252
579.608364	23047.695105
581.961331	23008.901399
584.311667	22968.831469
586.663419	22944.310490
589.008495	22927.061538
591.359035	22932.837063
593.702901	22942.417483
596.052229	22937.946154
598.396909	22941.486014
600.738963	22915.421678
603.082435	22914.260839
605.423284	22895.616783
607.763531	22866.386014
610.101157	22836.523776
612.442218	22812.608392
614.778641	22799.860140
617.116481	22819.299301
619.451704	22806.413986
621.784311	22818.179720
624.118334	22811.050350
626.449744	22829.709790
628.780555	22809.950350
631.110768	22833.391608
633.440383	22842.662937
635.765376	22853.168531
638.095810	22852.524476
640.421622	22883.432867
642.744828	22902.377622
645.069449	22934.424476
647.391465	22934.902797
649.712888	22973.843357
652.031707	22979.955245
654.351942	22992.551049
656.671584	23002.951748
658.988625	23001.020280
661.305074	22984.144056
663.618925	23004.022378
665.934192	22994.949650
668.246862	23021.999301
670.560947	23016.746853
672.870432	23035.760140
675.181333	23028.441958
677.489641	23033.403497
679.797361	23029.083916
682.106496	23011.404196
684.411038	23006.327972
686.714993	22974.013986
689.018363	22939.023776
691.323147	22939.360140
693.623345	22919.508392
695.924957	22911.458042
698.225985	22903.297902
700.522430	22877.141259
702.820291	22841.146154
705.117568	22823.937762
707.414262	22837.635664
709.706380	22831.487413
712.001909	22849.215385
714.292865	22857.993706
716.585235	22868.451049
718.875029	22906.934965
721.164243	22935.626573
723.452878	22969.844056
725.738941	23006.027273
728.026417	23005.951748
730.311322	23020.670629
732.595650	23022.907692
734.877409	23035.302098
737.160582	23060.981818
739.443178	23091.188811
741.721219	23132.644755
744.000673	23187.381119
746.279552	23227.400699
748.557855	23264.368531
750.831609	23309.736364
753.106777	23340.469930
755.381371	23352.645455
757.653405	23344.807692
759.926853	23321.475524
762.197743	23319.698601
764.466077	23326.365035
766.735824	23311.439161
769.003017	23305.893007
771.269639	23289.572727
773.535691	23275.854545
775.799192	23262.097902
778.064106	23266.881818
780.328450	23269.034965
782.588265	23291.845455
784.849493	23327.112587
787.110152	23346.319580
789.368266	23378.594406
791.623835	23399.730070
793.882795	23403.266434
796.135256	23418.817483
798.393084	23423.799301
800.646392	23425.020979
802.897161	23401.817483
805.149342	23399.967832
807.398985	23380.488112
809.650039	23374.552448
811.896582	23367.626573
814.144537	23340.553147
816.389958	23317.183217
818.636790	23309.903497
820.883061	23305.976923
823.124828	23320.397203
825.369977	23347.421678
827.608654	23370.609790
829.850713	23374.732867
832.088274	23398.565734
834.327247	23392.539860
836.563693	23408.811888
838.801550	23421.065035
841.036882	23430.983916
843.269691	23450.517483
845.503911	23493.886014
847.735609	23541.739161
849.966751	23580.365734
852.197340	23623.082517
854.427373	23654.042657
856.656853	23676.646154
858.881851	23725.465035
861.110224	23744.169231
863.334118	23766.639860
865.559422	23769.973427
867.780251	23789.811189
870.004452	23835.637762
872.224180	23872.816783
874.445319	23902.087413
876.665907	23915.916783
878.883985	23943.530070
881.103474	23953.784615
883.318495	23955.439161
885.532970	23960.346154
887.746896	23937.334266
889.960276	23884.151748
892.173108	23853.259441
894.385394	23831.921678
896.595177	23794.416783
898.804415	23759.189510
901.013108	23753.277622
903.219302	23760.093706
905.426905	23791.712587
907.632010	23798.604895
909.836572	23818.381119
912.038639	23840.025874
914.242115	23870.376923
916.443097	23908.029371
918.643538	23944.116783
920.845386	23938.062937
923.040844	23927.690210
925.239661	23918.511189
927.434039	23938.219580
929.631775	23943.410490
931.825075	23961.051049
934.019784	23993.178322
936.212007	24022.745455
938.403692	24047.925175
940.594839	24095.275524
942.783503	24165.374825
944.971630	24197.673427
947.157277	24242.439161
949.346276	24308.874825
951.530852	24345.518881
953.714893	24393.791608
955.902284	24449.186014
958.081371	24512.056643
960.263809	24593.931469
962.445713	24639.911888
964.625143	24698.638462
966.802099	24743.257343
968.980464	24802.175524
971.160236	24817.073427
973.333659	24841.118881
975.510428	24852.044755
977.682790	24843.622378
979.856560	24838.812587
982.025926	24839.725175
984.198637	24855.091608
986.368881	24857.544056
988.538597	24851.841259
990.707784	24891.762238
992.872574	24914.787413
995.040705	24960.542657
997.204442	24974.769930
999.369585	25026.560140
1001.532270	25057.833566
1003.694428	25081.888811
1005.854130	25082.628671
1008.013308	25048.598601
1010.173892	25032.004196
1012.332021	24969.671329
1014.489626	24905.450350
1016.646708	24855.941958
1018.803267	24783.795804
1020.955446	24759.053147
1023.109031	24754.631469
1025.262095	24770.632867
1027.412711	24780.254545
1029.564732	24800.329371
1031.712380	24818.389510
1033.863360	24832.734266
1036.009969	24843.913287
1038.156060	24838.494406
1040.301631	24824.415385
1042.448608	24806.596503
1044.589296	24787.693007
1046.733314	24798.234266
1048.874891	24800.004196
1051.015952	24798.118881
1053.158417	24798.427972
1055.294603	24816.434965
1057.434115	24823.663636
1059.569271	24821.698601
1061.707752	24810.588811
1063.841879	24806.793706
1065.975493	24813.941259
1068.110512	24807.253147
1070.241181	24795.234965
1072.373255	24783.933566
1074.502900	24777.710490
1076.632033	24781.906294
1078.760654	24787.840559
1080.888764	24807.295105
1083.014448	24817.646853
1085.139622	24825.457343
1087.266200	24837.067133
1089.388441	24826.466434
1091.512085	24839.972028
1093.631396	24820.266434
1095.755935	24813.393706
1097.874229	24829.536364
1099.993928	24830.667832
1102.111208	24855.241958
1104.227982	24860.877622
1106.344249	24882.720979
1108.458101	24903.900699
1110.573356	24904.682517
1112.684289	24899.831469
1114.798533	24881.806993
1116.908457	24904.220280
1119.019785	24941.776923
1121.130608	24965.604196
1123.237115	25009.930070
1125.346932	25010.495804
1127.452434	25050.191608
1129.559339	25053.918182
1131.660029	25065.987413
1133.765931	25043.927273
1135.867524	25016.383217
1137.970520	24974.448951
1140.073015	24932.334965
1142.169303	24927.748252
1144.270799	24928.312587
1146.367992	24881.930070
1148.464686	24866.532168
1150.560882	24852.518881
1152.656581	24875.103497
1154.751781	24908.646154
1156.844586	24912.472028
1158.938792	24921.843357
1161.026807	24938.917483
1163.120020	24929.844056
1165.207045	24942.513287
1167.297369	24950.211189
1169.383406	24950.688811
1171.472740	24934.272727
1173.555893	24925.839161
1175.640448	24939.059441
1177.726405	24963.906993
1179.808080	25003.179021
1181.891157	25003.799301
1183.971848	25031.310490
1186.052047	25073.540559
1188.131755	25100.493706
1190.210972	25147.534965
1192.287807	25186.062238
1194.362261	25211.199301
1196.440006	25258.865035
1198.513482	25297.623776
1200.588358	25350.111189
1202.658967	25393.906993
1204.730978	25448.071329
1206.800612	25471.125874
1208.871647	25513.833566
1210.942194	25565.939860
1213.008480	25596.068531
1215.076167	25618.050350
1217.141482	25664.241958
1219.208197	25709.537063
1221.270656	25758.846154
1223.336400	25779.825874
1225.397891	25810.727273
1227.460781	25861.980420
1229.521304	25878.764336
1231.581343	25874.430070
1233.640900	25903.989510
1235.698091	25920.506993
1237.754801	25915.155245
1239.809148	25919.265035
1241.866775	25975.342657
1243.922040	26018.522378
1245.973064	26052.110490
1248.025488	26090.732867
1250.077432	26155.325874
1252.127018	26259.340559
1254.176125	26302.898601
1256.224754	26341.141259
1258.272904	26384.102098
1260.320575	26419.380420
1262.364017	26471.952448
1264.410733	26501.854545
1266.455096	26559.524476
1268.498983	26610.202098
1270.540519	26652.819580
1272.579704	26700.939860
1274.622163	26755.518881
1276.660399	26837.148951
1278.700034	26884.332168
1280.739194	26963.783217
1282.774135	27032.202098
1284.810475	27158.637762
1286.844471	27316.988112
1288.879865	27462.758741
1290.911045	27670.610490
1292.943624	27895.602797
1294.975730	28138.045455
1297.005496	28391.574126
1299.036660	28640.856643
1301.063616	28933.184615
1303.091970	29246.527972
1305.116120	29603.851049
1307.143534	29931.174825
1309.166746	30305.227972
1311.191356	30614.965035
1313.213632	31207.938462
1315.237305	33535.579021
1317.258645	37239.160140
1319.279517	41868.876224
1321.299922	46950.539161
1323.316134	52087.742657
1325.333743	56883.950350
1327.349024	60958.160839
1329.367564	64835.128671
1331.381915	67492.357343
1333.393940	67656.986713
1335.409222	65278.069231
1337.420319	61254.713287
1339.432813	56930.353846
1341.441124	51869.229371
1343.452691	46456.637063
1345.458218	41072.410490
1347.467001	36148.902098
1349.471606	32198.877622
1351.479465	29652.705594
1353.486862	29022.361538
1355.488228	28987.581119
1357.490991	28762.218881
1359.493293	28524.156643
1361.495136	28275.706294
1363.496519	28065.904895
1365.495589	27901.274825
1367.494200	27790.837063
1369.492353	27681.298601
1371.490047	27599.558741
1373.483579	27554.376224
1375.478507	27484.137762
1377.472977	27460.388811
1379.466992	27431.395804
1381.458698	27399.188811
1383.449950	27364.923077
1385.438896	27352.627273
1387.429237	27352.110490
1389.419123	27346.813287
1391.406706	27346.153846
1393.393834	27370.948951
1395.378662	27426.534965
1397.364883	27456.452448
1399.348805	27508.230070
1401.332274	27558.748951
1403.315291	27589.375524
1405.296009	27620.831469
1407.278123	27650.983916
1409.257939	27721.803497
1411.237305	27782.161538
1413.212531	27814.147552
1415.190997	27901.006993
1417.167168	27974.537762
1419.142891	28060.734266
1421.118164	28123.305594
1423.091146	28208.604196
1425.063680	28259.936364
1427.035767	28339.692308
1429.007405	28372.779720
1430.974915	28428.570629
1432.947500	28467.086014
1434.912278	28481.600699
1436.882128	28491.609091
1438.847855	28521.569231
1440.814974	28518.748951
1442.779810	28531.734266
1444.740526	28523.579021
1446.706311	28522.426573
1448.666140	28541.236364
1450.627362	28544.918881
1452.589977	28533.269930
1454.548477	28565.633566
1456.506534	28554.681119
1458.464150	28533.053846
1460.421324	28516.443357
1462.376222	28517.056643
1464.332512	28506.730769
1466.286528	28466.824476
1468.240104	28437.950350
1470.191407	28436.431469
1472.144102	28432.512587
1474.094526	28393.434266
1476.044510	28372.066434
1477.994056	28401.688112
1479.941333	28391.084615
1481.886343	28400.418881
1483.832744	28421.139860
1485.778708	28448.013287
1487.724235	28457.973427
1489.667497	28453.469231
1491.610322	28491.606993
1493.550884	28498.012587
1495.492837	28527.450350
1497.432528	28556.805594
1499.371785	28604.440559
1501.310606	28666.606294
1503.247168	28683.400000
1505.185121	28742.734965
1507.120815	28771.777622
1509.056076	28809.217483
1510.989081	28842.679720
1512.921653	28865.243357
1514.853793	28905.405594
1516.785501	28936.236364
1518.714955	29021.896503
1520.645800	29071.655245
1522.576213	29135.093706
1524.502554	29175.114685
1526.430286	29216.600000
1528.355767	29243.099301
1530.280819	29245.258042
1532.205442	29246.477622
1534.129636	29273.767133
1536.051583	29278.699301
1537.974919	29289.739161
1539.896010	29311.406993
1541.814856	29339.672727
1543.735092	29336.912587
1545.653084	29339.942657
1547.570650	29347.076224
1549.485974	29344.062238
1551.402688	29304.506993
1553.315347	29257.438462
1555.231210	29262.239161
1557.144833	29251.284615
1559.056219	29215.338462
1560.968993	29220.283916
1562.877718	29217.944755
1564.787833	29214.267133
1566.697523	29221.858741
1568.606791	29232.997902
1570.513825	29221.935664
1572.418626	29246.283217
1574.324816	29250.227273
1576.228774	29238.978322
1578.132312	29286.403497
1580.035428	29269.563636
1581.936316	29281.341958
1583.838591	29269.390210
1585.738639	29232.314685
1587.640074	29231.586014
1589.537476	29217.297203
1591.434459	29210.232168
1593.331024	29183.473427
1595.228977	29221.072727
1597.121095	29225.378322
1599.016406	29254.418182
1600.911300	29274.313986
1602.803972	29275.219580
1604.696228	29257.173427
1606.586263	29231.201399
1608.475884	29204.606993
1610.365088	29235.878322
1612.253878	29253.513287
1614.140450	29312.800699
1616.028410	29333.475524
1617.912353	29381.395105
1619.797684	29438.244755
1621.682600	29515.789510
1623.565303	29541.872727
1625.449393	29568.449650
1627.329472	29575.972028
1629.210937	29589.802098
1631.090192	29588.764336
1632.970833	29623.944056
1634.845670	29660.595105
1636.725489	29688.988112
1638.601302	29687.002098
1640.476705	29727.369930
1642.353495	29771.428671
1644.224487	29793.883217
1646.098661	29823.664336
1647.968837	29828.383916
1649.842193	29844.117483
1651.713346	29841.788811
1653.582297	29848.899301
1655.452634	29866.723776
1657.318977	29852.725874
1659.186706	29858.839860
1661.052237	29831.430070
1662.919152	29801.059441
1664.782079	29763.210490
1666.646391	29733.792308
1668.508507	29725.105594
1670.370219	29692.493007
1672.233315	29667.955245
1674.094217	29645.609790
1675.952925	29660.886713
1677.811230	29676.714685
1679.670920	29652.020280
1681.524843	29690.069930
1683.381938	29692.622378
1685.238631	29670.693706
1687.091348	29659.390909
1688.947235	29658.026573
1690.799149	29644.644056
1692.650662	29629.615385
1694.501774	29571.027273
1696.352486	29530.920979
1698.202797	29514.538462
1700.050924	29535.073427
1701.900434	29511.353846
1703.744196	29530.200699
1705.592907	29520.962238
1707.435873	29490.840559
1709.282004	29489.331469
1711.124174	29497.131469
1712.969508	29502.688811
1714.809102	29506.592308
1716.650080	29475.378322
1718.492441	29482.464336
1720.330846	29493.459441
1722.170634	29536.051748
1724.008247	29507.170629
1725.845464	29514.541958
1727.680508	29500.477622
1729.516935	29468.448951
1731.351190	29454.617483
1733.185050	29399.146154
1735.018517	29416.439860
1736.848037	29402.482517
1738.680716	29350.546853
1740.509451	29349.595804
1742.341344	29325.386713
1744.169294	29326.069231
1745.996852	29287.351748
1747.824018	29273.123077
1749.650793	29245.602098
1751.477177	29184.488112
1753.299623	29148.841259
1755.125225	29096.915385
1756.946892	29116.334965
1758.769941	29082.967133
1760.590828	29042.335664
1762.411327	29031.834266
1764.233207	29008.167832
1766.049387	29011.172028
1767.868719	28988.155944
1769.684124	29004.083916
1771.502679	29017.839161
1773.317309	29000.434965
1775.131553	29042.740559
1776.945409	29073.389510
1778.758879	29135.558741
1780.570196	29170.686014
1782.382894	29184.653846
1784.195205	29197.824476
1786.003599	29220.713986
1787.813373	29234.472028
1789.619233	29237.219580
1791.428238	29254.428671
1793.233330	29250.270629
1795.039803	29233.944056
1796.845892	29274.684615
1798.648071	29321.590210
1800.453393	29364.298601
1802.254807	29383.886713
1804.057601	29413.867832
1805.856489	29438.058741
1807.656758	29444.786014
1809.456645	29459.889510
1811.254391	29444.555245
1813.051755	29427.465035
1814.848740	29413.690210
1816.645344	29408.230070
1818.439809	29414.876224
1820.235653	29433.836364
1822.025843	29405.448951
1823.820928	29426.532867
1825.610362	29427.262937
1827.402932	29456.752448
1829.193367	29501.397902
1830.981668	29551.562238
1832.773104	29569.820979
1834.558894	29601.388811
1836.346064	29649.380420
1838.131102	29670.336364
1839.919274	29685.592308
1841.703560	29711.118182
1843.485717	29711.360140
1845.269252	29778.825874
1847.050659	29779.646154
1848.833445	29823.125175
1850.612350	29858.475524
1852.392635	29895.386713
1854.170793	29918.856643
1855.950330	29934.190909
1857.727742	29979.218182
1859.503030	30012.916783
1861.279697	30058.658042
1863.054240	30145.076224
1864.830162	30197.762238
1866.600463	30278.478322
1868.373892	30305.611888
1870.145201	30371.697902
1871.916140	30446.857343
1873.688455	30539.365734
1875.455157	30576.962238
1877.224985	30624.134965
1878.990949	30693.038462
1880.760037	30737.417483
1882.525263	30769.713287
1884.290120	30808.065734
1886.056355	30824.674825
1887.818731	30841.801399
1889.580740	30886.947552
1891.342381	30927.445455
1893.103656	30930.767832
1894.864563	30955.786713
1896.625104	30952.232867
1898.383535	30991.667133
1900.141601	31027.492308
1901.897558	31063.981119
1903.654892	31104.687413
1905.411861	31137.209091
1907.166724	31219.560839
1908.919481	31273.676923
1910.671875	31336.118881
1912.425644	31385.100699
1914.177310	31426.724476
1915.926874	31514.971329
1917.677813	31586.725874
1919.428390	31666.593706
1921.175127	31737.200699
1922.923241	31836.147552
1924.669255	31898.367832
1926.416645	31956.683916
1928.161936	32030.175524
1929.905130	32071.461538
1931.649699	32118.586014
1933.392173	32186.255944
1935.134286	32256.184615
1936.876039	32343.176923
1938.617433	32427.294406
1940.356732	32495.161538
1942.095673	32589.081818
1943.834256	32689.471329
1945.570746	32782.841259
1947.306879	32887.278322
1949.044386	32954.946154
1950.778071	33051.214685
1952.513131	33171.523077
1954.246103	33273.033566
1955.978718	33433.179021
1957.710976	33562.000000
1959.442878	33687.809790
1961.172694	33795.723776
1962.900425	33947.055245
1964.629531	34099.023077
1966.358282	34220.590210
1968.084949	34324.398601
1969.811262	34401.432168
1971.538948	34496.213287
1973.261098	34608.786014
1974.986349	34725.615385
1976.707794	34887.634266
1978.432338	34971.391608
1980.154803	35072.642657
1981.873464	35187.979021
1983.595224	35315.757343
1985.313182	35434.706294
1987.032513	35536.299301
1988.748045	35648.169930
1990.468397	35756.239860
1992.184951	35840.925874
1993.897708	35981.401399
1995.613562	36082.807692
1997.327342	36191.428671
1999.040773	36276.474825
2000.752133	36376.678322
2002.464866	36479.147552
2004.173807	36580.733566
2005.885842	36688.109790
2007.592367	36787.453846
2009.301985	36851.683217
2011.009535	36933.075524
2012.716738	36996.351049
2014.421875	37047.482517
2016.126665	37080.825175
2017.832827	37135.802098
2019.535207	37181.911189
2021.238959	37257.051049
2022.940647	37307.775524
2024.641991	37399.980420
2026.342989	37455.583217
2028.041927	37548.722378
2029.742235	37624.486713
2031.438769	37691.133566
2033.136674	37762.921678
2034.832520	37830.246853
2036.531452	37925.842657
2038.224898	38038.323776
2039.919715	38100.966434
2041.614190	38205.370629
2043.304896	38268.294406
2044.998686	38328.697902
2046.688709	38357.439161
2048.380103	38417.474825
2050.069444	38409.762937
2051.760155	38338.743357
2053.447103	38333.962238
2055.133712	38282.045455
2056.821691	38277.747552
2058.505910	38272.660839
2060.191499	38239.439161
2061.876749	38234.520979
2063.559951	38212.534965
2065.244522	38166.282517
2066.923631	38178.928671
2068.607525	38195.534965
2070.285959	38187.649650
2071.967469	38182.648252
2073.645229	38233.753846
2075.322651	38270.044056
2077.001443	38346.207692
2078.678193	38400.701399
2080.352901	38468.036364
2082.028978	38512.104895
2083.703015	38545.437762
2085.376716	38560.353846
2087.050082	38628.557343
2088.721410	38649.934965
2090.392403	38694.723776
2092.063062	38706.644755
2093.733386	38767.096503
2095.403377	38818.237063
2097.071332	38888.186713
2098.738954	38965.292308
2100.404541	39094.232168
2102.071498	39216.064336
2103.736420	39353.023077
2105.401011	39489.841958
2107.063570	39637.376923
2108.727497	39775.283217
2110.389394	39918.185315
2112.050959	40018.176224
2113.712193	40146.549650
2115.371399	40187.674825
2117.030274	40269.063636
2118.688820	40330.231469
2120.347036	40396.624476
2122.001528	40437.402797
2123.659085	40501.318182
2125.316313	40526.041259
2126.969819	40598.169930
2128.624693	40657.957343
2130.275849	40674.781119
2131.930066	40725.639161
2133.580567	40781.810490
2135.232434	40829.493706
2136.878893	40903.789510
2138.530107	41006.246853
2140.177607	41103.823077
2141.826474	41216.737063
2143.473323	41300.034266
2145.119845	41375.394406
2146.766042	41462.669231
2148.408531	41475.137762
2150.054078	41470.971329
2151.695918	41448.647552
2153.340815	41453.262238
2154.982007	41419.866434
2156.622875	41398.625175
2158.263419	41407.974126
2159.901951	41393.860140
2161.541849	41364.478322
2163.178047	41315.249650
2164.815612	41317.521678
2166.452853	41322.229371
2168.088085	41330.193706
2169.722996	41382.479720
2171.357585	41394.223077
2172.991852	41492.672028
2174.622426	41563.675524
2176.256052	41649.694406
2177.885986	41716.800699
2179.517285	41775.793007
2181.146579	41804.039860
2182.775554	41803.960140
2184.404210	41847.542657
2186.032546	41859.810490
2187.658879	41845.498601
2189.284894	41823.170629
2190.908908	41797.552448
2192.534286	41789.584615
2194.157665	41770.637762
2195.782407	41750.258042
2197.403469	41744.899301
2199.024214	41738.731469
2200.646324	41718.865734
2202.266436	41715.841958
2203.884551	41735.198601
2205.502351	41765.282517
2207.119836	41787.293007
2208.737005	41838.965035
2210.353859	41939.039161
2211.970398	41992.700699
2213.584943	42084.556643
2215.197496	42174.879720
2216.811413	42264.531469
2218.423339	42346.664336
2220.036628	42401.976224
2221.647927	42462.100699
2223.257236	42499.068531
2224.867909	42560.241958
2226.476593	42630.130769
2228.084965	42709.635664
2229.691349	42776.885315
2231.299097	42825.427273
2232.904858	42933.794406
2234.510308	43005.440559
2236.113773	43099.479021
2237.718601	43185.388811
2239.321445	43250.427972
2240.922307	43324.703497
2242.524530	43402.665035
2244.124772	43474.387413
2245.726376	43556.288112
2247.324328	43583.249650
2248.923642	43668.737063
2250.520976	43734.946853
2252.118001	43847.237762
2253.716389	43905.448951
2255.311128	43998.104895
2256.903890	44061.549650
2258.498015	44108.507692
2260.093501	44143.040559
2261.685343	44196.129371
2263.276878	44229.101399
2264.869774	44241.176224
2266.457361	44245.986014
2268.049645	44300.346154
2269.636621	44291.913287
2271.226626	44344.004196
2272.811326	44320.959441
2274.400719	44322.767832
2275.984811	44265.090210
2277.570264	44206.893007
2279.153747	44192.833566
2280.740257	44192.397203
2282.323133	44187.539860
2283.905705	44197.335315
2285.487974	44244.004196
2287.066614	44305.477273
2288.648277	44320.432168
2290.226312	44387.669580
2291.807370	44385.103497
2293.384801	44399.121329
2294.960269	44390.186014
2296.538759	44400.397552
2298.113625	44410.045455
2299.688190	44347.869580
2301.262455	44296.109790
2302.836419	44273.968881
2304.410083	44284.036364
2305.983446	44301.576224
2307.553191	44311.312587
2309.122637	44379.945455
2310.695101	44436.446853
2312.262291	44491.990909
2313.832499	44625.998601
2315.399092	44703.367133
2316.967045	44770.900000
2318.533042	44846.137063
2320.098742	44946.376224
2321.664145	45001.266434
2323.227593	45097.481119
2324.792401	45228.979021
2326.353601	45298.146154
2327.917815	45411.204196
2329.476767	45510.632168
2331.038734	45583.902797
2332.598750	45706.487413
2334.158470	45781.808392
2335.716241	45853.165035
2337.273717	45988.259441
2338.830899	46081.769231
2340.386134	46151.946154
2341.941074	46257.080420
2343.495721	46340.609790
2345.050074	46345.799301
2346.604133	46434.268531
2348.157898	46462.962238
2349.709720	46478.938462
2351.259598	46478.391608
2352.812484	46498.632168
2354.360128	46516.417483
2355.910779	46586.661538
2357.457839	46666.816783
2359.006258	46713.741259
2360.554384	46754.293706
2362.098922	46776.176224
2363.644818	46833.230769
2365.188776	46879.697902
2366.734091	46922.869231
2368.275821	46980.688112
2369.818908	47027.712587
2371.360060	47128.022378
2372.900922	47214.206993
2374.441495	47336.093007
2375.981778	47428.731469
2377.521773	47477.606993
2379.058190	47528.944056
2380.597608	47590.350350
2382.133449	47624.079720
2383.670646	47649.958741
2385.204268	47715.597203
2386.740891	47789.144056
2388.275582	47910.182517
2389.808344	48033.227972
2391.340819	48183.650350
2392.871367	48326.902797
2394.404912	48430.075524
2395.933245	48570.355245
2397.462936	48701.016783
2398.992341	48827.261538
2400.521460	48926.277622
2402.050295	49010.345455
2403.573924	49096.383916
2405.102190	49221.021678
2406.625252	49356.938462
2408.152948	49472.962238
2409.673805	49591.692308
2411.199295	49678.731469
2412.721224	49806.185315
2414.244509	49942.000699
2415.765873	50047.713287
2417.285317	50147.691608
2418.806116	50228.536364
2420.324996	50282.759441
2421.843594	50345.313287
2423.360275	50426.451748
2424.878310	50531.208392
2426.396064	50618.132867
2427.910267	50707.773427
2429.424189	50866.812587
2430.937831	51024.056643
2432.452828	51166.865734
2433.964276	51295.063636
2435.477079	51447.850350
2436.987968	51584.960140
2438.498579	51714.559441
2440.007278	51849.688112
2441.518963	51959.369930
2443.027105	52095.877622
2444.534969	52224.688112
2446.042555	52406.024476
2447.546600	52599.146154
2449.053631	52756.018182
2450.558753	52945.977622
2452.063598	53116.755245
2453.566535	53272.699301
2455.069197	53415.737762
2456.571582	53538.456643
2458.072062	53679.602797
2459.573895	53770.619580
2461.073824	53912.499301
2462.573477	54065.865734
2464.072854	54202.687413
2465.570329	54347.092308
2467.065902	54505.255245
2468.564455	54694.118182
2470.059480	54791.842657
2471.555858	54919.495804
2473.048708	54999.451748
2474.542912	55098.081119
2476.036842	55179.148951
2477.527248	55245.018182
2479.020632	55297.265734
2480.512118	55354.274126
2482.001707	55405.760839
2483.491024	55522.301399
2484.978446	55592.962937
2486.468843	55654.660140
2487.955721	55672.723776
2489.443951	55725.592308
2490.928665	55697.755245
2492.413108	55703.279021
2493.898903	55651.960140
2495.382805	55592.669930
2496.868059	55553.186713
2498.348178	55515.517483
2499.831271	55449.648252
2501.312473	55405.774825
2502.793406	55313.628671
2504.272450	55225.593007
2505.751225	55083.508392
2507.229732	54967.272028
2508.707971	54837.337063
2510.185941	54704.316084
2511.660407	54540.114685
2513.137841	54438.452448
2514.611772	54337.528671
2516.087053	54188.867832
2517.562068	54093.881818
2519.033581	54004.946853
2520.506444	53878.013986
2521.977425	53763.386014
2523.449756	53645.819580
2524.916974	53543.320280
2526.387157	53445.332867
2527.855460	53347.945455
2529.323498	53256.081119
2530.791271	53219.781119
2532.258779	53165.167133
2533.726022	53121.870629
2535.189773	53117.235664
2536.654874	53091.750350
2538.118098	53065.169930
2539.582672	53066.773427
2541.043756	53105.802797
2542.506190	53135.660839
2543.968361	53155.732168
2545.427046	53177.341958
2546.890303	53179.100699
2548.348463	53205.940559
2549.807972	53204.697902
2551.262388	53202.916084
2552.721373	53177.962937
2554.178487	53183.318182
2555.633730	53164.579021
2557.088712	53123.142657
2558.541824	53199.142657
2559.996285	53206.097902
2561.448877	53171.159441
2562.901209	53182.474825
2564.351673	53192.569930
2565.805093	53237.253846
2567.253431	53271.034965
2568.704725	53353.018182
2570.154152	53394.751049
2571.600107	53484.576923
2573.049018	53543.666434
2574.494457	53592.760839
2575.941245	53672.235664
2577.386169	53688.276224
2578.830835	53701.451049
2580.276850	53725.391608
2581.719397	53715.927972
2583.163292	53717.988811
2584.603722	53731.285315
2586.045499	53760.279021
2587.485417	53764.959441
2588.926682	53844.560140
2590.364486	53944.137762
2591.805239	53987.367832
2593.240929	54077.141259
2594.679569	54141.346154
2596.116352	54230.246853
2597.551278	54327.610490
2598.989153	54373.625874
2600.421969	54447.216084
2601.856133	54465.644056
2603.288443	54527.939161
2604.722099	54552.943357
2606.153902	54627.193007
2607.585452	54664.023776
2609.016748	54635.117483
2610.446192	54674.494406
2611.875384	54679.351748
2613.302726	54765.723077
2614.731414	54794.644056
2616.159849	54852.009790
2617.584837	54932.909091
2619.011172	54963.576224
2620.435658	55082.234266
2621.861490	55119.594406
2623.283878	55175.230769
2624.707612	55201.988112
2626.129499	55209.155245
2627.551137	55259.263636
2628.970929	55300.655245
2630.392067	55370.551049
2631.812955	55353.984615
2633.230405	55456.471329
2634.650794	55481.475524
2636.067746	55514.830769
2637.484449	55597.831469
2638.900905	55612.658042
2640.317111	55639.024476
2641.733070	55666.915385
2643.147188	55684.550350
2644.561059	55721.657343
2645.973090	55806.888112
2647.386466	55901.041259
2648.796412	55928.675524
2650.209293	56006.437063
2651.618746	56052.136364
2653.027954	56122.980420
2654.435324	56193.419580
2655.845630	56257.269930
2657.254099	56322.258741
2658.660733	56413.965734
2660.067122	56473.426573
2661.471677	56567.829371
2662.877576	56732.435664
2664.281642	56868.751748
2665.685463	56970.759441
2667.089041	57063.065734
2668.490786	57141.336364
2669.893875	57168.873427
2671.293546	57188.894406
2672.694561	57220.622378
2674.092160	57190.688112
2675.492689	57188.202098
2676.889803	57141.502797
2678.288260	57127.422378
2679.684889	57129.643357
2681.081276	57112.427273
2682.477422	57127.503497
2683.871741	57159.191608
2685.267403	57134.623077
2686.659655	57160.693007
2688.053250	57188.292308
2689.445022	57192.334965
2690.838135	57196.233566
2692.229425	57248.953846
2693.618892	57276.096503
2695.008119	57267.926573
2696.397107	57288.310490
2697.787437	57288.403497
2699.172782	57360.258741
2700.561051	57412.554545
2701.947500	57401.755944
2703.333710	57490.189510
2704.719682	57508.610490
2706.102254	57555.801399
2707.486169	57662.813287
2708.869846	57726.637762
2710.253285	57823.656643
2711.633328	57874.759441
2713.014713	57966.139860
2714.394282	58056.879720
2715.775193	58167.918881
2717.154288	58260.382517
2718.531570	58343.858741
2719.910193	58479.902098
2721.287003	58549.120979
2722.663577	58690.967832
2724.039915	58802.932168
2725.414441	58870.027273
2726.790308	58959.763636
2728.162788	58988.951748
2729.538184	59051.002098
2730.908620	59110.518182
2732.280397	59142.820979
2733.651939	59202.723776
2735.021673	59276.237762
2736.392748	59359.049650
2737.762014	59398.848951
2739.131048	59470.386713
2740.498274	59538.818881
2741.865268	59589.195105
2743.232029	59645.839161
2744.598557	59703.523776
2745.963280	59784.797203
2747.327772	59869.297203
2748.692031	59944.345455
2750.056058	60021.720280
2751.419854	60114.482517
2752.780276	60175.530070
2754.143609	60189.484615
2755.501999	60228.841958
2756.863299	60255.910490
2758.221228	60250.034965
2759.582067	60250.889510
2760.941105	60238.666434
2762.296775	60251.515385
2763.655353	60267.945455
2765.010564	60294.396503
2766.365547	60334.624476
2767.718732	60404.546154
2769.074824	60443.168531
2770.427552	60514.288112
2771.780051	60575.434266
2773.132322	60611.428671
2774.485932	60654.625175
2775.836180	60688.572727
2777.184635	60727.630070
2778.535994	60800.258042
2779.883994	60831.627972
2781.233332	60874.602098
2782.580879	60924.125874
2783.928198	60960.397902
2785.275291	60963.483916
2786.620593	61009.668531
2787.965669	61002.031469
2789.310518	61023.937063
2790.655142	61065.582517
2791.996414	61138.458042
2793.339024	61222.886713
2794.681408	61339.082517
2796.023568	61429.658741
2797.362378	61523.432867
2798.704087	61627.506294
2800.042449	61691.975524
2801.382148	61741.099301
2802.720061	61816.332867
2804.056190	61833.843357
2805.392095	61879.942657
2806.729338	61947.093706
2808.064797	62025.631469
2809.400033	62064.284615
2810.733486	62146.857343
2812.068277	62216.444056
2813.399726	62264.539161
2814.734071	62309.645455
2816.063518	62338.801399
2817.394302	62387.646154
2818.724864	62444.398601
2820.053647	62470.890210
2821.383766	62543.482517
2822.712107	62607.960839
2824.040227	62653.877622
2825.366569	62663.786713
2826.694248	62694.506993
2828.018593	62691.839161
2829.344275	62677.388112
2830.668181	62650.686014
2831.991868	62649.472727
2833.316890	62647.880420
2834.638582	62670.430769
2835.960056	62682.640559
2837.281311	62744.764336
2838.602347	62759.044056
2839.921611	62786.400000
2841.242210	62783.786014
2842.561037	62774.462937
2843.879646	62756.169930
2845.196484	62749.244056
2846.513105	62739.404895
2847.829509	62767.768531
2849.144144	62780.322378
2850.460113	62818.110490
2851.772762	62846.311888
2853.086747	62895.731469
2854.400514	62928.347552
2855.714066	62964.101399
2857.025850	63026.588112
2858.335868	63060.302098
2859.647221	63111.419580
2860.955259	63180.755245
2862.264632	63251.353846
2863.573789	63332.316783
2864.882731	63389.458741
2866.189909	63447.381818
2867.495325	63507.506993
2868.802075	63545.485315
2870.107062	63568.420280
2871.411836	63594.418881
2872.714848	63664.539161
2874.020742	63669.782517
2875.321780	63722.094406
2876.624153	63747.247552
2877.924766	63765.232168
2879.226713	63778.646853
2880.528447	63770.063636
2881.826876	63776.579720
2883.126640	63773.621678
2884.424645	63743.633566
2885.722439	63730.852448
2887.018477	63746.802797
2888.315848	63771.701399
2889.611463	63786.914685
2890.906867	63832.696503
2892.202061	63838.693007
2893.493956	63877.386014
2894.788728	63892.812587
2896.080203	63905.422378
2897.373011	63907.198601
2898.665609	63879.622378
2899.954913	63875.051748
2901.245549	63892.823776
2902.534434	63896.165734
2903.824652	63928.093007
2905.111577	63953.492308
2906.399836	63967.921678
2907.686344	63982.147552
2908.972645	64024.579021
2910.258737	64023.263636
2911.543081	64032.477622
2912.830296	63998.043357
2914.112685	64002.371329
2915.396406	63997.232867
2916.678381	63997.545455
2917.960148	64004.732168
2919.240171	64017.770629
2920.523063	64003.074825
2921.804210	63984.142657
2923.082075	64006.192308
2924.362809	63991.875524
2925.640262	63956.509790
2926.917509	63952.693007
2928.193015	63935.294406
2929.471388	63944.530070
2930.744946	63941.295105
2932.021372	63948.950350
2933.296057	63962.806993
2934.569002	63967.348252
2935.843277	63970.551748
2937.115813	63973.970629
2938.388145	63988.838462
2939.657203	63961.548252
2940.929127	63928.345455
2942.199313	63908.996503
2943.469296	63887.295105
2944.739075	63898.737762
2946.007117	63914.006993
2947.273424	63932.446853
2948.539528	63933.555944
2949.806962	63956.824476
2951.072662	63950.146154
2952.338159	63974.302797
2953.603454	63955.339161
2954.865484	63943.318182
2956.128845	63914.030070
2957.392003	63897.512587
2958.653430	63885.724476
2959.916186	63908.079720
2961.177211	63917.485315
2962.436504	63924.981818
2963.695598	63924.872028
2964.954491	63928.213986
2966.213184	63916.680420
2967.471677	63951.794406
2968.728441	63932.109790
2969.985005	63962.395804
2971.239842	63977.695105
2972.496007	63999.592308
2973.748918	63994.616084
2975.003158	64037.183916
2976.257199	64042.362238
2977.509514	64054.430070
2978.761631	64081.951049
2980.012022	64094.556643
2981.265269	64116.162937
2982.513739	64149.838462
2983.765064	64166.796503
2985.013139	64199.683916
2986.261018	64216.389510
2987.508699	64229.119580
2988.756184	64228.911189
2990.001946	64240.940559
2991.247513	64240.405594
2992.494407	64248.941259
2993.738057	64258.055944
2994.983035	64273.532168
2996.224769	64276.716783
2997.469355	64291.190909
2998.712222	64314.683916
2999.951848	64321.751748
3001.194324	64340.502797
3002.433561	64340.623776
3003.674125	64361.481818
3004.912972	64372.733566
3006.151625	64388.689510
3007.388562	64389.136364
3008.626826	64390.596503
3009.863376	64405.302797
3011.099731	64413.551748
3012.335893	64425.173427
3013.570342	64440.418881
3014.804597	64440.165734
3016.038659	64448.404196
3017.271009	64464.213986
3018.501647	64480.403497
3019.735131	64480.377622
3020.966903	64479.547552
3022.196965	64481.311189
3023.426835	64483.284615
3024.654995	64492.046853
3025.884481	64498.219580
3027.112259	64502.424476
3028.339845	64504.272727
3029.568757	64509.506993
3030.792927	64522.257343
3032.019940	64538.331469
3033.243729	64528.754545
3034.468845	64526.762937
3035.692254	64528.922378
3036.915473	64533.152448
3038.136987	64537.053846
3039.361343	64542.034965
3040.580962	64548.262937
3041.801908	64549.300000
3043.022665	64552.751748
3044.241718	64558.916084
3045.462097	64567.411189
3046.679259	64573.636364
3047.897746	64574.397902
3049.114531	64578.702797
3050.331129	64584.659441
3051.547538	64587.903497
3052.760735	64588.192308
3053.976769	64588.578322
3055.189591	64583.050350
3056.405250	64578.321678
3057.616186	64576.952448
3058.828447	64576.572028
3060.040522	64578.580420
3061.252410	64581.976923
3062.462600	64581.341958
3063.672604	64582.390559
3064.882423	64586.484615
3066.090545	64587.047902
3067.298481	64584.295804
3068.504723	64584.451399
3069.712288	64582.376923
3070.918160	64585.241608
3072.123846	64584.475524
3073.329347	64584.073077
3074.533155	64584.304895
3075.738287	64585.324126
3076.941727	64581.362238
3078.143474	64580.575874
3079.345038	64580.108392
3080.546417	64579.170629
3081.747614	64577.060839
3082.947119	64579.578322
3084.146442	64577.832168
3085.347088	64578.746154
3086.546044	64575.941958
3087.741806	64575.787413
3088.940397	64574.769231
3090.135794	64574.755245
3091.332514	64574.418881
3092.526042	64576.912587
3093.722398	64578.884615
3094.917068	64582.537063
3096.108547	64584.611888
3097.304357	64586.662238
3098.495474	64585.667832
3099.687913	64586.330070
3100.877165	64585.331469
3102.069243	64586.537063
3103.259636	64584.290210
3104.446844	64582.556643
3105.635375	64581.487413
3106.825228	64581.018182
3108.011896	64581.653846
3109.198385	64581.426573
3110.384694	64579.201399
3111.572325	64579.853147
3112.756775	64580.384615
3113.939544	64582.158042
3115.125136	64583.719580
3116.309049	64584.832867
3117.491283	64581.955944
3118.673338	64582.286014
3119.855216	64582.374126
3121.036915	64583.423077
3122.216936	64583.509091
3123.395281	64582.072727
3124.576447	64580.306993
3125.754437	64580.716783
3126.932250	64581.635664
3128.109886	64582.488811
3129.285847	64580.316783
3130.461631	64579.243357
3131.638737	64578.887413
3132.814168	64581.116783
3133.987926	64582.684615
3135.160012	64582.656643
3136.333418	64580.795804
3137.506649	64580.562937
3138.678207	64580.274126
3139.851086	64579.841958
3141.020799	64579.245455
3142.191831	64576.841259
3143.361194	64575.445455
3144.528887	64576.209790
3145.699395	64576.983217
3146.865244	64579.485315
3148.035403	64580.144755
3149.200904	64579.746154
3150.366232	64579.924476
3151.531386	64579.118182
3152.696366	64580.244056
3153.862667	64578.618182
3155.024314	64577.292308
3156.187282	64578.360140
3157.350076	64577.503497
3158.512698	64579.725874
3159.673655	64579.802098
3160.834439	64580.751049
3161.995051	64578.719580
3163.154000	64578.876923
3164.312776	64578.423077
3165.471381	64578.187413
3166.629814	64578.970629
3167.788075	64579.811888
3168.944674	64580.367133
3170.099612	64581.134965
3171.255869	64581.513986
3172.410466	64582.467832
3173.564891	64581.091608
3174.717657	64580.320979
3175.870253	64578.004196
3177.022678	64577.639161
3178.174934	64576.613986
3179.327019	64578.535664
3180.475959	64578.606294
3181.627705	64582.537063
3182.777793	64582.537063
3183.926225	64582.731469
3185.074488	64583.083916
3186.222581	64583.165035
3187.370506	64583.976923
3188.516776	64583.241259
3189.662877	64584.273427
3190.807323	64582.739161
3191.951602	64579.927273
3193.095713	64580.734266
3194.241142	64578.635664
3195.383431	64579.283217
3196.525554	64579.188811
3197.667509	64579.937063
3198.809298	64581.118881
3199.950919	64583.179021
3201.089404	64582.879021
3202.229207	64582.529371
3203.370328	64582.693007
3204.508314	64579.450350
3205.644651	64577.171329
3206.780822	64577.234965
3207.918311	64573.090909
3209.054150	64573.653846
3210.191307	64575.276923
3211.323851	64577.409790
3212.460677	64581.761538
3213.592891	64584.333566
3214.726422	64585.291608
3215.859789	64584.041958
3216.990028	64583.371329
3218.123065	64582.567133
3219.252976	64582.069930
3220.384203	64580.132168
3221.512306	64578.123077
3222.643205	64577.494406
3223.772460	64576.095804
3224.900072	64577.661538
3226.024562	64580.037063
3227.153326	64580.960140
3228.278970	64582.021678
3229.404450	64581.623077
3230.528289	64580.067133
3231.654922	64580.582517
3232.776958	64577.967832
3233.900310	64578.386014
3235.023500	64579.418182
3236.146528	64580.250350
3237.267916	64579.781818
3238.389143	64581.308392
3239.508731	64583.462238
3240.628158	64584.294406
3241.745947	64582.765035
3242.866529	64583.366434
3243.983996	64581.556643
3245.101303	64580.786014
3246.218450	64578.571329
3247.333961	64578.750350
3248.450787	64577.206993
3249.564502	64577.605594
3250.681007	64577.373427
3251.795878	64580.183217
3252.907640	64581.788112
3254.019243	64580.310490
3255.132160	64581.453846
3256.244919	64581.268531
3257.354571	64580.070629
3258.465537	64578.296503
3259.576345	64578.249650
3260.685522	64579.724476
3261.793067	64575.527273
3262.901926	64571.223077
3264.010628	64570.904196
3265.116227	64573.031469
3266.223140	64573.887413
3267.328424	64573.260839
3268.435023	64574.642657
3269.538521	64572.362238
3270.643333	64572.751748
3271.747988	64574.533566
3272.849544	64577.832168
3273.950945	64582.178322
3275.053659	64577.214685
3276.156216	64576.695105
3277.255677	64578.676224
3278.357922	64581.495105
3279.457071	64582.111189
3280.554596	64580.100000
3281.651965	64581.428671
3282.752117	64582.497203
3283.849175	64580.513986
3284.946078	64580.943357
3286.042826	64581.004196
3287.135016	64582.433566
3288.231454	64579.527972
3289.326270	64579.813287
3290.420932	64580.825175
3291.513972	64582.176224
3292.606858	64580.820979
3293.698123	64580.736364
3294.790701	64581.979021
3295.881658	64583.222378
3296.970996	64581.622378
3298.060181	64583.563636
3299.150679	64583.485315
3300.238092	64583.700699
3301.325353	64583.476923
3302.413926	64585.196503
3303.502346	64585.814685
3304.586219	64583.655944
3305.674334	64580.713986
3306.759368	64582.061538
3307.842785	64582.039161
3308.927515	64582.430769
3310.010630	64580.886014
3311.095056	64582.881818
3312.176404	64581.591608
3313.259064	64582.953147
3314.340110	64584.443357
3315.421005	64585.574126
3316.500286	64583.719580
3317.579418	64583.088811
3318.659860	64582.605594
3319.737229	64584.320280
3320.815908	64584.392308
3321.892977	64584.425175
3322.969895	64584.401399
3324.045202	64586.269930
3325.120360	64586.131469
3326.196829	64588.014685
3327.270228	64589.645455
3328.343478	64590.577622
3329.418038	64591.239161
3330.490990	64592.100000
3331.562333	64590.600000
3332.634988	64590.136364
3333.704575	64589.428671
3334.775473	64588.569930
3335.844764	64584.503497
3336.915366	64584.130070
3337.984361	64580.976923
3339.051750	64579.737762
3340.117534	64581.089510
3341.187544	64577.824476
3342.254491	64576.995105
3343.318376	64576.788112
3344.385029	64576.723077
3345.450077	64579.113287
3346.513522	64581.998601
3347.576821	64584.462238
3348.639973	64585.258741
3349.702979	64590.582517
3350.765839	64588.393706
3351.827097	64588.822378
3352.885298	64588.365734
3353.947720	64583.416783
3355.007085	64581.514685
3356.066305	64579.873427
3357.126835	64579.211189
3358.182855	64579.388112
3359.241640	64580.476224
3360.295917	64584.520979
3361.352957	64586.760839
3362.408400	64589.649650
3363.465151	64588.816783
3364.520304	64589.476923
3365.573861	64589.569231
3366.625820	64590.413287
3367.680541	64589.344755
3368.732213	64587.809091
3369.783742	64587.486014
3370.836579	64585.472028
3371.886369	64585.116084
3372.937468	64588.197902
3373.985521	64586.588811
3375.036334	64584.366434
3376.084101	64583.110490
3377.131726	64581.863636
3378.179208	64581.925874
3379.225098	64581.209790
3380.272296	64578.706294
3381.316452	64577.842657
3382.363366	64578.664336
3383.408688	64581.803497
3384.450969	64582.753147
3385.493110	64587.255944
3386.536558	64588.336364
3387.579866	64588.766434
3388.621583	64590.295804
3389.663159	64591.862238
3390.704595	64590.873427
3391.744441	64591.880420
3392.782700	64588.495105
3393.822266	64587.784615
3394.861691	64586.470629
3395.899529	64587.170629
3396.935780	64583.948951
3397.971892	64585.097902
3399.009311	64584.635664
3400.043697	64584.911189
3401.079390	64585.262937
3402.114944	64585.632168
3403.147467	64586.390909
3404.182743	64588.755944
3405.214988	64586.222378
3406.247095	64587.316783
3407.277618	64585.981818
3408.309448	64586.489510
3409.341140	64583.269930
3410.369805	64583.425874
3411.398331	64581.960140
3412.428165	64583.332867
3413.457860	64582.666434
3414.484530	64582.174825
3415.512507	64584.354545
3416.537459	64584.986713
3417.565161	64585.980420
3418.589840	64588.289510
3419.615825	64587.964336
3420.640230	64588.375524
3421.664499	64586.213287
3422.687189	64588.123077
3423.709743	64585.679720
3424.733603	64586.876224
3425.754443	64584.668531
3426.775148	64584.034166
3427.797158	64583.376224
3428.816150	64582.630370
3429.835007	64581.732268
3430.855169	64580.617582
3431.872315	64579.221978
