-118.448435	90.500000
-115.778835	101.100000
-113.112170	100.700000
-110.446257	102.800000
-107.783276	95.800000
-105.118866	99.300000
-102.457386	100.500000
-99.794476	118.900000
-97.136674	109.100000
-94.477441	84.500000
-91.818958	96.400000
-89.163398	103.200000
-86.506410	116.200000
-83.854519	86.200000
-81.201199	111.000000
-78.550799	106.400000
-75.898969	121.900000
-73.252230	110.000000
-70.604061	118.900000
-67.956636	95.700000
-65.312124	114.800000
-62.666184	102.800000
-60.025325	111.400000
-57.383037	95.200000
-54.743657	102.200000
-52.102849	88.500000
-49.462781	92.600000
-46.827785	115.000000
-44.191360	112.800000
-41.557839	114.500000
-38.922889	103.100000
-36.293004	97.000000
-33.659527	112.400000
-31.031112	110.700000
-28.403430	113.200000
-25.774321	102.200000
-23.150268	110.500000
-20.522626	109.400000
-17.900037	102.800000
-15.278180	119.000000
-12.657053	157.800000
-10.036656	182.600000
-7.419147	373.100000
-4.800210	957.300000
-2.184159	2207.200000
0.431164	2410.600000
3.045760	1245.500000
5.657473	248.900000
8.270615	135.700000
10.878723	97.000000
13.490413	112.800000
16.097072	111.900000
18.705159	121.400000
21.312522	104.800000
23.914860	132.800000
26.520776	93.200000
29.121670	136.300000
31.723992	112.200000
34.321297	124.500000
36.922177	127.600000
39.518043	103.500000
42.115336	93.300000
44.711910	101.300000
47.303475	111.400000
49.896468	123.800000
52.486600	118.900000
55.078160	99.700000
57.666860	115.500000
60.256987	124.500000
62.842116	134.300000
65.428671	135.000000
68.014513	113.500000
70.597501	106.200000
73.181915	151.200000
75.759201	124.300000
78.340053	117.400000
80.918056	141.200000
83.495349	154.800000
86.074068	145.400000
88.647806	157.200000
91.222970	130.200000
93.795291	136.700000
96.366904	150.000000
98.935677	160.800000
101.505877	173.800000
104.073239	168.700000
106.642026	185.200000
109.207977	191.400000
111.771093	220.200000
114.337765	246.700000
116.895216	317.500000
119.458352	392.200000
122.016529	543.200000
124.578259	740.400000
127.135034	1065.400000
129.693234	1563.600000
132.246482	2343.100000
134.799031	3365.000000
137.355131	4765.700000
139.906284	6317.700000
142.456738	7966.900000
145.006496	9294.200000
147.553434	10390.500000
150.099676	10982.100000
152.647344	11390.300000
155.194317	11597.400000
157.736353	11635.800000
160.277696	11686.700000
162.818346	11687.500000
165.360422	11721.400000
167.899687	11743.800000
170.436142	11785.500000
172.971907	11719.400000
175.509097	11804.600000
178.045595	11738.200000
180.579288	11795.500000
183.110178	11734.100000
185.640379	11781.600000
188.172005	11842.000000
190.700830	11841.600000
193.226856	11946.000000
195.752197	11833.600000
198.278962	11833.400000
200.802930	11902.500000
203.326214	11870.100000
205.848813	11851.400000
208.368619	11864.000000
210.887742	11848.700000
213.406182	11925.000000
215.926046	11813.800000
218.438909	11860.200000
220.955303	11850.200000
223.471015	11935.200000
225.981838	11906.600000
228.494085	11985.900000
231.003549	11906.400000
233.512335	11856.600000
236.020443	11928.900000
238.529974	12009.600000
241.034625	11983.400000
243.538601	12031.400000
246.044000	12061.900000
248.544524	12135.700000
251.048571	12055.200000
253.545648	12037.900000
256.046247	12092.300000
258.544075	12079.600000
261.041230	12038.600000
263.537712	12017.800000
266.029331	11969.800000
268.524470	12050.100000
271.016843	11982.800000
273.508545	12016.000000
275.997483	12001.200000
278.487846	12031.300000
280.975447	11881.000000
283.460288	11889.600000
285.948643	12037.800000
288.430059	11891.300000
290.914989	11899.200000
293.395074	11930.500000
295.878671	11906.200000
298.357425	12022.800000
300.837603	11999.500000
303.315028	11989.400000
305.791790	11909.400000
308.267889	11943.100000
310.741239	11974.200000
313.213927	12046.900000
315.685954	12014.700000
318.157320	12115.800000
320.625942	12070.600000
323.093904	12272.600000
325.563289	12146.000000
328.027850	12146.300000
330.495916	12230.300000
332.959162	12212.000000
335.421750	12199.000000
337.883682	12097.700000
340.344957	12282.300000
342.803498	12229.000000
345.263461	12070.800000
347.720691	12091.000000
350.177267	12138.900000
352.633189	12075.900000
355.086382	12056.000000
357.540996	12122.700000
359.990809	12113.000000
362.444119	11987.700000
364.892629	11976.600000
367.340489	11952.200000
369.789770	12040.000000
372.234258	11947.300000
374.680168	11922.300000
377.125429	11873.400000
379.567970	11937.800000
382.009864	11904.400000
384.451111	11972.100000
386.889642	11938.500000
389.329595	11913.500000
391.766834	11923.500000
394.201361	11859.500000
396.639376	11941.100000
399.072614	11947.900000
401.507274	11937.800000
403.937160	11884.500000
406.370532	11973.400000
408.799134	11960.600000
411.227095	11890.700000
413.656476	12017.500000
416.081092	11969.600000
418.507130	11976.300000
420.932527	12006.300000
423.357284	12052.700000
425.777283	12034.400000
428.198703	12134.300000
430.617426	12104.700000
433.037570	12165.500000
435.455019	12098.600000
437.873888	12113.500000
440.290064	12185.000000
442.701493	12148.900000
445.116398	12216.100000
447.528613	12114.200000
449.940194	12233.100000
452.351141	12290.200000
454.759402	12269.600000
457.167030	12192.400000
459.574027	12333.800000
461.980391	12170.600000
464.384073	12238.900000
466.787125	12206.900000
469.189547	12321.700000
471.591340	12337.600000
473.990454	12162.500000
476.390988	12149.300000
478.790893	12275.800000
481.186075	12206.400000
483.584724	12293.300000
485.978653	12226.500000
488.371956	12236.800000
490.764633	12161.000000
493.156685	12198.000000
495.550156	12100.700000
497.938914	12165.900000
500.325006	12212.800000
502.712518	12090.900000
505.099406	12125.900000
507.483631	12078.100000
509.869275	12133.700000
512.252256	12057.100000
514.632577	12136.200000
517.014317	12206.200000
519.393398	12188.300000
521.773898	12222.200000
524.151740	12227.500000
526.526927	12253.300000
528.901496	12246.000000
531.277484	12250.900000
533.650818	12295.300000
536.025570	12179.900000
538.395637	12208.500000
540.765088	12242.100000
543.135957	12368.900000
545.502146	12239.000000
547.869753	12306.300000
550.234714	12228.800000
552.599062	12287.800000
554.962798	12261.100000
557.327951	12391.400000
559.688431	12273.000000
562.050330	12373.000000
564.409589	12261.700000
566.766209	12348.900000
569.126274	12359.400000
571.479649	12297.200000
573.836468	12317.300000
576.190651	12351.100000
578.544227	12311.900000
580.897194	12272.400000
583.247530	12306.700000
585.599282	12260.400000
587.944358	12257.200000
590.294898	12257.400000
592.638765	12222.700000
594.988092	12308.800000
597.332772	12256.600000
599.674826	12341.800000
602.018298	12184.800000
604.359147	12319.000000
606.699394	12216.900000
609.037020	12270.400000
611.378081	12159.900000
613.714504	12184.900000
616.052345	12240.400000
618.387567	12184.900000
620.720174	12210.100000
623.054197	12258.900000
625.385607	12204.500000
627.716418	12224.500000
630.046631	12168.000000
632.376246	12219.700000
634.701239	12259.100000
637.031673	12288.900000
639.357485	12275.500000
641.680691	12339.100000
644.005312	12304.600000
646.327329	12299.000000
648.648751	12311.900000
650.967570	12386.500000
653.287805	12427.100000
655.607447	12344.200000
657.924488	12412.000000
660.240937	12391.800000
662.554788	12356.600000
664.870055	12469.400000
667.182725	12482.100000
669.496810	12375.600000
671.806295	12475.500000
674.117196	12470.300000
676.425504	12476.300000
678.733224	12504.000000
681.042359	12541.600000
683.346901	12499.800000
685.650856	12395.900000
687.954226	12445.700000
690.259010	12465.700000
692.559208	12358.800000
694.860820	12388.400000
697.161848	12354.100000
699.458293	12394.300000
701.756154	12486.700000
704.053431	12378.400000
706.350125	12365.700000
708.642243	12378.600000
710.937772	12318.900000
713.228728	12461.500000
715.521098	12439.800000
717.810892	12395.200000
720.100107	12489.600000
722.388741	12462.200000
724.674804	12471.600000
726.962280	12588.000000
729.247186	12454.100000
731.531513	12500.400000
733.813272	12534.300000
736.096445	12402.000000
738.379041	12534.100000
740.657082	12553.600000
742.936536	12598.300000
745.215415	12652.800000
747.493718	12626.800000
749.767472	12668.000000
752.042640	12537.500000
754.317234	12737.200000
756.589268	12682.400000
758.862716	12654.400000
761.133606	12670.900000
763.401940	12673.100000
765.671687	12668.200000
767.938880	12580.600000
770.205502	12683.900000
772.471555	12685.500000
774.735055	12637.200000
776.999969	12591.100000
779.264313	12688.300000
781.524128	12726.500000
783.785356	12611.300000
786.046015	12671.400000
788.304129	12682.900000
790.559698	12746.400000
792.818658	12719.300000
795.071119	12728.000000
797.328947	12765.600000
799.582255	12685.200000
801.833024	12717.900000
804.085205	12644.100000
806.334848	12733.800000
808.585902	12675.400000
810.832445	12731.500000
813.080400	12696.200000
815.325821	12783.600000
817.572653	12625.000000
819.818924	12648.000000
822.060691	12714.000000
824.305840	12666.000000
826.544517	12739.900000
828.786577	12736.200000
831.024138	12705.800000
833.263110	12767.600000
835.499556	12704.400000
837.737413	12684.800000
839.972745	12652.200000
842.205554	12854.500000
844.439774	12818.400000
846.671472	12749.200000
848.902615	12724.000000
851.133203	12750.100000
853.363236	12784.600000
855.592716	12870.600000
857.817714	12880.200000
860.046087	12830.000000
862.269981	12865.700000
864.495285	12815.600000
866.716114	12952.600000
868.940315	12864.000000
871.160043	12832.300000
873.381182	12934.000000
875.601770	12940.200000
877.819848	13024.600000
880.039337	12957.500000
882.254359	12879.300000
884.468833	12929.900000
886.682760	12974.800000
888.896139	13017.500000
891.108971	12882.100000
893.321257	12895.500000
895.531040	12968.600000
897.740278	12963.400000
899.948971	12966.100000
902.155165	12984.700000
904.362768	12974.400000
906.567874	12901.200000
908.772436	12970.600000
910.974502	13026.200000
913.177978	13017.000000
915.378960	13090.500000
917.579401	13074.700000
919.781249	13047.800000
921.976707	13098.400000
924.175524	13131.900000
926.369902	13142.300000
928.567638	13127.400000
930.760938	13133.900000
932.955647	13204.200000
935.147870	13190.500000
937.339555	13225.500000
939.530702	13214.600000
941.719366	13333.200000
943.907493	13309.300000
946.093140	13261.800000
948.282139	13320.600000
950.466715	13386.400000
952.650756	13476.200000
954.838147	13362.600000
957.017234	13627.500000
959.199672	13519.500000
961.381576	13578.800000
963.561006	13695.800000
965.737963	13608.700000
967.916327	13773.300000
970.096099	13666.100000
972.269522	13593.900000
974.446291	13636.900000
976.618653	13746.500000
978.792423	13728.600000
980.961789	13679.000000
983.134500	13815.900000
985.304744	13780.900000
987.474460	13740.600000
989.643647	13742.000000
991.808437	13760.600000
993.976568	13882.300000
996.140305	13832.000000
998.305448	13810.600000
1000.468133	13970.600000
1002.630291	13794.700000
1004.789993	13993.700000
1006.949171	13925.600000
1009.109755	13995.600000
1011.267884	13909.400000
1013.425489	13943.400000
1015.582571	13817.800000
1017.739130	13851.300000
1019.891309	13886.900000
1022.044894	13815.600000
1024.197958	13974.100000
1026.348574	13915.500000
1028.500595	13958.000000
1030.648243	14062.600000
1032.799223	13918.400000
1034.945832	13925.600000
1037.091923	13923.800000
1039.237494	13975.100000
1041.384471	13950.200000
1043.525159	13993.800000
1045.669177	13842.500000
1047.810754	13837.100000
1049.951815	13856.800000
1052.094280	13876.900000
1054.230466	13916.700000
1056.369978	13802.500000
1058.505134	13834.800000
1060.643615	13905.400000
1062.777742	13680.100000
1064.911356	13781.300000
1067.046375	13657.200000
1069.177044	13816.800000
1071.309118	13853.300000
1073.438763	13708.600000
1075.567896	13761.100000
1077.696517	13705.100000
1079.824627	13748.400000
1081.950311	13779.000000
1084.075485	13806.300000
1086.202063	13754.300000
1088.324304	13779.300000
1090.447948	13839.000000
1092.567259	13812.300000
1094.691798	13702.900000
1096.810092	13733.700000
1098.929791	13778.200000
1101.047071	13897.100000
1103.163845	13817.100000
1105.280112	13792.200000
1107.393964	13843.100000
1109.509219	13820.900000
1111.620152	13899.900000
1113.734396	13835.900000
1115.844320	13827.700000
1117.955648	13789.500000
1120.066471	13903.200000
1122.172979	13805.600000
1124.282795	13903.600000
1126.388297	13999.700000
1128.495202	13967.700000
1130.595892	13939.100000
1132.701794	13902.900000
1134.803387	13962.400000
1136.906383	14015.300000
1139.008878	13942.700000
1141.105166	13944.000000
1143.206662	13900.600000
1145.303855	14041.100000
1147.400549	13951.900000
1149.496745	14010.200000
1151.592444	13991.100000
1153.687645	14050.800000
1155.780449	13976.300000
1157.874655	14124.500000
1159.962670	14131.100000
1162.055883	14132.600000
1164.142908	14135.700000
1166.233232	14162.900000
1168.319269	14130.200000
1170.408603	14209.500000
1172.491756	14135.200000
1174.576311	14232.700000
1176.662268	14202.000000
1178.743943	14232.000000
1180.827020	14200.000000
1182.907711	14246.200000
1184.987910	14228.700000
1187.067618	14273.600000
1189.146835	14370.000000
1191.223670	14309.800000
1193.298124	14391.200000
1195.375870	14424.000000
1197.449345	14316.700000
1199.524221	14486.500000
1201.594830	14459.200000
1203.666841	14448.800000
1205.736475	14546.400000
1207.807510	14535.900000
1209.878057	14549.900000
1211.944343	14565.200000
1214.012030	14633.300000
1216.077345	14602.000000
1218.144060	14648.400000
1220.206519	14743.500000
1222.272263	14799.200000
1224.333754	14821.200000
1226.396644	14882.800000
1228.457167	14825.000000
1230.517206	14803.400000
1232.576763	14825.600000
1234.633954	14917.700000
1236.690664	14992.700000
1238.745011	14984.100000
1240.802638	14920.000000
1242.857903	15140.000000
1244.908927	15126.300000
1246.961351	15170.700000
1249.013295	15165.900000
1251.062881	15202.600000
1253.111988	15246.100000
1255.160617	15356.600000
1257.208767	15349.600000
1259.256439	15370.700000
1261.299880	15410.900000
1263.346596	15435.300000
1265.390959	15345.600000
1267.434846	15510.500000
1269.476382	15602.000000
1271.515567	15494.200000
1273.558026	15651.600000
1275.596262	15777.500000
1277.635897	15883.200000
1279.675057	15837.600000
1281.709998	15960.700000
1283.746339	16036.800000
1285.780334	16315.300000
1287.815728	16456.600000
1289.846908	16628.000000
1291.879487	16722.800000
1293.911593	17037.100000
1295.941359	17365.000000
1297.972523	17720.000000
1299.999479	18106.600000
1302.027833	18573.800000
1304.051983	19171.100000
1306.079397	19756.500000
1308.102609	20654.000000
1310.127219	21854.700000
1312.149495	23342.300000
1314.173168	25566.900000
1316.194508	28783.100000
1318.215380	34217.500000
1320.235786	43127.600000
1322.251997	58424.000000
1324.269606	64583.300000
1326.284888	64587.400000
1328.303427	64574.500000
1330.317778	64574.700000
1332.329803	64561.000000
1334.345085	64573.900000
1336.356182	64576.900000
1338.368676	64564.700000
1340.376987	53351.900000
1342.388554	37003.400000
1344.394081	29210.800000
1346.402864	25089.800000
1348.407469	22641.000000
1350.415328	21034.100000
1352.422725	19995.100000
1354.424091	18904.000000
1356.426854	18227.700000
1358.429156	17883.300000
1360.430999	17554.900000
1362.432382	17308.000000
1364.431452	17053.400000
1366.430063	16963.100000
1368.428216	16825.100000
1370.425911	16640.600000
1372.419442	16623.000000
1374.414370	16468.400000
1376.408841	16387.500000
1378.402855	16393.300000
1380.394561	16351.600000
1382.385813	16375.100000
1384.374759	16199.000000
1386.365100	16177.200000
1388.354986	16072.800000
1390.342569	16176.500000
1392.329697	16187.700000
1394.314525	16244.100000
1396.300746	16123.200000
1398.284668	16223.400000
1400.268137	16337.100000
1402.251154	16259.000000
1404.231872	16336.200000
1406.213986	16339.900000
1408.193802	16431.200000
1410.173168	16320.400000
1412.148394	16516.400000
1414.126860	16407.400000
1416.103031	16433.000000
1418.078754	16492.100000
1420.054027	16529.600000
1422.027009	16477.300000
1423.999543	16734.700000
1425.971630	16644.000000
1427.943268	16731.600000
1429.910778	16711.000000
1431.883363	16824.800000
1433.848141	16780.300000
1435.817991	16788.000000
1437.783718	16818.300000
1439.750837	16966.400000
1441.715673	16913.100000
1443.676390	16904.300000
1445.642174	17000.200000
1447.602003	16915.900000
1449.563225	16977.600000
1451.525840	16931.100000
1453.484340	16894.800000
1455.442398	16981.000000
1457.400013	17014.200000
1459.357187	16879.300000
1461.312085	16917.700000
1463.268375	16962.700000
1465.222391	16934.300000
1467.175967	16942.500000
1469.127270	16944.800000
1471.079965	16944.800000
1473.030389	16795.900000
1474.980373	16740.300000
1476.929919	16784.500000
1478.877196	16854.700000
1480.822206	16815.900000
1482.768607	16806.800000
1484.714572	16736.100000
1486.660098	16855.700000
1488.603360	16770.200000
1490.546185	16941.900000
1492.486747	16807.500000
1494.428700	16951.600000
1496.368392	17079.300000
1498.307648	17232.900000
1500.246469	17476.700000
1502.183031	17427.600000
1504.120984	17466.500000
1506.056679	17190.800000
1507.991939	17141.800000
1509.924944	17027.300000
1511.857516	17111.300000
1513.789656	17149.600000
1515.721364	17192.400000
1517.650818	17252.800000
1519.581663	17169.700000
1521.512077	17163.300000
1523.438417	17250.000000
1525.366149	17271.200000
1527.291630	17304.000000
1529.216682	17192.100000
1531.141305	17253.800000
1533.065499	17312.100000
1534.987446	17330.800000
1536.910782	17325.900000
1538.831873	17386.600000
1540.750719	17445.300000
1542.670955	17522.300000
1544.588947	17358.800000
1546.506513	17428.400000
1548.421837	17527.600000
1550.338551	17528.800000
1552.251210	17448.100000
1554.167073	17396.300000
1556.080696	17454.900000
1557.992082	17451.500000
1559.904856	17305.000000
1561.813581	17441.100000
1563.723696	17508.800000
1565.633387	17350.400000
1567.542654	17469.400000
1569.449688	17424.700000
1571.354489	17365.400000
1573.260679	17418.600000
1575.164637	17390.400000
1577.068175	17369.900000
1578.971291	17370.600000
1580.872179	17530.900000
1582.774454	17411.200000
1584.674502	17373.200000
1586.575937	17446.300000
1588.473339	17253.300000
1590.370322	17368.400000
1592.266887	17244.000000
1594.164840	17329.400000
1596.056958	17362.100000
1597.952269	17327.600000
1599.847163	17451.600000
1601.739835	17384.800000
1603.632091	17447.600000
1605.522126	17327.800000
1607.411747	17420.400000
1609.300951	17351.000000
1611.189741	17399.900000
1613.076314	17492.100000
1614.964273	17513.800000
1616.848216	17470.200000
1618.733547	17618.100000
1620.618463	17611.500000
1622.501166	17496.100000
1624.385256	17480.400000
1626.265335	17638.400000
1628.146800	17678.300000
1630.026055	17507.500000
1631.906696	17553.700000
1633.781533	17657.100000
1635.661352	17653.400000
1637.537165	17574.700000
1639.412568	17611.700000
1641.289358	17573.800000
1643.160350	17692.200000
1645.034524	17647.200000
1646.904700	17724.300000
1648.778056	17634.800000
1650.649209	17567.300000
1652.518160	17723.100000
1654.388497	17647.200000
1656.254840	17611.600000
1658.122569	17647.000000
1659.988100	17638.200000
1661.855015	17648.000000
1663.717942	17631.100000
1665.582254	17449.200000
1667.444370	17653.500000
1669.306082	17578.900000
1671.169178	17553.500000
1673.030080	17638.800000
1674.888788	17623.200000
1676.747093	17490.600000
1678.606783	17677.600000
1680.460706	17462.300000
1682.317801	17633.600000
1684.174494	17582.200000
1686.027211	17655.100000
1687.883098	17607.400000
1689.735012	17628.200000
1691.586525	17644.400000
1693.437637	17598.400000
1695.288349	17523.700000
1697.138660	17628.300000
1698.986787	17695.600000
1700.836297	17526.600000
1702.680059	17504.900000
1704.528770	17602.300000
1706.371736	17476.900000
1708.217867	17560.500000
1710.060037	17438.300000
1711.905371	17531.500000
1713.744965	17603.000000
1715.585943	17551.300000
1717.428304	17760.200000
1719.266709	17513.000000
1721.106497	17635.000000
1722.944110	17593.200000
1724.781327	17617.500000
1726.616371	17633.400000
1728.452798	17742.300000
1730.287053	17576.800000
1732.120913	17498.200000
1733.954380	17634.600000
1735.783900	17555.600000
1737.616579	17636.700000
1739.445314	17611.900000
1741.277207	17545.700000
1743.105157	17651.100000
1744.932715	17527.900000
1746.759881	17616.600000
1748.586656	17756.600000
1750.413040	17589.100000
1752.235487	17741.000000
1754.061088	17723.400000
1755.882755	17717.200000
1757.705804	17625.800000
1759.526692	17654.200000
1761.347190	17705.800000
1763.169070	17715.200000
1764.985250	17767.000000
1766.804582	17820.800000
1768.619987	17752.400000
1770.438542	17861.700000
1772.253172	17903.900000
1774.067416	17866.100000
1775.881272	17792.500000
1777.694742	17943.300000
1779.506059	17898.600000
1781.318757	17960.100000
1783.131068	18066.900000
1784.939462	17951.800000
1786.749237	17968.600000
1788.555096	18107.500000
1790.364101	18054.700000
1792.169193	18193.000000
1793.975666	18093.900000
1795.781755	18121.900000
1797.583934	18131.500000
1799.389256	18212.800000
1801.190670	18232.900000
1802.993464	18255.800000
1804.792352	18258.100000
1806.592621	18401.600000
1808.392508	18233.100000
1810.190254	18412.100000
1811.987618	18373.800000
1813.784603	18392.100000
1815.581207	18297.500000
1817.375672	18331.000000
1819.171516	18427.800000
1820.961706	18423.400000
1822.756792	18489.100000
1824.546225	18509.000000
1826.338795	18534.400000
1828.129230	18548.800000
1829.917531	18530.600000
1831.708967	18640.200000
1833.494757	18578.300000
1835.281927	18639.600000
1837.066965	18663.800000
1838.855137	18639.300000
1840.639423	18711.900000
1842.421580	18857.500000
1844.205115	18761.600000
1845.986522	18755.500000
1847.769308	18932.000000
1849.548214	18895.200000
1851.328498	18944.100000
1853.106656	18866.400000
1854.886193	18884.300000
1856.663605	18965.200000
1858.438893	18945.200000
1860.215560	19107.700000
1861.990103	19121.600000
1863.766025	19055.000000
1865.536326	19204.100000
1867.309755	19248.300000
1869.081064	19269.300000
1870.852003	19359.000000
1872.624318	19385.000000
1874.391020	19526.800000
1876.160848	19470.500000
1877.926812	19537.800000
1879.695900	19557.800000
1881.461126	19480.700000
1883.225983	19633.000000
1884.992218	19739.400000
1886.754594	19781.600000
1888.516603	19588.600000
1890.278244	19809.100000
1892.039519	19655.400000
1893.800426	19801.800000
1895.560967	19682.100000
1897.319398	19871.900000
1899.077464	19701.000000
1900.833421	19825.700000
1902.590756	19936.000000
1904.347724	19839.700000
1906.102587	19868.900000
1907.855344	19887.400000
1909.607738	20009.500000
1911.361507	20001.600000
1913.113173	20037.300000
1914.862737	20126.000000
1916.613677	19969.000000
1918.364253	20106.100000
1920.110990	20212.000000
1921.859104	20301.300000
1923.605118	20312.800000
1925.352508	20434.600000
1927.097799	20297.000000
1928.840993	20462.600000
1930.585563	20436.600000
1932.328036	20515.100000
1934.070149	20449.400000
1935.811902	20618.200000
1937.553296	20714.200000
1939.292596	20762.100000
1941.031536	20734.300000
1942.770119	20883.600000
1944.506609	20897.600000
1946.242742	20979.200000
1947.980249	21060.800000
1949.713934	21241.000000
1951.448994	21114.500000
1953.181966	21248.400000
1954.914581	21306.400000
1956.646839	21304.900000
1958.378741	21528.600000
1960.108557	21593.000000
1961.836289	21463.700000
1963.565394	21590.500000
1965.294145	21743.300000
1967.020812	21757.900000
1968.747125	21756.200000
1970.474811	21830.600000
1972.196961	21853.000000
1973.922212	21862.500000
1975.643657	22095.500000
1977.368201	22174.600000
1979.090666	22234.500000
1980.809327	22299.900000
1982.531087	22360.300000
1984.249045	22398.900000
1985.968376	22469.200000
1987.683908	22556.300000
1989.404261	22634.800000
1991.120814	22623.100000
1992.833571	22755.200000
1994.549425	22721.900000
1996.263205	22650.600000
1997.976636	23013.700000
1999.687996	22968.400000
2001.400729	22990.800000
2003.109670	23009.900000
2004.821705	23254.500000
2006.528230	23255.500000
2008.237848	23320.800000
2009.945398	23371.100000
2011.652601	23541.000000
2013.357738	23423.100000
2015.062528	23557.100000
2016.768690	23484.400000
2018.471070	23695.300000
2020.174822	23720.900000
2021.876510	23685.300000
2023.577854	23951.900000
2025.278852	23821.700000
2026.977790	23877.900000
2028.678098	23919.600000
2030.374632	23877.100000
2032.072537	24075.800000
2033.768383	24029.700000
2035.467315	24230.000000
2037.160761	24230.900000
2038.855579	24262.300000
2040.550053	24381.600000
2042.240759	24311.400000
2043.934549	24420.700000
2045.624572	24359.800000
2047.315966	24291.000000
2049.005307	24597.400000
2050.696018	24403.300000
2052.382966	24546.900000
2054.069575	24591.400000
2055.757554	24488.100000
2057.441773	24522.000000
2059.127362	24500.000000
2060.812612	24651.800000
2062.495814	24417.900000
2064.180385	24747.000000
2065.859494	24528.000000
2067.543388	24640.200000
2069.221822	24526.600000
2070.903332	24649.100000
2072.581092	24762.000000
2074.258514	24824.500000
2075.937306	24886.100000
2077.614056	24868.400000
2079.288764	24909.800000
2080.964841	24981.800000
2082.638878	25000.900000
2084.312579	25072.600000
2085.985945	25012.600000
2087.657273	25007.100000
2089.328266	25131.600000
2090.998925	25195.400000
2092.669249	25176.100000
2094.339240	25303.900000
2096.007195	25277.700000
2097.674817	25356.900000
2099.340404	25249.600000
2101.007361	25553.000000
2102.672283	25488.300000
2104.336874	25787.100000
2105.999433	25802.300000
2107.663360	26072.900000
2109.325257	25915.700000
2110.986822	26225.300000
2112.648056	26079.700000
2114.307262	26168.600000
2115.966137	26494.800000
2117.624683	26451.500000
2119.282899	26488.000000
2120.937391	26446.600000
2122.594948	26577.700000
2124.252176	26650.400000
2125.905682	26659.900000
2127.560556	26666.200000
2129.211712	26819.300000
2130.865929	26845.500000
2132.516430	26803.600000
2134.168297	26879.600000
2135.814756	26737.200000
2137.465970	26909.300000
2139.113470	27190.300000
2140.762337	27253.100000
2142.409186	27163.600000
2144.055708	27347.200000
2145.701905	27501.900000
2147.344394	27362.000000
2148.989941	27434.100000
2150.631781	27515.700000
2152.276678	27662.000000
2153.917870	27614.000000
2155.558738	27668.900000
2157.199282	27596.200000
2158.837814	27543.300000
2160.477712	27768.400000
2162.113910	27727.200000
2163.751475	27693.100000
2165.388716	27918.200000
2167.023948	27818.200000
2168.658859	27985.300000
2170.293448	27992.100000
2171.927715	28139.600000
2173.558289	28080.500000
2175.191915	28088.400000
2176.821849	28202.100000
2178.453148	28100.000000
2180.082442	28314.900000
2181.711417	28355.900000
2183.340073	28191.800000
2184.968409	28317.600000
2186.594742	28267.400000
2188.220757	28176.100000
2189.844771	28217.300000
2191.470149	28342.900000
2193.093528	28179.200000
2194.718270	28306.000000
2196.339332	28288.300000
2197.960077	28318.100000
2199.582187	28157.200000
2201.202299	28415.900000
2202.820414	28277.600000
2204.438214	28346.300000
2206.055699	28206.100000
2207.672868	28546.100000
2209.289722	28465.800000
2210.906261	28580.400000
2212.520806	28728.300000
2214.133359	28710.400000
2215.747276	28804.300000
2217.359202	28818.700000
2218.972491	28716.000000
2220.583790	28893.200000
2222.193099	28949.500000
2223.803772	29216.000000
2225.412456	29258.300000
2227.020828	29308.800000
2228.627212	29293.500000
2230.234960	29355.600000
2231.840721	29425.200000
2233.446171	29465.200000
2235.049636	29637.800000
2236.654464	29596.500000
2238.257309	29783.300000
2239.858170	29885.800000
2241.460393	29857.000000
2243.060635	30112.800000
2244.662239	30193.700000
2246.260191	30184.200000
2247.859505	30233.600000
2249.456839	30579.100000
2251.053864	30287.500000
2252.652252	30531.300000
2254.246991	30642.800000
2255.839753	30841.600000
2257.433878	30669.800000
2259.029364	30995.500000
2260.621206	30834.700000
2262.212741	30845.600000
2263.805637	30862.300000
2265.393224	30945.200000
2266.985508	30984.000000
2268.572484	31161.800000
2270.162489	31119.400000
2271.747189	31003.000000
2273.336583	31059.900000
2274.920674	30899.300000
2276.506127	30996.100000
2278.089610	31059.600000
2279.676120	30987.500000
2281.258996	30882.900000
2282.841568	30899.000000
2284.423837	31211.700000
2286.002477	31332.900000
2287.584140	31015.400000
2289.162175	31254.300000
2290.743233	31233.800000
2292.320665	31167.100000
2293.896132	31100.400000
2295.474622	31106.500000
2297.049488	31369.100000
2298.624053	31348.600000
2300.198318	31223.000000
2301.772282	31319.000000
2303.345946	31388.000000
2304.919309	31351.800000
2306.489054	31153.500000
2308.058500	31381.300000
2309.630965	31480.400000
2311.198154	31534.900000
2312.768362	31457.200000
2314.334955	31769.800000
2315.902908	31746.700000
2317.468905	31849.200000
2319.034605	31791.900000
2320.600008	32196.600000
2322.163456	31970.100000
2323.728264	32232.600000
2325.289464	32432.000000
2326.853678	32283.500000
2328.412631	32523.000000
2329.974597	32612.300000
2331.534613	32582.100000
2333.094333	32563.400000
2334.652104	32849.200000
2336.209580	32791.700000
2337.766762	32900.300000
2339.321997	32829.800000
2340.876937	32953.200000
2342.431584	33075.900000
2343.985937	33240.500000
2345.539996	33293.000000
2347.093761	33485.400000
2348.645583	33335.400000
2350.195461	33413.100000
2351.748347	33614.000000
2353.295991	33580.600000
2354.846642	33589.700000
2356.393702	33701.000000
2357.942121	33661.700000
2359.490247	33830.500000
2361.034785	33834.000000
2362.580681	33851.700000
2364.124639	34032.700000
2365.669954	33966.100000
2367.211684	34070.000000
2368.754771	34286.200000
2370.295923	34247.400000
2371.836785	34330.600000
2373.377358	34526.800000
2374.917641	34634.600000
2376.457636	34597.600000
2377.994053	34786.400000
2379.533471	34723.200000
2381.069312	34983.400000
2382.606509	34748.100000
2384.140131	34971.600000
2385.676754	35216.600000
2387.211445	35141.100000
2388.744207	35168.200000
2390.276682	35337.700000
2391.807230	35427.500000
2393.340775	35737.700000
2394.869109	35831.800000
2396.398799	35745.500000
2397.928204	35980.400000
2399.457323	35775.200000
2400.986158	36067.100000
2402.509787	36280.000000
2404.038053	36474.300000
2405.561115	36440.300000
2407.088811	36666.600000
2408.609668	36596.300000
2410.135158	37063.600000
2411.657087	36986.300000
2413.180372	37193.600000
2414.701736	37316.900000
2416.221180	37352.300000
2417.741979	37626.700000
2419.260859	37675.800000
2420.779457	37630.900000
2422.296138	37672.600000
2423.814173	37831.000000
2425.331927	37869.800000
2426.846130	38134.400000
2428.360052	38004.300000
2429.873694	38460.100000
2431.388691	38444.900000
2432.900139	38607.300000
2434.412942	38877.800000
2435.923832	39031.900000
2437.434442	38812.700000
2438.943141	39157.900000
2440.454827	39165.400000
2441.962968	39248.100000
2443.470832	39361.300000
2444.978418	39505.000000
2446.482463	39833.300000
2447.989494	39831.400000
2449.494616	40193.600000
2450.999461	40488.400000
2452.502399	40715.700000
2454.005060	40504.300000
2455.507445	40884.900000
2457.007925	40913.100000
2458.509758	40900.700000
2460.009687	41067.500000
2461.509340	41022.700000
2463.008717	41290.800000
2464.506192	41614.900000
2466.001765	41603.100000
2467.500319	41682.700000
2468.995343	41765.500000
2470.491721	41920.400000
2471.984571	42122.400000
2473.478775	42218.100000
2474.972705	42291.500000
2476.463112	42356.400000
2477.956495	42859.100000
2479.447981	42625.400000
2480.937570	43030.200000
2482.426887	42855.600000
2483.914309	43173.000000
2485.404706	43294.300000
2486.891584	43464.000000
2488.379814	43451.900000
2489.864528	43651.900000
2491.348971	43664.000000
2492.834766	43734.300000
2494.318668	43804.000000
2495.803922	43873.000000
2497.284042	43872.600000
2498.767134	43925.500000
2500.248336	43914.500000
2501.729269	44142.700000
2503.208313	43861.900000
2504.687088	43691.400000
2506.165595	43608.200000
2507.643834	43556.000000
2509.121804	43728.000000
2510.596270	43402.900000
2512.073704	43060.900000
2513.547635	43226.300000
2515.022916	43186.300000
2516.497931	43058.500000
2517.969444	42920.900000
2519.442307	43113.300000
2520.913288	42790.100000
2522.385619	42601.500000
2523.852837	42715.800000
2525.323020	42473.500000
2526.791323	42303.700000
2528.259361	42477.100000
2529.727134	42332.500000
2531.194642	42193.200000
2532.661885	42296.700000
2534.125636	42405.600000
2535.590737	42355.000000
2537.053961	42466.800000
2538.518535	42324.700000
2539.979619	42447.200000
2541.442053	42311.400000
2542.904224	42497.400000
2544.362909	42748.700000
2545.826166	42706.200000
2547.284326	42792.800000
2548.743835	42744.500000
2550.198251	42403.200000
2551.657236	42706.300000
2553.114350	42540.800000
2554.569593	42622.500000
2556.024575	42577.900000
2557.477687	42622.700000
2558.932148	42444.600000
2560.384740	42629.000000
2561.837072	42668.800000
2563.287536	42693.000000
2564.740956	43046.400000
2566.189294	42649.600000
2567.640588	42963.800000
2569.090015	43057.200000
2570.535970	43222.700000
2571.984881	43110.300000
2573.430320	43310.400000
2574.877108	43391.400000
2576.322032	43101.500000
2577.766699	43671.500000
2579.212713	43336.400000
2580.655260	43515.100000
2582.099155	43363.400000
2583.539585	43610.400000
2584.981362	43539.500000
2586.421280	43714.400000
2587.862545	43453.600000
2589.300349	43762.400000
2590.741102	43978.100000
2592.176792	43709.200000
2593.615432	44045.700000
2595.052215	44311.900000
2596.487141	44320.800000
2597.925016	44011.700000
2599.357832	44736.200000
2600.791996	44353.900000
2602.224306	44607.100000
2603.657962	44549.600000
2605.089765	44479.800000
2606.521315	44715.000000
2607.952611	44461.800000
2609.382055	44992.000000
2610.811248	44654.800000
2612.238589	45011.900000
2613.667277	44950.500000
2615.095712	45156.700000
2616.520700	45397.200000
2617.947035	45246.700000
2619.371521	45406.600000
2620.797353	45132.200000
2622.219741	45657.900000
2623.643475	45567.100000
2625.065362	45548.700000
2626.487000	45726.100000
2627.906792	45497.600000
2629.327930	45898.100000
2630.748818	45783.100000
2632.166268	45828.600000
2633.586657	46205.600000
2635.003609	46026.700000
2636.420313	46302.900000
2637.836768	46165.800000
2639.252975	46656.800000
2640.668933	46064.100000
2642.083051	46400.200000
2643.496922	46715.800000
2644.908953	46473.900000
2646.322329	46542.600000
2647.732275	46699.100000
2649.145156	46734.900000
2650.554610	47034.900000
2651.963817	47153.900000
2653.371187	47055.000000
2654.781493	47285.400000
2656.189962	47153.900000
2657.596596	47489.900000
2659.002985	47340.900000
2660.407540	47767.100000
2661.813439	47828.200000
2663.217505	47773.500000
2664.621326	48231.300000
2666.024904	47814.300000
2667.426649	48357.900000
2668.829738	48292.500000
2670.229409	48110.100000
2671.630424	48137.700000
2673.028023	48022.600000
2674.428552	47885.100000
2675.825666	47945.000000
2677.224123	48004.900000
2678.620752	48062.900000
2680.017139	47963.100000
2681.413285	48156.300000
2682.807604	48004.500000
2684.203266	47870.900000
2685.595518	48161.800000
2686.989114	47976.400000
2688.380885	48468.800000
2689.773998	48141.900000
2691.165288	47994.900000
2692.554755	48309.700000
2693.943982	48134.900000
2695.332970	48238.800000
2696.723300	48475.000000
2698.108645	48466.000000
2699.496914	48309.900000
2700.883363	48385.800000
2702.269573	48402.100000
2703.655545	48328.500000
2705.038117	48645.300000
2706.422032	48632.700000
2707.805709	48410.600000
2709.189148	48828.000000
2710.569191	48615.600000
2711.950576	49091.400000
2713.330145	49079.100000
2714.711056	48961.400000
2716.090151	49302.400000
2717.467433	49270.100000
2718.846056	49466.800000
2720.222866	49482.500000
2721.599440	49518.000000
2722.975778	49836.300000
2724.350304	49678.100000
2725.726171	49860.100000
2727.098651	49745.600000
2728.474047	50093.300000
2729.844483	50130.000000
2731.216260	50202.200000
2732.587802	50162.400000
2733.957536	50374.400000
2735.328611	50489.600000
2736.697877	50592.200000
2738.066911	50769.400000
2739.434137	50558.700000
2740.801131	50893.000000
2742.167892	50625.800000
2743.534420	50703.600000
2744.899143	51038.800000
2746.263635	51127.100000
2747.627894	51139.400000
2748.991921	51652.700000
2750.355717	51387.100000
2751.716139	51802.600000
2753.079472	51606.500000
2754.437862	51674.500000
2755.799162	51814.300000
2757.157091	51997.200000
2758.517930	51732.200000
2759.876968	51751.000000
2761.232638	51916.600000
2762.591216	51779.400000
2763.946428	51992.600000
2765.301410	51920.900000
2766.654595	52043.600000
2768.010687	52476.500000
2769.363415	52375.300000
2770.715914	52597.900000
2772.068185	52646.000000
2773.421795	52695.000000
2774.772043	52694.800000
2776.120498	53003.200000
2777.471857	52833.800000
2778.819857	52972.200000
2780.169196	53113.800000
2781.516742	53287.100000
2782.864061	53286.400000
2784.211154	53308.700000
2785.556456	52993.300000
2786.901532	53438.800000
2788.246382	53267.500000
2789.591005	53567.600000
2790.932277	53327.800000
2792.274887	53628.300000
2793.617271	53790.400000
2794.959431	54129.400000
2796.298241	54152.400000
2797.639950	54361.800000
2798.978312	54309.000000
2800.318011	54506.000000
2801.655924	54532.900000
2802.992053	54540.800000
2804.327958	54907.100000
2805.665201	54829.700000
2807.000660	54963.600000
2808.335896	55233.900000
2809.669349	55197.800000
2811.004140	55262.000000
2812.335589	55615.000000
2813.669934	55667.600000
2814.999381	55421.600000
2816.330165	55969.700000
2817.660727	55610.000000
2818.989510	55642.200000
2820.319629	55856.200000
2821.647970	55901.500000
2822.976090	55940.200000
2824.302432	55886.500000
2825.630111	55961.500000
2826.954457	56032.900000
2828.280138	55765.400000
2829.604044	55881.500000
2830.927731	55845.700000
2832.252753	56004.300000
2833.574445	56046.100000
2834.895919	56045.500000
2836.217174	56071.200000
2837.538210	56217.700000
2838.857474	56129.900000
2840.178073	56450.900000
2841.496900	56157.900000
2842.815509	56351.100000
2844.132347	56188.600000
2845.448968	56376.600000
2846.765372	56294.000000
2848.080007	56454.700000
2849.395976	56416.900000
2850.708625	56720.200000
2852.022610	56623.400000
2853.336377	56959.800000
2854.649929	56691.200000
2855.961713	56766.600000
2857.271731	56878.500000
2858.583084	56902.300000
2859.891122	57189.400000
2861.200495	57267.000000
2862.509652	57437.000000
2863.818594	57196.500000
2865.125773	57621.500000
2866.431188	57767.500000
2867.737938	57760.400000
2869.042925	57777.600000
2870.347699	57790.800000
2871.650711	57968.100000
2872.956605	57885.300000
2874.257643	57959.000000
2875.560016	57982.300000
2876.860629	58286.000000
2878.162576	58185.500000
2879.464310	58047.300000
2880.762739	58344.500000
2882.062503	57992.400000
2883.360508	58132.600000
2884.658302	58218.100000
2885.954340	58090.100000
2887.251711	58312.200000
2888.547326	58147.600000
2889.842730	58460.800000
2891.137924	58526.900000
2892.429819	58482.400000
2893.724591	58407.700000
2895.016066	58544.000000
2896.308874	58437.100000
2897.601472	58526.000000
2898.890776	58669.100000
2900.181412	58455.800000
2901.470297	58606.700000
2902.760515	58638.900000
2904.047440	58761.200000
2905.335699	58982.800000
2906.622207	58830.500000
2907.908508	58944.900000
2909.194600	58926.900000
2910.478944	58806.800000
2911.766160	58893.300000
2913.048548	58998.700000
2914.332269	58931.700000
2915.614244	58923.900000
2916.896012	59192.900000
2918.176034	59077.400000
2919.458926	59271.100000
2920.740073	59071.100000
2922.017938	59273.700000
2923.298672	59225.400000
2924.576125	59055.900000
2925.853372	59177.400000
2927.128878	58987.500000
2928.407251	59319.400000
2929.680809	58766.300000
2930.957235	59121.300000
2932.231920	59048.600000
2933.504865	58964.800000
2934.779140	59217.800000
2936.051676	59127.400000
2937.324008	59002.100000
2938.593066	59285.200000
2939.864990	59129.000000
2941.135176	59085.500000
2942.405159	59093.300000
2943.674938	59070.100000
2944.942980	59158.200000
2946.209287	58995.200000
2947.475391	59128.800000
2948.742825	59357.500000
2950.008525	59367.100000
2951.274022	59222.800000
2952.539317	59220.400000
2953.801347	59222.000000
2955.064708	59300.300000
2956.327866	59290.400000
2957.589293	59533.700000
2958.852049	59245.700000
2960.113074	59532.800000
2961.372367	59485.400000
2962.631461	59568.100000
2963.890354	59589.700000
2965.149047	59790.100000
2966.407540	59525.900000
2967.664304	59603.800000
2968.920868	59635.900000
2970.175705	59531.300000
2971.431871	59853.400000
2972.684781	59940.100000
2973.939021	59746.600000
2975.193062	60116.100000
2976.445377	59964.600000
2977.697494	59987.500000
2978.947886	60095.100000
2980.201133	60195.300000
2981.449603	60064.800000
2982.700927	60558.700000
2983.949003	60416.900000
2985.196881	60461.100000
2986.444562	60371.500000
2987.692047	60485.200000
2988.937810	60517.200000
2990.183376	60658.600000
2991.430270	60752.200000
2992.673920	60548.900000
2993.918898	60780.100000
2995.160633	60860.300000
2996.405218	61018.500000
2997.648085	60931.400000
2998.887711	61089.700000
3000.130187	60978.200000
3001.369424	60972.800000
3002.609988	61152.700000
3003.848835	61386.000000
3005.087488	61198.700000
3006.324425	61274.700000
3007.562689	61234.100000
3008.799239	61600.800000
3010.035594	61210.600000
3011.271756	61426.500000
3012.506205	61496.100000
3013.740460	61587.500000
3014.974522	61684.700000
3016.206872	61650.400000
3017.437510	61673.100000
3018.670994	61614.500000
3019.902766	61736.500000
3021.132828	61913.200000
3022.362698	61869.100000
3023.590858	61615.900000
3024.820344	61831.500000
3026.048122	61963.900000
3027.275708	61939.700000
3028.504620	61943.300000
3029.728790	61969.800000
3030.955803	62053.900000
3032.179592	61935.700000
3033.404708	62089.700000
3034.628117	62075.100000
3035.851337	62038.600000
3037.072851	62206.300000
3038.297206	62032.900000
3039.516826	62126.300000
3040.737771	62212.500000
3041.958528	62106.400000
3043.177581	62337.800000
3044.397960	62287.200000
3045.615122	62229.300000
3046.833609	62225.300000
3048.050394	62514.700000
3049.266992	62505.500000
3050.483401	62353.700000
3051.696598	62429.100000
3052.912632	62626.300000
3054.125454	62328.100000
3055.341113	62559.600000
3056.552049	62525.600000
3057.764310	62378.300000
3058.976385	62451.800000
3060.188273	62479.700000
3061.398463	62561.900000
3062.608467	62533.600000
3063.818286	62576.900000
3065.026408	62626.400000
3066.234344	62487.400000
3067.440586	62655.500000
3068.648151	62771.200000
3069.854023	62776.550000
3071.059709	62781.900000
3072.265210	62904.700000
3073.469018	62827.400000
3074.674150	62755.600000
3075.877590	63156.600000
3077.079337	62863.000000
3078.280901	62908.400000
3079.482281	63013.900000
3080.683477	63011.600000
3081.882983	62990.200000
3083.082305	62972.500000
3084.282951	62990.200000
3085.481907	63096.100000
3086.677669	63041.300000
3087.876260	63140.700000
3089.071657	63107.300000
3090.268377	63166.200000
3091.461905	63166.900000
3092.658261	63165.700000
3093.852931	63165.100000
3095.044410	63146.900000
3096.240220	63261.600000
3097.431337	63276.600000
3098.623776	63337.800000
3099.813028	63211.700000
3101.005106	63189.300000
3102.195499	63214.200000
3103.382707	63472.100000
3104.571238	63321.600000
3105.761091	63423.400000
3106.947759	63264.900000
3108.134248	63434.100000
3109.320557	63443.700000
3110.508188	63280.400000
3111.692638	63360.100000
3112.875407	63298.100000
3114.061000	63393.700000
3115.244912	63275.200000
3116.427146	63512.100000
3117.609201	63384.500000
3118.791079	63462.400000
3119.972778	63491.300000
3121.152799	63425.400000
3122.331144	63525.400000
3123.512310	63581.700000
3124.690300	63551.700000
3125.868113	63440.700000
3127.045749	63537.400000
3128.221710	63505.100000
3129.397494	63627.400000
3130.574600	63595.100000
3131.750031	63582.000000
3132.923789	63432.800000
3134.095875	63615.900000
3135.269281	63596.000000
3136.442512	63719.300000
3137.614070	63599.500000
3138.786950	63780.500000
3139.956662	63667.100000
3141.127695	63809.600000
3142.297057	63874.700000
3143.464750	63848.200000
3144.635258	63792.200000
3145.801107	63794.600000
3146.971266	63746.200000
3148.136767	63850.900000
3149.302095	63868.800000
3150.467249	63870.200000
3151.632229	63912.200000
3152.798530	63884.300000
3153.960177	63826.800000
3155.123145	63620.700000
3156.285939	63661.700000
3157.448561	63659.200000
3158.609518	63531.500000
3159.770302	63577.200000
3160.930914	63537.800000
3162.089863	63457.300000
3163.248639	63519.600000
3164.407244	63534.200000
3165.565677	63377.300000
3166.723938	63649.800000
3167.880537	63601.900000
3169.035475	63507.000000
3170.191732	63480.200000
3171.346329	63512.100000
3172.500754	63652.000000
3173.653520	63525.000000
3174.806116	63502.200000
3175.958541	63588.100000
3177.110797	63615.200000
3178.262883	63540.200000
3179.411822	63543.800000
3180.563568	63730.100000
3181.713656	63590.600000
3182.862088	63734.100000
3184.010351	63746.200000
3185.158444	63877.800000
3186.306369	63932.400000
3187.452639	63904.500000
3188.598740	64078.600000
3189.743186	64071.700000
3190.887465	64071.200000
3192.031576	64007.000000
3193.177005	63946.800000
3194.319294	64072.000000
3195.461417	64064.700000
3196.603372	64134.500000
3197.745161	64057.700000
3198.886782	64119.200000
3200.025267	64092.300000
3201.165070	64176.400000
3202.306191	64085.000000
3203.444177	64110.100000
3204.580514	64177.700000
3205.716685	64192.600000
3206.854174	64218.000000
3207.990013	64165.100000
3209.127170	64178.200000
3210.259714	64146.500000
3211.396540	64267.600000
3212.528754	64186.600000
3213.662286	64218.100000
3214.795652	64104.400000
3215.925891	64200.100000
3217.058928	64101.500000
3218.188839	64049.100000
3219.320067	64007.500000
3220.448169	63961.400000
3221.579068	64063.600000
3222.708324	64078.500000
3223.835935	64009.900000
3224.960425	64088.400000
3226.089190	64129.200000
3227.214833	63970.800000
3228.340313	64065.500000
3229.464152	64150.900000
3230.590785	64105.300000
3231.712821	64213.000000
3232.836173	64171.300000
3233.959363	64153.000000
3235.082391	64068.300000
3236.203779	64103.100000
3237.325006	64114.800000
3238.444594	64191.200000
3239.564021	64051.100000
3240.681810	64160.100000
3241.802392	64184.600000
3242.919859	64270.500000
3244.037167	64361.200000
3245.154313	64329.800000
3246.269824	64345.400000
3247.386650	64420.200000
3248.500365	64424.700000
3249.616870	64495.300000
3250.731741	64429.200000
3251.843503	64485.600000
3252.955106	64480.700000
3254.068023	64493.000000
3255.180782	64501.800000
3256.290434	64526.100000
3257.401400	64532.800000
3258.512208	64492.700000
3259.621385	64490.900000
3260.728930	64487.100000
3261.837790	64483.600000
3262.946491	64510.000000
3264.052090	64519.400000
3265.159003	64513.400000
3266.264288	64513.000000
3267.370886	64573.100000
3268.474384	64571.200000
3269.579196	64566.900000
3270.683851	64550.500000
3271.785407	64535.300000
3272.886808	64562.500000
3273.989522	64582.400000
3275.092079	64566.200000
3276.191540	64587.200000
3277.293785	64579.300000
3278.392934	64576.500000
3279.490459	64564.500000
3280.587828	64573.500000
3281.687980	64579.700000
3282.785038	64569.700000
3283.881941	64579.600000
3284.978689	64569.000000
3286.070879	64580.000000
3287.167317	64561.600000
3288.262134	64571.600000
3289.356795	64579.400000
3290.449835	64568.100000
3291.542721	64580.800000
3292.633986	64573.300000
3293.726564	64574.200000
3294.817521	64555.900000
3295.906859	64552.700000
3296.996044	64595.000000
3298.086542	64551.500000
3299.173955	64571.300000
3300.261216	64578.200000
3301.349789	64569.900000
3302.438209	64571.400000
3303.522082	64580.200000
3304.610197	64573.400000
3305.695231	64590.300000
3306.778648	64567.200000
3307.863378	64571.400000
3308.946493	64577.100000
3310.030919	64576.200000
3311.112267	64576.900000
3312.194927	64582.900000
3313.275973	64575.600000
3314.356868	64589.900000
3315.436150	64581.000000
3316.515281	64579.100000
3317.595723	64582.400000
3318.673092	64582.700000
3319.751771	64580.600000
3320.828840	64579.200000
3321.905758	64583.400000
3322.981065	64585.800000
3324.056223	64580.000000
3325.132692	64580.700000
3326.206091	64579.900000
3327.279341	64581.900000
3328.353902	64572.400000
3329.426853	64577.000000
3330.498197	64591.000000
3331.570851	64593.300000
3332.640438	64584.000000
3333.711336	64582.500000
3334.780627	64571.300000
3335.851229	64580.300000
3336.920224	64579.200000
3337.987613	64586.500000
3339.053397	64572.900000
3340.123407	64564.600000
3341.190354	64575.300000
3342.254239	64557.000000
3343.320892	64587.900000
3344.385940	64578.900000
3345.449385	64558.300000
3346.512684	64582.300000
3347.575836	64597.200000
3348.638842	64569.200000
3349.701702	64588.700000
3350.762960	64596.400000
3351.821161	64585.300000
3352.883583	64588.000000
3353.942948	64574.500000
3355.002168	64571.000000
3356.062698	64583.200000
3357.118718	64573.800000
3358.177503	64577.000000
3359.231780	64578.600000
3360.288820	64584.700000
3361.344263	64589.300000
3362.401014	64572.000000
3363.456168	64589.700000
3364.509724	64579.600000
3365.561683	64580.200000
3366.616404	64595.700000
3367.668076	64589.300000
3368.719605	64588.100000
3369.772443	64591.300000
3370.822233	64575.300000
3371.873331	64583.400000
3372.921384	64575.400000
3373.972197	64582.300000
3375.019964	64583.300000
3376.067589	64588.600000
3377.115071	64597.300000
3378.160961	64556.200000
3379.208159	64583.800000
3380.252315	64568.000000
3381.299229	64582.200000
3382.344551	64580.700000
3383.386833	64578.900000
3384.428973	64589.600000
3385.472421	64585.600000
3386.515729	64578.300000
3387.557446	64584.300000
3388.599022	64572.500000
3389.640458	64582.600000
3390.680304	64590.400000
3391.718563	64562.100000
3392.758129	64577.900000
3393.797554	64575.600000
3394.835392	64596.400000
3395.871643	64580.700000
3396.907755	64569.700000
3397.945174	64575.500000
3398.979560	64587.900000
3400.015253	64584.400000
3401.050807	64579.200000
3402.083330	64588.000000
3403.118606	64590.800000
3404.150851	64590.800000
3405.182958	64584.400000
3406.213481	64580.300000
3407.245312	64596.900000
3408.277003	64572.700000
3409.305668	64587.900000
3410.334194	64581.500000
3411.364028	64593.200000
3412.393723	64574.300000
3413.420393	64567.000000
3414.448370	64582.600000
3415.473322	64581.600000
3416.501024	64589.600000
3417.525703	64590.200000
3418.551688	64570.800000
3419.576093	64579.600000
3420.600362	64569.900000
3421.623052	64585.900000
3422.645606	64591.500000
3423.669466	64562.400000
3424.690306	64588.100000
3425.711011	64584.700000
3426.733021	64578.400000
3427.752013	64585.700000
3428.770870	64590.100000
3429.791032	64577.600000
3430.808178	64587.700000
