-118.187858	18.000000
-115.518258	24.900000
-112.851593	29.300000
-110.185680	24.900000
-107.522699	20.400000
-104.858289	28.300000
-102.196809	21.900000
-99.533899	29.500000
-96.876097	20.300000
-94.216864	26.200000
-91.558380	24.500000
-88.902821	22.000000
-86.245833	16.400000
-83.593942	21.000000
-80.940622	16.900000
-78.290222	12.600000
-75.638392	15.000000
-72.991653	22.900000
-70.343484	29.500000
-67.696059	12.200000
-65.051547	22.700000
-62.405607	21.300000
-59.764748	25.900000
-57.122460	25.900000
-54.483080	32.200000
-51.842272	21.000000
-49.202204	20.600000
-46.567208	17.500000
-43.930783	27.500000
-41.297262	29.400000
-38.662312	28.100000
-36.032427	21.200000
-33.398950	30.900000
-30.770535	33.200000
-28.142853	16.500000
-25.513744	31.600000
-22.889691	33.600000
-20.262049	30.900000
-17.639460	24.900000
-15.017602	36.300000
-12.396476	55.200000
-9.776079	84.700000
-7.158570	241.700000
-4.539633	748.300000
-1.923582	1804.400000
0.691741	2198.900000
3.306337	1295.200000
5.918050	166.400000
8.531192	49.800000
11.139300	21.200000
13.750990	34.600000
16.357649	32.900000
18.965736	33.300000
21.573099	18.400000
24.175437	19.600000
26.781353	42.200000
29.382247	27.800000
31.984570	23.600000
34.581874	23.100000
37.182754	13.900000
39.778620	36.600000
42.375913	36.600000
44.972487	46.800000
47.564052	39.900000
50.157045	15.900000
52.747177	39.400000
55.338737	30.400000
57.927437	16.500000
60.517564	19.200000
63.102693	45.700000
65.689249	22.400000
68.275090	34.900000
70.858078	31.900000
73.442493	42.000000
76.019778	29.200000
78.600630	23.500000
81.178633	27.800000
83.755926	36.600000
86.334645	34.100000
88.908383	25.700000
91.483547	14.200000
94.055868	14.200000
96.627481	37.300000
99.196255	40.200000
101.766455	24.400000
104.333816	39.000000
106.902604	42.800000
109.468554	40.300000
112.031670	53.000000
114.598342	69.700000
117.155793	73.500000
119.718929	100.800000
122.277106	139.200000
124.838836	177.000000
127.395611	260.300000
129.953811	402.700000
132.507059	576.200000
135.059608	825.500000
137.615708	1173.500000
140.166861	1583.900000
142.717315	1940.500000
145.267073	2217.200000
147.814011	2441.900000
150.360253	2561.400000
152.907922	2623.500000
155.454894	2726.100000
157.996930	2735.300000
160.538273	2734.600000
163.078924	2698.900000
165.620999	2690.600000
168.160264	2743.300000
170.696719	2727.000000
173.232484	2709.900000
175.769674	2714.300000
178.306172	2713.400000
180.839865	2700.200000
183.370755	2723.000000
185.900956	2729.400000
188.432582	2714.700000
190.961407	2735.100000
193.487433	2721.300000
196.012774	2741.200000
198.539539	2741.900000
201.063508	2750.600000
203.586791	2725.500000
206.109390	2721.400000
208.629196	2711.200000
211.148319	2701.900000
213.666759	2704.400000
216.186623	2703.000000
218.699486	2714.900000
221.215880	2718.400000
223.731592	2725.800000
226.242415	2743.600000
228.754662	2690.200000
231.264126	2725.300000
233.772912	2701.300000
236.281020	2739.200000
238.790551	2766.600000
241.295203	2758.500000
243.799178	2708.000000
246.304577	2733.400000
248.805101	2755.200000
251.309148	2716.400000
253.806225	2771.500000
256.306824	2736.000000
258.804652	2787.400000
261.301807	2689.600000
263.798289	2745.100000
266.289909	2705.100000
268.785047	2712.300000
271.277420	2692.500000
273.769122	2765.900000
276.258061	2729.500000
278.748423	2723.900000
281.236024	2711.200000
283.720865	2742.500000
286.209220	2697.800000
288.690636	2681.600000
291.175566	2684.100000
293.655651	2741.400000
296.139248	2713.300000
298.618002	2735.300000
301.098180	2720.500000
303.575605	2695.200000
306.052367	2755.500000
308.528466	2709.600000
311.001816	2712.300000
313.474504	2681.500000
315.946531	2736.200000
318.417897	2715.800000
320.886519	2767.600000
323.354481	2730.000000
325.823866	2753.500000
328.288428	2764.300000
330.756493	2781.700000
333.219739	2746.900000
335.682328	2774.600000
338.144259	2732.100000
340.605534	2767.400000
343.064075	2777.900000
345.524038	2754.300000
347.981269	2723.700000
350.437844	2750.000000
352.893766	2708.300000
355.346959	2720.600000
357.801573	2700.000000
360.251386	2700.100000
362.704696	2699.400000
365.153206	2697.000000
367.601066	2699.500000
370.050347	2718.100000
372.494835	2717.400000
374.940745	2683.400000
377.386006	2672.300000
379.828548	2678.000000
382.270442	2729.200000
384.711688	2691.400000
387.150219	2712.300000
389.590172	2670.000000
392.027411	2640.300000
394.461938	2657.800000
396.899953	2664.200000
399.333191	2650.300000
401.767851	2643.800000
404.197737	2646.600000
406.631109	2700.300000
409.059711	2671.000000
411.487672	2654.100000
413.917053	2680.300000
416.341669	2700.900000
418.767707	2712.100000
421.193104	2641.700000
423.617861	2669.400000
426.037860	2676.300000
428.459280	2699.000000
430.878003	2671.100000
433.298147	2701.300000
435.715596	2700.700000
438.134465	2715.200000
440.550641	2730.400000
442.962070	2695.100000
445.376975	2705.600000
447.789190	2722.000000
450.200771	2724.900000
452.611718	2745.900000
455.019979	2709.100000
457.427607	2711.700000
459.834604	2711.700000
462.240968	2696.500000
464.644650	2714.400000
467.047702	2746.300000
469.450124	2707.800000
471.851917	2724.300000
474.251031	2697.500000
476.651565	2682.400000
479.051470	2711.300000
481.446652	2727.800000
483.845301	2695.200000
486.239230	2702.500000
488.632533	2653.000000
491.025210	2701.800000
493.417262	2696.400000
495.810733	2687.300000
498.199491	2673.300000
500.585583	2664.900000
502.973095	2687.100000
505.359983	2651.200000
507.744208	2682.200000
510.129852	2697.500000
512.512833	2662.700000
514.893154	2680.300000
517.274894	2730.000000
519.653975	2713.700000
522.034475	2689.200000
524.412317	2646.800000
526.787504	2685.900000
529.162073	2704.300000
531.538061	2688.900000
533.911395	2688.800000
536.286148	2663.900000
538.656214	2657.300000
541.025665	2693.700000
543.396535	2688.100000
545.762723	2643.200000
548.130330	2709.000000
550.495291	2696.200000
552.859639	2667.200000
555.223375	2687.700000
557.588528	2704.400000
559.949008	2674.600000
562.310907	2731.700000
564.670166	2667.400000
567.026786	2672.600000
569.386851	2678.200000
571.740226	2664.500000
574.097045	2709.000000
576.451228	2682.500000
578.804804	2664.700000
581.157771	2665.000000
583.508107	2643.200000
585.859859	2681.800000
588.204935	2681.700000
590.555475	2665.100000
592.899342	2641.000000
595.248669	2661.100000
597.593349	2636.200000
599.935404	2663.000000
602.278875	2670.000000
604.619724	2651.300000
606.959971	2651.800000
609.297597	2628.700000
611.638658	2679.700000
613.975082	2672.500000
616.312922	2657.700000
618.648144	2649.900000
620.980751	2654.800000
623.314775	2667.000000
625.646184	2691.900000
627.976995	2654.000000
630.307208	2643.900000
632.636823	2685.100000
634.961816	2676.800000
637.292250	2649.400000
639.618062	2673.200000
641.941268	2686.600000
644.265889	2680.100000
646.587906	2679.700000
648.909328	2723.000000
651.228147	2704.300000
653.548382	2688.600000
655.868024	2688.000000
658.185065	2653.100000
660.501515	2724.200000
662.815366	2672.900000
665.130632	2695.200000
667.443302	2714.500000
669.757387	2673.900000
672.066872	2690.000000
674.377773	2703.000000
676.686081	2674.700000
678.993801	2702.500000
681.302936	2723.000000
683.607478	2683.500000
685.911434	2690.700000
688.214803	2725.400000
690.519587	2662.600000
692.819785	2656.300000
695.121398	2697.600000
697.422425	2669.800000
699.718870	2708.700000
702.016731	2705.100000
704.314008	2699.600000
706.610702	2656.900000
708.902820	2676.700000
711.198349	2689.300000
713.489305	2663.400000
715.781675	2685.800000
718.071469	2655.600000
720.360684	2668.500000
722.649318	2677.700000
724.935381	2676.000000
727.222857	2677.900000
729.507763	2694.000000
731.792090	2674.300000
734.073849	2717.500000
736.357023	2672.300000
738.639618	2677.500000
740.917659	2712.000000
743.197113	2711.500000
745.475992	2686.700000
747.754295	2716.700000
750.028049	2691.700000
752.303217	2733.200000
754.577811	2712.700000
756.849846	2691.900000
759.123293	2704.900000
761.394183	2701.600000
763.662517	2693.800000
765.932264	2736.400000
768.199457	2693.400000
770.466079	2708.000000
772.732132	2739.600000
774.995632	2686.300000
777.260546	2706.100000
779.524890	2744.000000
781.784705	2712.400000
784.045933	2703.300000
786.306593	2708.800000
788.564706	2752.500000
790.820275	2730.800000
793.079235	2665.700000
795.331696	2754.100000
797.589524	2716.600000
799.842832	2685.100000
802.093601	2720.400000
804.345782	2717.100000
806.595425	2732.300000
808.846479	2719.000000
811.093022	2693.400000
813.340978	2692.600000
815.586398	2724.800000
817.833230	2708.900000
820.079501	2666.500000
822.321268	2711.100000
824.566417	2700.800000
826.805094	2710.400000
829.047154	2692.700000
831.284715	2702.000000
833.523687	2724.700000
835.760133	2720.700000
837.997991	2700.800000
840.233323	2675.200000
842.466131	2735.200000
844.700351	2695.300000
846.932049	2697.700000
849.163192	2695.300000
851.393780	2712.600000
853.623814	2708.400000
855.853293	2712.700000
858.078291	2729.900000
860.306664	2744.000000
862.530558	2724.400000
864.755862	2716.300000
866.976691	2766.400000
869.200892	2707.600000
871.420620	2684.000000
873.641759	2708.200000
875.862347	2734.000000
878.080425	2757.100000
880.299914	2744.900000
882.514936	2728.600000
884.729410	2716.300000
886.943337	2763.900000
889.156716	2732.200000
891.369549	2722.600000
893.581834	2712.200000
895.791618	2742.400000
898.000856	2726.200000
900.209548	2722.400000
902.415742	2738.200000
904.623345	2734.100000
906.828451	2737.400000
909.033013	2693.100000
911.235079	2781.000000
913.438555	2700.100000
915.639537	2721.100000
917.839978	2745.900000
920.041827	2744.600000
922.237284	2740.100000
924.436101	2740.700000
926.630480	2756.200000
928.828215	2774.600000
931.021515	2739.100000
933.216224	2780.900000
935.408447	2753.700000
937.600132	2802.500000
939.791279	2756.800000
941.979943	2750.400000
944.168070	2783.100000
946.353717	2756.900000
948.542716	2752.700000
950.727292	2795.900000
952.911333	2795.600000
955.098724	2769.500000
957.277812	2796.200000
959.460249	2820.600000
961.642153	2797.000000
963.821583	2814.300000
965.998540	2805.000000
968.176905	2846.800000
970.356676	2841.300000
972.530099	2857.300000
974.706868	2822.100000
976.879231	2850.200000
979.053000	2845.100000
981.222366	2825.400000
983.395077	2840.800000
985.565321	2809.700000
987.735037	2872.000000
989.904224	2832.800000
992.069014	2840.300000
994.237145	2813.600000
996.400882	2815.800000
998.566025	2812.900000
1000.728710	2849.000000
1002.890868	2844.900000
1005.050570	2829.200000
1007.209748	2868.900000
1009.370332	2853.600000
1011.528461	2815.400000
1013.686066	2842.700000
1015.843148	2799.700000
1017.999707	2813.500000
1020.151886	2837.600000
1022.305471	2779.600000
1024.458535	2834.800000
1026.609151	2839.300000
1028.761172	2811.200000
1030.908820	2820.300000
1033.059800	2849.100000
1035.206409	2801.100000
1037.352500	2799.700000
1039.498071	2836.300000
1041.645048	2804.300000
1043.785737	2841.500000
1045.929754	2799.700000
1048.071331	2864.100000
1050.212392	2846.800000
1052.354857	2835.000000
1054.491043	2810.200000
1056.630555	2862.400000
1058.765711	2842.900000
1060.904192	2849.500000
1063.038320	2845.800000
1065.171933	2856.400000
1067.306952	2847.600000
1069.437621	2870.800000
1071.569695	2877.400000
1073.699340	2888.400000
1075.828473	2883.100000
1077.957094	2861.200000
1080.085204	2902.300000
1082.210888	2899.000000
1084.336062	2914.900000
1086.462640	2961.100000
1088.584881	2942.300000
1090.708525	2927.300000
1092.827836	2944.300000
1094.952375	2921.900000
1097.070669	2947.400000
1099.190368	2971.400000
1101.307648	2956.800000
1103.424422	2965.700000
1105.540689	2977.600000
1107.654541	2958.800000
1109.769796	2941.100000
1111.880729	2957.800000
1113.994973	2975.400000
1116.104897	2995.500000
1118.216225	3000.700000
1120.327049	2979.900000
1122.433556	2978.800000
1124.543372	3026.300000
1126.648874	2988.600000
1128.755779	3012.000000
1130.856469	2946.200000
1132.962371	3036.700000
1135.063964	3020.800000
1137.166960	2993.700000
1139.269455	3017.100000
1141.365744	2966.700000
1143.467239	2983.000000
1145.564432	3033.200000
1147.661126	3005.600000
1149.757323	3004.800000
1151.853021	3047.900000
1153.948222	3019.100000
1156.041026	3027.100000
1158.135232	3052.500000
1160.223247	3017.900000
1162.316460	3080.300000
1164.403485	3083.800000
1166.493810	3056.400000
1168.579846	3066.200000
1170.669180	3046.900000
1172.752333	3063.400000
1174.836889	3115.500000
1176.922845	3053.200000
1179.004520	3105.800000
1181.087597	3095.100000
1183.168288	3095.000000
1185.248487	3107.100000
1187.328195	3097.600000
1189.407412	3106.400000
1191.484247	3110.200000
1193.558701	3134.800000
1195.636447	3153.300000
1197.709922	3119.200000
1199.784798	3115.000000
1201.855407	3159.200000
1203.927418	3142.900000
1205.997052	3139.300000
1208.068087	3167.700000
1210.138634	3218.400000
1212.204920	3202.000000
1214.272607	3172.000000
1216.337922	3185.000000
1218.404637	3240.700000
1220.467096	3216.000000
1222.532840	3241.800000
1224.594331	3233.500000
1226.657221	3288.100000
1228.717744	3285.100000
1230.777784	3241.800000
1232.837340	3275.000000
1234.894531	3282.500000
1236.951241	3279.600000
1239.005588	3303.300000
1241.063215	3325.600000
1243.118480	3364.500000
1245.169504	3336.500000
1247.221928	3368.000000
1249.273873	3399.400000
1251.323458	3425.600000
1253.372565	3401.000000
1255.421194	3460.400000
1257.469344	3435.800000
1259.517016	3461.200000
1261.560457	3420.100000
1263.607173	3425.200000
1265.651537	3469.500000
1267.695423	3505.300000
1269.736959	3535.700000
1271.776145	3562.600000
1273.818603	3604.000000
1275.856839	3586.600000
1277.896474	3617.400000
1279.935634	3661.900000
1281.970576	3717.900000
1284.006916	3727.600000
1286.040911	3789.800000
1288.076305	3829.400000
1290.107485	3903.500000
1292.140064	3981.100000
1294.172170	4066.200000
1296.201936	4178.400000
1298.233100	4294.900000
1300.260056	4455.900000
1302.288410	4573.100000
1304.312560	4872.100000
1306.339974	5167.600000
1308.363187	5510.100000
1310.387796	6037.800000
1312.410072	6627.300000
1314.433745	7481.600000
1316.455085	8831.800000
1318.475957	11109.600000
1320.496363	14657.000000
1322.512574	21784.500000
1324.530184	36843.800000
1326.545465	64401.700000
1328.564005	64564.900000
1330.578355	64565.100000
1332.590380	64564.900000
1334.605662	64565.100000
1336.616759	64564.900000
1338.629253	56303.500000
1340.637564	23160.200000
1342.649131	14196.700000
1344.654658	10097.600000
1346.663441	7898.000000
1348.668046	6640.300000
1350.675905	5974.000000
1352.683302	5346.100000
1354.684668	4920.600000
1356.687431	4622.400000
1358.689733	4429.400000
1360.691576	4262.500000
1362.692960	4069.600000
1364.692029	3992.100000
1366.690640	3920.000000
1368.688793	3841.700000
1370.686488	3793.300000
1372.680019	3727.700000
1374.674947	3715.300000
1376.669418	3654.100000
1378.663432	3583.400000
1380.655139	3581.100000
1382.646390	3596.200000
1384.635336	3590.900000
1386.625677	3561.200000
1388.615563	3485.600000
1390.603146	3549.500000
1392.590275	3480.500000
1394.575102	3517.100000
1396.561323	3520.800000
1398.545245	3500.400000
1400.528714	3514.100000
1402.511731	3515.600000
1404.492450	3499.600000
1406.474563	3535.700000
1408.454379	3514.000000
1410.433745	3525.200000
1412.408971	3541.200000
1414.387437	3529.100000
1416.363609	3562.600000
1418.339331	3557.900000
1420.314604	3579.100000
1422.287586	3569.400000
1424.260120	3566.900000
1426.232207	3590.400000
1428.203845	3599.600000
1430.171355	3611.000000
1432.143940	3641.900000
1434.108718	3650.300000
1436.078569	3680.600000
1438.044295	3642.000000
1440.011415	3650.400000
1441.976250	3661.800000
1443.936967	3640.900000
1445.902751	3680.900000
1447.862580	3641.100000
1449.823802	3622.900000
1451.786417	3645.700000
1453.744917	3631.100000
1455.702975	3622.200000
1457.660590	3647.600000
1459.617764	3654.100000
1461.572662	3659.200000
1463.528952	3631.700000
1465.482968	3623.900000
1467.436544	3623.700000
1469.387847	3597.800000
1471.340542	3662.500000
1473.290966	3578.000000
1475.240951	3564.800000
1477.190496	3602.000000
1479.137773	3540.900000
1481.082783	3554.600000
1483.029184	3576.000000
1484.975149	3553.700000
1486.920675	3596.800000
1488.863937	3594.400000
1490.806762	3581.600000
1492.747324	3595.900000
1494.689277	3595.300000
1496.628969	3588.300000
1498.568225	3592.200000
1500.507047	3662.800000
1502.443608	3691.300000
1504.381561	3653.500000
1506.317256	3649.200000
1508.252517	3642.300000
1510.185521	3589.600000
1512.118093	3645.600000
1514.050233	3645.100000
1515.981941	3657.000000
1517.911395	3657.700000
1519.842240	3644.800000
1521.772654	3639.000000
1523.698995	3669.900000
1525.626726	3686.900000
1527.552207	3697.500000
1529.477259	3654.700000
1531.401882	3682.700000
1533.326076	3687.800000
1535.248023	3720.400000
1537.171359	3704.000000
1539.092450	3696.800000
1541.011296	3693.000000
1542.931532	3722.600000
1544.849524	3710.900000
1546.767090	3671.400000
1548.682414	3715.500000
1550.599128	3753.300000
1552.511787	3675.400000
1554.427650	3665.700000
1556.341273	3738.900000
1558.252659	3689.900000
1560.165433	3658.200000
1562.074158	3668.200000
1563.984273	3710.100000
1565.893964	3666.300000
1567.803231	3697.000000
1569.710265	3661.600000
1571.615066	3690.100000
1573.521256	3663.700000
1575.425214	3687.800000
1577.328752	3677.800000
1579.231868	3703.800000
1581.132756	3690.700000
1583.035031	3673.700000
1584.935079	3657.300000
1586.836515	3708.400000
1588.733916	3635.300000
1590.630899	3667.800000
1592.527464	3647.700000
1594.425417	3644.700000
1596.317535	3645.300000
1598.212846	3656.500000
1600.107740	3676.800000
1602.000412	3678.600000
1603.892668	3609.000000
1605.782704	3658.500000
1607.672324	3680.400000
1609.561529	3660.500000
1611.450318	3688.200000
1613.336891	3683.500000
1615.224850	3668.800000
1617.108793	3616.700000
1618.994124	3724.000000
1620.879040	3752.800000
1622.761744	3653.400000
1624.645833	3709.200000
1626.525912	3722.400000
1628.407377	3744.400000
1630.286632	3703.300000
1632.167273	3757.000000
1634.042110	3727.600000
1635.921929	3757.500000
1637.797742	3695.000000
1639.673145	3747.700000
1641.549935	3743.400000
1643.420927	3764.800000
1645.295101	3774.200000
1647.165277	3776.600000
1649.038633	3728.100000
1650.909786	3762.400000
1652.778737	3812.200000
1654.649074	3764.800000
1656.515417	3723.400000
1658.383146	3764.000000
1660.248677	3808.200000
1662.115592	3758.300000
1663.978519	3792.600000
1665.842831	3735.700000
1667.704947	3788.300000
1669.566659	3758.100000
1671.429755	3768.200000
1673.290657	3778.300000
1675.149365	3781.500000
1677.007670	3752.700000
1678.867360	3827.700000
1680.721283	3752.400000
1682.578378	3795.400000
1684.435071	3820.100000
1686.287788	3821.600000
1688.143676	3807.700000
1689.995589	3776.400000
1691.847102	3824.500000
1693.698215	3771.500000
1695.548926	3795.600000
1697.399237	3794.900000
1699.247364	3805.100000
1701.096874	3808.300000
1702.940636	3774.800000
1704.789348	3834.700000
1706.632313	3822.000000
1708.478444	3840.100000
1710.320614	3847.600000
1712.165948	3842.000000
1714.005542	3837.300000
1715.846520	3821.100000
1717.688881	3827.000000
1719.527286	3845.500000
1721.367074	3837.800000
1723.204687	3821.600000
1725.041904	3883.100000
1726.876948	3877.100000
1728.713375	3844.400000
1730.547630	3883.800000
1732.381490	3902.400000
1734.214957	3846.500000
1736.044477	3880.500000
1737.877156	3876.700000
1739.705891	3903.500000
1741.537784	3885.400000
1743.365734	3922.000000
1745.193292	3916.100000
1747.020458	3935.600000
1748.847233	3950.200000
1750.673617	3894.600000
1752.496064	3939.900000
1754.321665	3929.700000
1756.143332	3952.400000
1757.966381	3909.500000
1759.787269	3985.100000
1761.607767	3946.400000
1763.429647	3977.700000
1765.245827	3960.700000
1767.065159	3959.400000
1768.880564	3967.300000
1770.699119	3975.600000
1772.513749	4047.000000
1774.327993	4031.800000
1776.141849	4063.400000
1777.955319	4013.800000
1779.766636	4019.700000
1781.579334	4043.400000
1783.391645	4055.000000
1785.200039	4041.700000
1787.009814	4062.100000
1788.815673	4049.700000
1790.624679	4080.400000
1792.429771	4053.200000
1794.236243	4044.200000
1796.042332	4102.700000
1797.844511	4106.500000
1799.649833	4113.700000
1801.451247	4060.700000
1803.254041	4165.100000
1805.052929	4138.500000
1806.853198	4134.100000
1808.653085	4154.700000
1810.450831	4158.400000
1812.248196	4142.700000
1814.045180	4132.000000
1815.841784	4178.900000
1817.636249	4171.900000
1819.432093	4125.200000
1821.222283	4213.700000
1823.017369	4163.500000
1824.806802	4172.700000
1826.599372	4214.400000
1828.389807	4236.600000
1830.178108	4212.600000
1831.969544	4212.200000
1833.755334	4201.400000
1835.542504	4288.600000
1837.327542	4288.200000
1839.115714	4251.200000
1840.900000	4263.700000
1842.682157	4293.700000
1844.465692	4243.100000
1846.247099	4288.500000
1848.029885	4309.500000
1849.808791	4317.000000
1851.589075	4308.300000
1853.367233	4290.600000
1855.146770	4325.400000
1856.924182	4377.500000
1858.699470	4366.100000
1860.476137	4300.100000
1862.250681	4404.100000
1864.026602	4393.800000
1865.796904	4401.800000
1867.570332	4468.000000
1869.341641	4400.000000
1871.112580	4432.300000
1872.884895	4420.300000
1874.651598	4466.500000
1876.421425	4463.500000
1878.187389	4487.100000
1879.956477	4490.600000
1881.721703	4490.400000
1883.486561	4536.800000
1885.252795	4540.100000
1887.015171	4518.700000
1888.777180	4502.000000
1890.538822	4497.500000
1892.300096	4566.200000
1894.061003	4584.300000
1895.821544	4562.700000
1897.579975	4599.000000
1899.338041	4534.200000
1901.093998	4578.500000
1902.851333	4615.000000
1904.608301	4617.600000
1906.363164	4623.600000
1908.115921	4607.500000
1909.868315	4632.800000
1911.622084	4579.400000
1913.373750	4618.600000
1915.123314	4661.700000
1916.874254	4592.900000
1918.624830	4643.800000
1920.371568	4673.400000
1922.119681	4654.400000
1923.865695	4661.600000
1925.613085	4719.400000
1927.358376	4711.700000
1929.101570	4726.100000
1930.846140	4757.400000
1932.588613	4743.600000
1934.330726	4777.300000
1936.072479	4769.900000
1937.813873	4783.000000
1939.553173	4802.500000
1941.292114	4829.500000
1943.030696	4848.900000
1944.767186	4837.600000
1946.503319	4855.850000
1948.240826	4874.100000
1949.974512	4932.500000
1951.709571	4854.400000
1953.442543	4924.000000
1955.175158	4931.000000
1956.907416	4930.700000
1958.639318	4956.400000
1960.369134	4988.800000
1962.096866	4934.500000
1963.825971	5027.700000
1965.554722	4966.800000
1967.281389	5066.200000
1969.007702	5061.500000
1970.735388	5044.200000
1972.457538	5017.100000
1974.182789	5020.600000
1975.904234	5109.700000
1977.628778	5104.500000
1979.351243	5132.500000
1981.069904	5162.200000
1982.791664	5224.600000
1984.509622	5194.000000
1986.228954	5205.300000
1987.944485	5231.400000
1989.664838	5259.700000
1991.381391	5244.000000
1993.094149	5289.000000
1994.810002	5332.400000
1996.523782	5299.500000
1998.237213	5324.300000
1999.948573	5344.100000
2001.661306	5385.400000
2003.370247	5347.300000
2005.082282	5402.800000
2006.788807	5405.900000
2008.498425	5443.300000
2010.205975	5490.600000
2011.913178	5418.600000
2013.618315	5488.800000
2015.323105	5489.100000
2017.029267	5497.400000
2018.731647	5484.400000
2020.435399	5521.800000
2022.137087	5501.600000
2023.838431	5514.600000
2025.539429	5535.300000
2027.238367	5567.200000
2028.938675	5553.600000
2030.635209	5548.700000
2032.333114	5651.000000
2034.028961	5616.600000
2035.727892	5640.600000
2037.421338	5645.800000
2039.116156	5649.400000
2040.810630	5705.900000
2042.501336	5741.200000
2044.195126	5721.400000
2045.885149	5770.700000
2047.576543	5720.300000
2049.265884	5741.600000
2050.956595	5696.000000
2052.643544	5753.000000
2054.330152	5708.500000
2056.018131	5749.500000
2057.702350	5737.400000
2059.387939	5717.500000
2061.073189	5724.100000
2062.756391	5754.400000
2064.440962	5722.500000
2066.120071	5723.700000
2067.803965	5753.100000
2069.482399	5733.300000
2071.163909	5748.900000
2072.841669	5822.800000
2074.519091	5840.700000
2076.197884	5840.500000
2077.874633	5848.600000
2079.549341	5871.100000
2081.225418	5916.100000
2082.899455	5851.700000
2084.573156	5864.800000
2086.246522	5877.300000
2087.917850	5854.000000
2089.588843	5934.400000
2091.259502	5967.600000
2092.929826	5865.600000
2094.599817	5984.700000
2096.267772	5909.700000
2097.935394	5983.500000
2099.600982	5995.500000
2101.267938	6019.300000
2102.932861	6050.900000
2104.597451	6100.400000
2106.260010	6099.300000
2107.923937	6192.300000
2109.585834	6124.000000
2111.247399	6191.300000
2112.908634	6213.500000
2114.567839	6169.100000
2116.226715	6265.100000
2117.885260	6265.100000
2119.543476	6355.600000
2121.197968	6290.800000
2122.855525	6325.700000
2124.512753	6318.200000
2126.166259	6347.900000
2127.821133	6334.600000
2129.472289	6373.900000
2131.126506	6363.200000
2132.777007	6351.800000
2134.428874	6370.600000
2136.075333	6486.900000
2137.726547	6394.500000
2139.374047	6450.700000
2141.022914	6468.600000
2142.669763	6497.100000
2144.316285	6507.700000
2145.962482	6563.300000
2147.604971	6519.500000
2149.250518	6529.900000
2150.892358	6545.400000
2152.537255	6546.900000
2154.178447	6561.900000
2155.819315	6526.600000
2157.459860	6618.200000
2159.098392	6611.100000
2160.738290	6629.300000
2162.374488	6658.000000
2164.012052	6608.400000
2165.649293	6615.600000
2167.284525	6690.000000
2168.919436	6670.900000
2170.554025	6650.200000
2172.188292	6718.400000
2173.818867	6731.600000
2175.452492	6730.000000
2177.082426	6810.000000
2178.713725	6802.300000
2180.343020	6835.900000
2181.971994	6870.200000
2183.600650	6794.700000
2185.228986	6873.100000
2186.855319	6849.400000
2188.481334	6833.100000
2190.105348	6823.700000
2191.730726	6891.300000
2193.354105	6865.600000
2194.978847	6879.300000
2196.599909	6900.600000
2198.220654	6932.300000
2199.842764	6910.800000
2201.462876	6957.800000
2203.080991	6892.500000
2204.698791	6981.400000
2206.316276	6907.700000
2207.933445	6973.500000
2209.550299	7000.000000
2211.166838	6971.700000
2212.781383	7018.700000
2214.393936	6975.000000
2216.007853	7076.800000
2217.619779	7021.100000
2219.233068	7113.900000
2220.844367	7062.300000
2222.453676	7148.900000
2224.064349	7158.900000
2225.673033	7139.900000
2227.281405	7222.800000
2228.887789	7273.800000
2230.495537	7182.100000
2232.101298	7273.600000
2233.706748	7331.000000
2235.310214	7260.800000
2236.915042	7306.300000
2238.517886	7382.700000
2240.118747	7365.900000
2241.720971	7360.000000
2243.321212	7441.900000
2244.922816	7434.300000
2246.520768	7450.500000
2248.120082	7521.500000
2249.717416	7529.700000
2251.314442	7554.600000
2252.912829	7556.300000
2254.507568	7672.400000
2256.100331	7675.400000
2257.694455	7642.100000
2259.289941	7702.900000
2260.881783	7646.100000
2262.473318	7611.400000
2264.066214	7644.600000
2265.653801	7745.900000
2267.246085	7647.100000
2268.833061	7747.700000
2270.423066	7793.400000
2272.007766	7704.000000
2273.597160	7800.400000
2275.181251	7736.800000
2276.766704	7701.800000
2278.350187	7801.300000
2279.936697	7659.300000
2281.519573	7707.000000
2283.102145	7752.500000
2284.684414	7751.500000
2286.263054	7805.000000
2287.844717	7761.500000
2289.422752	7868.800000
2291.003810	7823.700000
2292.581242	7833.250000
2294.156710	7842.800000
2295.735199	7743.200000
2297.310065	7856.400000
2298.884630	7813.800000
2300.458895	7837.700000
2302.032859	7871.200000
2303.606523	7855.000000
2305.179886	7834.000000
2306.749631	7850.400000
2308.319077	7889.600000
2309.891542	7921.500000
2311.458731	8011.100000
2313.028939	7988.200000
2314.595532	8029.400000
2316.163485	7973.300000
2317.729483	8058.300000
2319.295182	8030.500000
2320.860585	8168.100000
2322.424034	8116.300000
2323.988841	8220.800000
2325.550041	8270.400000
2327.114255	8185.300000
2328.673208	8252.900000
2330.235174	8306.000000
2331.795190	8354.200000
2333.354910	8326.500000
2334.912681	8382.800000
2336.470158	8340.300000
2338.027339	8429.300000
2339.582574	8429.600000
2341.137514	8442.900000
2342.692161	8422.300000
2344.246514	8506.800000
2345.800573	8458.200000
2347.354338	8521.700000
2348.906160	8588.800000
2350.456038	8540.300000
2352.008924	8540.800000
2353.556568	8624.800000
2355.107219	8621.100000
2356.654280	8659.500000
2358.202698	8637.200000
2359.750824	8688.800000
2361.295363	8678.900000
2362.841259	8690.200000
2364.385216	8736.900000
2365.930531	8715.800000
2367.472261	8806.100000
2369.015348	8784.300000
2370.556500	8824.200000
2372.097362	8786.500000
2373.637935	8874.500000
2375.178219	8890.700000
2376.718214	8888.900000
2378.254630	8939.700000
2379.794048	8913.800000
2381.329889	9046.500000
2382.867086	8957.700000
2384.400709	9090.000000
2385.937331	9043.600000
2387.472022	9064.100000
2389.004784	9042.700000
2390.537260	9061.600000
2392.067807	9104.500000
2393.601352	9215.600000
2395.129686	9206.900000
2396.659376	9268.900000
2398.188781	9255.200000
2399.717900	9252.200000
2401.246735	9366.400000
2402.770365	9392.700000
2404.298630	9446.900000
2405.821692	9454.500000
2407.349388	9539.900000
2408.870245	9474.000000
2410.395735	9533.700000
2411.917664	9580.500000
2413.440949	9634.400000
2414.962313	9700.900000
2416.481757	9676.700000
2418.002556	9717.300000
2419.521436	9760.600000
2421.040034	9804.900000
2422.556715	9785.400000
2424.074750	9838.500000
2425.592504	9898.100000
2427.106707	9956.200000
2428.620629	9962.800000
2430.134272	10020.500000
2431.649268	10060.100000
2433.160716	9995.800000
2434.673519	10148.600000
2436.184409	10154.000000
2437.695019	10170.600000
2439.203718	10266.600000
2440.715404	10308.500000
2442.223546	10369.000000
2443.731409	10347.500000
2445.238995	10405.300000
2446.743040	10471.900000
2448.250071	10500.300000
2449.755193	10592.500000
2451.260038	10660.800000
2452.762976	10752.600000
2454.265637	10654.700000
2455.768022	10790.800000
2457.268502	10875.000000
2458.770335	10814.300000
2460.270264	10919.900000
2461.769917	10944.400000
2463.269295	11045.300000
2464.766769	11016.800000
2466.262343	11016.500000
2467.760896	11108.400000
2469.255920	11130.000000
2470.752298	11107.100000
2472.245149	11109.900000
2473.739352	11169.600000
2475.233282	11220.300000
2476.723689	11163.200000
2478.217072	11201.700000
2479.708558	11178.600000
2481.198147	11231.900000
2482.687464	11149.500000
2484.174886	11202.600000
2485.665283	11301.400000
2487.152161	11263.300000
2488.640391	11268.900000
2490.125105	11284.100000
2491.609548	11200.100000
2493.095343	11194.200000
2494.579245	11181.500000
2496.064499	11177.100000
2497.544619	11148.800000
2499.027711	11123.600000
2500.508913	11050.200000
2501.989846	11123.300000
2503.468890	11075.900000
2504.947666	10981.200000
2506.426172	11015.900000
2507.904411	11004.300000
2509.382381	10965.800000
2510.856847	10831.000000
2512.334281	10830.000000
2513.808212	10941.200000
2515.283494	10909.700000
2516.758508	10769.900000
2518.230021	10823.800000
2519.702885	10864.100000
2521.173865	10841.000000
2522.646196	10788.200000
2524.113414	10842.300000
2525.583597	10807.200000
2527.051900	10788.700000
2528.519938	10835.700000
2529.987711	10774.900000
2531.455219	10745.400000
2532.922462	10870.200000
2534.386213	10876.800000
2535.851315	10893.200000
2537.314538	10962.500000
2538.779112	10906.100000
2540.240196	10921.100000
2541.702630	11002.100000
2543.164801	10894.600000
2544.623486	11041.600000
2546.086743	11052.300000
2547.544903	11117.400000
2549.004412	11081.200000
2550.458828	11129.900000
2551.917813	11150.700000
2553.374927	11082.200000
2554.830170	11190.300000
2556.285152	11176.700000
2557.738264	11205.700000
2559.192725	11073.600000
2560.645317	11227.500000
2562.097649	11215.200000
2563.548113	11244.200000
2565.001533	11313.600000
2566.449871	11242.800000
2567.901165	11325.700000
2569.350592	11309.200000
2570.796548	11388.000000
2572.245458	11437.000000
2573.690897	11548.900000
2575.137685	11580.000000
2576.582609	11443.800000
2578.027276	11617.700000
2579.473290	11485.700000
2580.915837	11529.700000
2582.359732	11587.700000
2583.800162	11549.000000
2585.241940	11512.300000
2586.681857	11609.300000
2588.123122	11640.900000
2589.560926	11686.600000
2591.001679	11734.200000
2592.437369	11660.900000
2593.876009	11817.400000
2595.312792	11755.700000
2596.747718	11759.200000
2598.185593	11729.700000
2599.618410	11907.200000
2601.052573	11815.300000
2602.484883	11978.300000
2603.918539	12045.600000
2605.350342	11918.000000
2606.781892	11985.300000
2608.213188	11979.900000
2609.642633	12082.100000
2611.071825	11989.200000
2612.499166	12042.600000
2613.927854	11959.700000
2615.356289	12054.600000
2616.781277	12113.500000
2618.207612	12144.700000
2619.632098	12197.800000
2621.057930	12109.000000
2622.480318	12239.000000
2623.904052	12205.500000
2625.325940	12190.900000
2626.747577	12345.400000
2628.167369	12141.200000
2629.588507	12214.000000
2631.009395	12318.000000
2632.426845	12222.200000
2633.847234	12281.300000
2635.264186	12272.100000
2636.680890	12343.600000
2638.097345	12315.700000
2639.513552	12402.400000
2640.929510	12280.200000
2642.343628	12401.800000
2643.757499	12421.400000
2645.169530	12476.500000
2646.582906	12416.900000
2647.992852	12478.200000
2649.405733	12428.100000
2650.815187	12504.700000
2652.224394	12600.800000
2653.631765	12516.800000
2655.042070	12582.000000
2656.450539	12502.000000
2657.857173	12605.300000
2659.263562	12589.600000
2660.668117	12648.400000
2662.074016	12776.300000
2663.478082	12743.900000
2664.881904	12825.600000
2666.285481	12787.600000
2667.687226	13001.300000
2669.090315	12942.900000
2670.489987	12888.400000
2671.891001	12817.900000
2673.288600	12732.600000
2674.689129	12712.100000
2676.086243	12758.000000
2677.484700	12711.000000
2678.881329	12714.300000
2680.277716	12696.300000
2681.673862	12766.900000
2683.068181	12608.900000
2684.463843	12623.600000
2685.856095	12699.800000
2687.249691	12689.900000
2688.641462	12833.200000
2690.034575	12638.900000
2691.425865	12640.900000
2692.815332	12711.700000
2694.204560	12724.400000
2695.593547	12724.300000
2696.983877	12812.800000
2698.369222	12837.900000
2699.757491	12785.200000
2701.143940	12801.700000
2702.530150	12884.500000
2703.916122	12787.400000
2705.298695	12886.800000
2706.682609	12838.800000
2708.066286	12894.300000
2709.449725	13018.900000
2710.829768	12920.600000
2712.211153	12999.000000
2713.590722	13049.100000
2714.971633	13053.000000
2716.350729	13165.000000
2717.728010	13027.900000
2719.106633	13154.500000
2720.483443	13185.800000
2721.860017	13219.100000
2723.236355	13245.000000
2724.610881	13283.800000
2725.986748	13355.100000
2727.359228	13393.600000
2728.734625	13413.400000
2730.105060	13413.400000
2731.476837	13389.400000
2732.848380	13415.700000
2734.218114	13454.700000
2735.589188	13547.800000
2736.958455	13616.000000
2738.327488	13520.400000
2739.694714	13683.000000
2741.061708	13693.300000
2742.428469	13559.800000
2743.794997	13638.300000
2745.159720	13732.300000
2746.524212	13811.100000
2747.888471	13745.100000
2749.252499	13890.400000
2750.616294	13872.500000
2751.976716	13974.100000
2753.340049	13947.600000
2754.698439	13917.500000
2756.059739	13967.900000
2757.417668	14016.700000
2758.778507	13944.500000
2760.137545	13981.000000
2761.493215	14008.100000
2762.851793	14022.600000
2764.207005	14024.400000
2765.561987	14040.100000
2766.915172	14131.600000
2768.271264	14180.400000
2769.623992	14193.300000
2770.976491	14177.200000
2772.328762	14301.500000
2773.682372	14308.400000
2775.032620	14317.900000
2776.381075	14410.400000
2777.732434	14347.300000
2779.080434	14368.000000
2780.429773	14418.900000
2781.777319	14533.300000
2783.124638	14537.100000
2784.471731	14498.100000
2785.817033	14464.700000
2787.162109	14586.400000
2788.506959	14558.700000
2789.851582	14574.200000
2791.192854	14582.700000
2792.535464	14674.000000
2793.877848	14742.700000
2795.220008	14820.500000
2796.558818	14842.700000
2797.900527	14889.700000
2799.238889	14961.100000
2800.578588	14950.500000
2801.916501	15023.000000
2803.252630	15019.200000
2804.588536	15088.600000
2805.925778	15080.200000
2807.261237	15161.400000
2808.596473	15276.400000
2809.929927	15126.800000
2811.264717	15345.900000
2812.596166	15223.800000
2813.930511	15378.700000
2815.259958	15376.100000
2816.590742	15530.600000
2817.921304	15415.700000
2819.250087	15466.200000
2820.580207	15483.800000
2821.908547	15603.800000
2823.236667	15492.600000
2824.563010	15441.700000
2825.890688	15569.000000
2827.215034	15553.300000
2828.540715	15517.300000
2829.864621	15536.700000
2831.188308	15543.000000
2832.513330	15584.000000
2833.835023	15495.200000
2835.156496	15634.900000
2836.477751	15574.100000
2837.798787	15657.900000
2839.118051	15636.100000
2840.438650	15704.200000
2841.757477	15648.900000
2843.076086	15622.400000
2844.392925	15637.300000
2845.709546	15570.500000
2847.025949	15639.100000
2848.340584	15723.600000
2849.656553	15639.900000
2850.969202	15815.400000
2852.283187	15752.700000
2853.596955	15860.800000
2854.910506	15815.100000
2856.222290	15861.800000
2857.532309	15870.500000
2858.843661	15922.200000
2860.151699	15903.800000
2861.461072	15978.000000
2862.770229	16004.000000
2864.079171	15976.600000
2865.386350	16062.200000
2866.691765	16118.200000
2867.998515	16247.700000
2869.303502	16162.200000
2870.608276	16145.700000
2871.911288	16309.800000
2873.217182	16250.600000
2874.518220	16314.500000
2875.820593	16293.800000
2877.121206	16408.000000
2878.423153	16441.100000
2879.724887	16335.200000
2881.023317	16424.200000
2882.323080	16386.400000
2883.621085	16354.200000
2884.918879	16365.200000
2886.214917	16327.800000
2887.512288	16492.800000
2888.807903	16404.500000
2890.103307	16474.200000
2891.398501	16479.100000
2892.690396	16460.700000
2893.985168	16414.100000
2895.276643	16445.900000
2896.569452	16419.600000
2897.862049	16442.300000
2899.151353	16473.800000
2900.441989	16410.800000
2901.730874	16572.700000
2903.021092	16412.500000
2904.308018	16548.900000
2905.596276	16705.900000
2906.882784	16633.700000
2908.169085	16635.900000
2909.455177	16644.500000
2910.739521	16574.200000
2912.026737	16653.100000
2913.309126	16699.100000
2914.592846	16661.700000
2915.874821	16641.100000
2917.156589	16650.600000
2918.436611	16690.700000
2919.719503	16813.400000
2921.000650	16680.900000
2922.278515	16825.800000
2923.559249	16821.900000
2924.836702	16738.800000
2926.113950	16806.100000
2927.389455	16746.600000
2928.667828	16851.500000
2929.941386	16690.100000
2931.217812	16911.400000
2932.492497	16787.200000
2933.765442	16717.700000
2935.039717	16751.100000
2936.312253	16841.700000
2937.584585	16811.700000
2938.853644	16881.600000
2940.125567	16787.500000
2941.395753	16910.700000
2942.665736	16698.000000
2943.935515	16815.700000
2945.203557	16862.800000
2946.469864	16814.700000
2947.735968	16842.200000
2949.003402	16894.000000
2950.269102	17022.400000
2951.534599	17012.800000
2952.799894	16949.000000
2954.061924	16994.000000
2955.325285	16954.600000
2956.588444	16943.800000
2957.849870	17111.500000
2959.112626	17044.300000
2960.373651	17139.400000
2961.632945	17082.300000
2962.892038	17123.000000
2964.150931	17123.200000
2965.409624	17240.700000
2966.668117	17117.000000
2967.924881	17100.500000
2969.181445	17305.700000
2970.436282	17143.900000
2971.692448	17347.900000
2972.945358	17418.200000
2974.199598	17283.000000
2975.453639	17413.400000
2976.705954	17275.100000
2977.958071	17426.000000
2979.208463	17503.500000
2980.461710	17516.300000
2981.710180	17393.500000
2982.961504	17683.300000
2984.209580	17655.300000
2985.457458	17639.800000
2986.705139	17595.400000
2987.952624	17681.500000
2989.198387	17687.500000
2990.443953	17807.000000
2991.690848	17870.100000
2992.934497	17854.300000
2994.179475	17947.500000
2995.421210	17987.200000
2996.665796	18029.900000
2997.908662	18031.200000
2999.148288	18064.700000
3000.390765	18130.200000
3001.630001	18149.000000
3002.870565	18116.200000
3004.109412	18243.800000
3005.348065	18159.500000
3006.585002	18318.200000
3007.823266	18226.500000
3009.059816	18436.600000
3010.296171	18316.700000
3011.532333	18399.500000
3012.766782	18459.000000
3014.001037	18562.000000
3015.235099	18663.700000
3016.467449	18530.400000
3017.698087	18638.700000
3018.931571	18621.700000
3020.163343	18664.700000
3021.393405	18743.400000
3022.623275	18767.000000
3023.851435	18646.700000
3025.080921	18943.000000
3026.308699	18936.000000
3027.536285	18887.400000
3028.765197	18900.100000
3029.989367	18877.600000
3031.216380	18870.300000
3032.440170	18895.400000
3033.665285	19061.300000
3034.888694	18946.000000
3036.111914	19057.600000
3037.333428	19081.400000
3038.557783	19032.100000
3039.777403	19107.900000
3040.998348	19165.200000
3042.219105	19204.900000
3043.438158	19214.300000
3044.658537	19368.400000
3045.875699	19241.900000
3047.094186	19284.000000
3048.310972	19430.800000
3049.527569	19309.000000
3050.743979	19298.500000
3051.957175	19362.300000
3053.173209	19559.700000
3054.386031	19385.200000
3055.601690	19463.400000
3056.812626	19525.900000
3058.024887	19482.600000
3059.236962	19536.600000
3060.448850	19591.000000
3061.659040	19525.000000
3062.869045	19570.300000
3064.078863	19730.600000
3065.286985	19809.200000
3066.494921	19561.000000
3067.701163	19903.900000
3068.908728	19756.700000
3070.114600	19777.600000
3071.320286	19798.500000
3072.525787	20007.700000
3073.729596	19908.200000
3074.934728	19830.500000
3076.138167	20200.800000
3077.339914	20077.000000
3078.541478	20010.000000
3079.742858	20197.000000
3080.944054	20140.400000
3082.143560	20162.800000
3083.342882	20264.900000
3084.543528	20265.700000
3085.742485	20401.900000
3086.938246	20317.400000
3088.136837	20415.700000
3089.332234	20375.400000
3090.528954	20420.500000
3091.722482	20410.700000
3092.918839	20436.400000
3094.113508	20507.400000
3095.304987	20466.600000
3096.500797	20564.800000
3097.691914	20551.300000
3098.884353	20560.700000
3100.073605	20488.800000
3101.265683	20594.900000
3102.456076	20579.200000
3103.643284	20832.100000
3104.831815	20635.200000
3106.021668	20833.100000
3107.208336	20734.900000
3108.394825	20685.100000
3109.581134	20704.000000
3110.768765	20751.600000
3111.953215	20752.000000
3113.135984	20642.600000
3114.321577	20759.700000
3115.505489	20715.000000
3116.687723	20916.400000
3117.869779	20669.900000
3119.051656	20850.500000
3120.233355	20875.800000
3121.413376	20844.800000
3122.591721	20918.300000
3123.772887	20865.400000
3124.950877	20922.400000
3126.128690	20879.900000
3127.306326	20911.500000
3128.482287	20976.600000
3129.658072	20976.600000
3130.835177	20908.800000
3132.010608	21062.400000
3133.184366	20847.700000
3134.356452	21014.600000
3135.529858	20927.600000
3136.703089	21168.200000
3137.874647	21098.200000
3139.047527	21331.900000
3140.217239	21116.200000
3141.388272	21326.100000
3142.557634	21431.700000
3143.725327	21405.300000
3144.895835	21467.000000
3146.061684	21395.900000
3147.231843	21224.000000
3148.397344	21360.700000
3149.562672	21362.100000
3150.727826	21347.700000
3151.892806	21532.900000
3153.059107	21350.400000
3154.220754	21311.300000
3155.383722	21096.400000
3156.546516	21173.600000
3157.709138	21108.900000
3158.870095	20994.200000
3160.030879	21011.300000
3161.191491	20945.900000
3162.350440	20888.800000
3163.509216	20950.700000
3164.667821	20958.000000
3165.826254	20843.300000
3166.984515	21005.000000
3168.141114	21006.900000
3169.296052	21060.200000
3170.452309	20961.400000
3171.606906	21009.700000
3172.761331	21104.800000
3173.914097	21082.200000
3175.066693	21040.500000
3176.219118	21150.600000
3177.371374	21204.500000
3178.523460	21016.400000
3179.672399	21174.700000
3180.824145	21284.400000
3181.974234	21271.700000
3183.122665	21396.900000
3184.270928	21400.900000
3185.419021	21560.000000
3186.566946	21616.100000
3187.713216	21690.300000
3188.859317	21841.500000
3190.003763	21920.000000
3191.148042	21825.000000
3192.292153	21895.200000
3193.437582	21801.400000
3194.579872	21959.000000
3195.721994	21791.500000
3196.863950	21980.300000
3198.005738	21848.900000
3199.147359	21906.900000
3200.285844	21922.500000
3201.425647	21835.100000
3202.566768	21928.600000
3203.704754	22018.400000
3204.841091	22046.600000
3205.977262	22072.000000
3207.114751	21992.400000
3208.250591	21998.100000
3209.387747	22058.000000
3210.520291	22052.200000
3211.657117	22275.300000
3212.789331	22001.100000
3213.922863	22038.800000
3215.056229	21842.200000
3216.186468	21995.200000
3217.319505	21884.400000
3218.449416	21774.700000
3219.580644	21714.300000
3220.708746	21649.800000
3221.839645	21675.200000
3222.968901	21717.600000
3224.096512	21676.300000
3225.221002	21734.700000
3226.349767	21915.700000
3227.475410	21597.000000
3228.600890	21696.600000
3229.724729	21810.000000
3230.851362	21806.100000
3231.973398	21976.900000
3233.096750	21905.200000
3234.219940	21965.500000
3235.342968	21765.500000
3236.464356	21795.300000
3237.585583	21792.800000
3238.705171	21921.900000
3239.824598	21743.000000
3240.942387	21922.600000
3242.062969	21920.700000
3243.180436	22133.600000
3244.297744	22177.800000
3245.414890	22413.700000
3246.530401	22256.400000
3247.647227	22538.800000
3248.760942	22496.400000
3249.877448	22552.400000
3250.992318	22438.400000
3252.104080	22633.800000
3253.215683	22579.600000
3254.328600	22631.400000
3255.441359	22603.800000
3256.551011	22609.200000
3257.661978	22528.900000
3258.772786	22581.700000
3259.881962	22647.900000
3260.989507	22946.400000
3262.098367	22671.600000
3263.207068	22667.900000
3264.312667	22771.600000
3265.419581	22884.700000
3266.524865	22910.300000
3267.631463	23113.700000
3268.734961	22901.700000
3269.839773	22991.300000
3270.944428	22950.900000
3272.045984	23040.700000
3273.147385	23106.400000
3274.250099	23085.700000
3275.352656	23140.500000
3276.452118	23267.300000
3277.554362	23207.700000
3278.653512	23189.100000
3279.751036	23050.100000
3280.848405	23240.100000
3281.948557	23185.400000
3283.045615	23334.000000
3284.142518	23153.200000
3285.239267	23107.600000
3286.331456	23261.400000
3287.427895	23109.100000
3288.522711	23109.900000
3289.617372	23350.600000
3290.710412	23062.300000
3291.803298	23383.000000
3292.894563	23321.500000
3293.987141	23191.500000
3295.078098	23362.900000
3296.167437	23252.500000
3297.256621	23213.600000
3298.347119	23175.900000
3299.434532	23391.300000
3300.521793	23363.800000
3301.610366	23435.100000
3302.698786	23407.300000
3303.782659	23361.100000
3304.870774	23536.900000
3305.955808	23697.800000
3307.039226	23586.200000
3308.123955	23548.800000
3309.207070	23785.500000
3310.291496	23743.700000
3311.372844	23633.400000
3312.455504	24005.200000
3313.536550	23652.900000
3314.617445	23873.300000
3315.696727	23879.000000
3316.775858	23922.400000
3317.856300	23862.100000
3318.933669	23936.000000
3320.012349	24056.100000
3321.089417	23979.800000
3322.166335	24192.500000
3323.241642	23955.300000
3324.316800	24119.300000
3325.393270	24125.500000
3326.466668	24083.300000
3327.539918	24141.200000
3328.614479	24132.900000
3329.687430	24181.000000
3330.758774	24136.800000
3331.831428	24230.400000
3332.901015	24119.400000
3333.971913	24139.200000
3335.041204	24121.100000
3336.111806	24229.400000
3337.180801	24139.700000
3338.248190	24125.800000
3339.313974	24067.500000
3340.383984	24079.400000
3341.450931	24003.100000
3342.514816	24082.300000
3343.581469	24163.400000
3344.646517	24144.400000
3345.709963	24165.400000
3346.773261	24027.500000
3347.836414	24090.800000
3348.899420	24231.700000
3349.962279	24098.900000
3351.023537	24080.200000
3352.081738	24155.100000
3353.144160	24168.200000
3354.203525	24082.500000
3355.262745	24370.600000
3356.323275	24156.700000
3357.379295	24428.100000
3358.438080	24490.200000
3359.492357	24558.300000
3360.549397	24526.800000
3361.604840	24717.400000
3362.661591	24651.000000
3363.716745	24546.600000
3364.770301	24851.600000
3365.822260	24715.700000
3366.876981	24795.300000
3367.928653	24869.600000
3368.980182	24703.800000
3370.033020	24951.800000
3371.082810	25045.500000
3372.133908	24869.400000
3373.181961	24939.700000
3374.232774	24850.700000
3375.280541	25020.700000
3376.328166	25090.000000
3377.375649	25021.400000
3378.421538	25095.400000
3379.468736	24997.600000
3380.512892	25010.900000
3381.559806	25092.500000
3382.605128	24989.300000
3383.647410	25173.600000
3384.689550	25205.500000
3385.732998	25213.400000
3386.776306	25156.300000
3387.818023	25141.700000
3388.859599	25301.400000
3389.901035	25212.400000
3390.940881	25271.500000
3391.979140	25238.200000
3393.018706	25466.000000
3394.058131	25434.000000
3395.095970	25478.700000
3396.132221	25480.800000
3397.168332	25518.500000
3398.205751	25538.200000
3399.240137	25499.800000
3400.275830	25500.000000
3401.311384	25514.200000
3402.343907	25649.500000
3403.379183	25705.000000
3404.411428	25546.600000
3405.443535	25828.800000
3406.474058	25888.800000
3407.505889	25820.700000
3408.537580	25787.800000
3409.566245	25913.800000
3410.594771	25900.300000
3411.624605	25936.500000
3412.654300	25931.600000
3413.680970	26059.900000
3414.708947	26167.700000
3415.733899	26007.500000
3416.761601	26192.400000
3417.786280	26393.600000
3418.812265	26168.500000
3419.836670	26237.600000
3420.860939	26300.400000
3421.883629	26310.700000
3422.906183	26204.600000
3423.930043	26395.700000
3424.950883	26369.200000
3425.971588	26298.100000
3426.993598	26374.300000
3428.012590	26113.000000
3429.031447	26257.300000
3430.051609	26191.600000
3431.068755	26379.700000
