-117.384298	203.981593
-114.714698	204.403297
-112.048033	205.480669
-109.382120	207.034166
-106.719139	208.884241
-104.054729	210.851349
-101.393249	212.755944
-98.730339	213.986713
-96.072537	212.897203
-93.413304	214.715385
-90.754821	217.335664
-88.099261	218.962238
-85.442273	218.020280
-82.790382	218.272028
-80.137062	217.354545
-77.486662	212.120979
-74.834832	210.866434
-72.188093	210.416084
-69.539924	209.431469
-66.892499	208.097902
-64.247987	208.027273
-61.602047	209.990210
-58.961188	208.780420
-56.318900	211.392308
-53.679520	214.011888
-51.038712	213.404895
-48.398644	213.304196
-45.763648	215.653846
-43.127224	220.749650
-40.493702	225.375524
-37.858752	226.487413
-35.228867	230.316084
-32.595390	230.211189
-29.966975	230.441259
-27.339293	225.374126
-24.710184	220.410490
-22.086131	195.048951
-19.458489	116.521678
-16.835900	-38.516783
-14.214043	36.748252
-11.592916	607.397902
-8.972519	1430.220280
-6.355010	2093.740559
-3.736073	2544.953147
-1.120022	2777.332168
1.495301	2795.517483
4.109897	2594.682517
6.721610	2185.705594
9.334752	1580.497203
11.942860	840.492308
14.554550	145.111888
17.161209	-130.674126
19.769296	27.000699
22.376659	223.514685
24.978997	249.156643
27.584913	250.741259
30.185807	252.690909
32.788129	256.757343
35.385434	256.967832
37.986314	258.539161
40.582180	261.484615
43.179473	264.426573
45.776047	267.415385
48.367612	271.260140
50.960605	272.711888
53.550737	277.674126
56.142297	280.388112
58.730997	279.983916
61.321124	282.360839
63.906253	284.462937
66.492808	286.748252
69.078650	290.257343
71.661638	293.145455
74.246052	295.094406
76.823338	297.871329
79.404190	300.423776
81.982193	305.816084
84.559486	312.477622
87.138205	315.656643
89.711943	319.971329
92.287107	327.164336
94.859428	334.611888
97.431041	347.133566
99.999814	356.520280
102.570014	368.791608
105.137376	388.893007
107.706163	412.838462
110.272114	444.640559
112.835230	490.040559
115.401902	557.241259
117.959353	666.530769
120.522489	855.593706
123.080666	1192.938462
125.642396	1816.194406
128.199170	2881.817483
130.757371	4613.192308
133.310619	7079.954545
135.863168	10324.823776
138.419268	14154.895804
140.970421	18320.192308
143.520875	22554.130070
146.070632	26507.486713
148.617571	29863.786713
151.163813	32492.201399
153.711481	34258.706993
156.258453	35318.396503
158.800490	35802.096503
161.341833	35981.727273
163.882483	35979.535664
166.424559	35940.306294
168.963823	35914.779021
171.500279	35898.584615
174.036043	35942.241958
176.573233	35946.635664
179.109732	35919.593007
181.643425	35939.704196
184.174315	35889.585315
186.704516	35876.220280
189.236142	35855.587413
191.764967	35829.593706
194.290993	35817.007692
196.816333	35786.598601
199.343099	35756.769930
201.867067	35693.319580
204.390351	35642.911189
206.912950	35558.882517
209.432756	35486.980420
211.951879	35465.552448
214.470319	35419.445455
216.990183	35422.588112
219.503046	35467.443357
222.019440	35505.667133
224.535152	35587.985315
227.045974	35650.753846
229.558222	35711.294406
232.067686	35750.430070
234.576472	35789.870629
237.084580	35812.494406
239.594111	35838.732168
242.098762	35879.003497
244.602738	35931.595804
247.108137	36006.474126
249.608661	36061.238462
252.112708	36090.904895
254.609785	36123.838462
257.110384	36129.327273
259.608212	36110.728671
262.105367	36045.927972
264.601849	35975.696503
267.093468	35917.144755
269.588607	35826.820979
272.080980	35747.065035
274.572682	35690.411888
277.061620	35629.164336
279.551983	35546.246853
282.039583	35516.367832
284.524425	35466.149650
287.012780	35434.504895
289.494196	35412.355245
291.979126	35420.318881
294.459211	35413.969930
296.942808	35438.418182
299.421562	35413.104895
301.901740	35413.048252
304.379165	35365.690210
306.855927	35330.001399
309.332026	35291.117483
311.805376	35330.105594
314.278064	35329.968531
316.750091	35369.762238
319.221457	35424.842657
321.690079	35482.820280
324.158041	35540.871329
326.627425	35592.088811
329.091987	35629.895804
331.560053	35679.562937
334.023299	35696.132168
336.485887	35720.575524
338.947819	35731.576224
341.409094	35787.308392
343.867635	35785.160140
346.327598	35759.569231
348.784828	35723.495105
351.241404	35693.758042
353.697326	35661.000699
356.150519	35577.302098
358.605133	35519.605594
361.054946	35476.335664
363.508255	35427.588811
365.956766	35338.563636
368.404626	35285.144056
370.853907	35252.367832
373.298395	35236.967133
375.744305	35225.306294
378.189566	35225.936364
380.632107	35260.083916
383.074001	35259.523776
385.515248	35261.793706
387.953779	35287.165734
390.393732	35278.167832
392.830971	35243.295105
395.265498	35187.903497
397.703513	35196.754545
400.136751	35178.110490
402.571411	35161.654545
405.001297	35141.465035
407.434669	35155.620979
409.863271	35187.093706
412.291232	35224.706993
414.720613	35271.122378
417.145229	35348.996503
419.571267	35420.226573
421.996664	35507.589510
424.421421	35641.102098
426.841420	35758.928671
429.262840	35857.762238
431.681563	35935.805594
434.101707	36054.006294
436.519156	36131.995804
438.938025	36188.155245
441.354201	36239.734266
443.765630	36281.313986
446.180535	36333.342657
448.592750	36378.734965
451.004331	36401.602797
453.415278	36425.240559
455.823539	36396.982517
458.231167	36385.085315
460.638164	36359.846853
463.044528	36331.523077
465.448210	36276.500000
467.851262	36274.218881
470.253684	36259.885315
472.655477	36265.234266
475.054591	36250.623077
477.455125	36251.972727
479.855030	36212.804895
482.250212	36195.410490
484.648861	36147.020280
487.042790	36087.823077
489.436093	36048.547552
491.828770	35999.897902
494.220822	35963.117483
496.614292	35939.077622
499.003051	35920.038462
501.389143	35922.374126
503.776654	35876.804196
506.163543	35878.707692
508.547768	35870.014685
510.933412	35900.598601
513.316393	35890.773427
515.696714	35905.238462
518.078454	35916.149650
520.457535	35944.318881
522.838035	35966.494406
525.215877	35998.820979
527.591064	36026.669231
529.965633	36065.858042
532.341621	36102.455245
534.714955	36123.093706
537.089707	36159.555944
539.459774	36172.889510
541.829225	36178.912587
544.200094	36195.660839
546.566283	36216.356643
548.933890	36243.770629
551.298851	36291.641958
553.663199	36317.413287
556.026935	36340.788811
558.392088	36415.558741
560.752568	36439.828671
563.114467	36422.528671
565.473726	36434.495804
567.830346	36418.306294
570.190411	36401.118182
572.543786	36352.587413
574.900605	36296.460839
577.254788	36252.723077
579.608364	36218.888112
581.961331	36157.738462
584.311667	36109.425175
586.663419	36080.111189
589.008495	36029.497203
591.359035	36013.832867
593.702901	36002.450350
596.052229	35983.904895
598.396909	35990.372727
600.738963	35952.157343
603.082435	35951.959441
605.423284	35956.985315
607.763531	35929.281818
610.101157	35888.758741
612.442218	35838.251049
614.778641	35813.707692
617.116481	35790.690210
619.451704	35764.034266
621.784311	35758.006993
624.118334	35738.241259
626.449744	35745.381818
628.780555	35717.529371
631.110768	35762.739161
633.440383	35787.750350
635.765376	35806.872028
638.095810	35808.164336
640.421622	35843.383217
642.744828	35870.589510
645.069449	35904.116084
647.391465	35923.400699
649.712888	35971.235664
652.031707	35971.395105
654.351942	35972.555944
656.671584	36015.069930
658.988625	36030.571329
661.305074	36027.532168
663.618925	36035.093007
665.934192	36034.934965
668.246862	36035.045455
670.560947	36019.099301
672.870432	36043.051049
675.181333	36044.237762
677.489641	36048.620979
679.797361	36023.358741
682.106496	36000.897203
684.411038	36019.374126
686.714993	35953.610490
689.018363	35915.013986
691.323147	35905.355245
693.623345	35865.206993
695.924957	35839.834965
698.225985	35822.134965
700.522430	35794.487413
702.820291	35774.809091
705.117568	35774.574126
707.414262	35795.231469
709.706380	35812.541958
712.001909	35831.830769
714.292865	35821.490909
716.585235	35862.696503
718.875029	35911.754545
721.164243	35944.284615
723.452878	36021.383916
725.738941	36041.469231
728.026417	36040.630070
730.311322	36057.497902
732.595650	36078.762238
734.877409	36121.006294
737.160582	36133.897203
739.443178	36157.181119
741.721219	36199.443357
744.000673	36281.672028
746.279552	36326.316783
748.557855	36393.937762
750.831609	36479.381818
753.106777	36495.525175
755.381371	36496.147552
757.653405	36476.952448
759.926853	36442.593706
762.197743	36448.866434
764.466077	36408.260140
766.735824	36380.148951
769.003017	36352.482517
771.269639	36362.765734
773.535691	36353.949650
775.799192	36359.517483
778.064106	36368.462238
780.328450	36357.413287
782.588265	36383.054545
784.849493	36415.531469
787.110152	36428.453147
789.368266	36477.867832
791.623835	36499.191608
793.882795	36493.806993
796.135256	36505.081818
798.393084	36553.367133
800.646392	36555.523077
802.897161	36509.830769
805.149342	36497.449650
807.398985	36470.193007
809.650039	36475.329371
811.896582	36460.918881
814.144537	36439.452448
816.389958	36465.584615
818.636790	36488.839161
820.883061	36487.122378
823.124828	36522.078322
825.369977	36566.313287
827.608654	36579.035664
829.850713	36548.344755
832.088274	36559.526573
834.327247	36565.912587
836.563693	36563.791608
838.801550	36564.365734
841.036882	36569.569930
843.269691	36617.151049
845.503911	36631.793706
847.735609	36691.909790
849.966751	36733.357343
852.197340	36760.578322
854.427373	36804.986713
856.656853	36855.885315
858.881851	36949.507692
861.110224	37020.512587
863.334118	37055.597203
865.559422	37101.599301
867.780251	37132.125175
870.004452	37196.492308
872.224180	37223.297203
874.445319	37261.411189
876.665907	37261.536364
878.883985	37290.246853
881.103474	37317.471329
883.318495	37312.276923
885.532970	37312.285315
887.746896	37258.748252
889.960276	37197.193706
892.173108	37159.924476
894.385394	37119.544755
896.595177	37074.537063
898.804415	37029.732867
901.013108	37047.023776
903.219302	37069.258042
905.426905	37120.834266
907.632010	37153.816783
909.836572	37162.944056
912.038639	37210.084615
914.242115	37249.891608
916.443097	37322.178322
918.643538	37358.918881
920.845386	37372.459441
923.040844	37376.024476
925.239661	37394.201399
927.434039	37444.977622
929.631775	37455.918182
931.825075	37478.021678
934.019784	37531.314685
936.212007	37548.167832
938.403692	37571.433566
940.594839	37625.075524
942.783503	37706.537063
944.971630	37718.589510
947.157277	37780.649650
949.346276	37860.526573
951.530852	37920.110490
953.714893	37997.039860
955.902284	38055.000699
958.081371	38124.684615
960.263809	38240.544755
962.445713	38311.056643
964.625143	38370.710490
966.802099	38460.974126
968.980464	38550.789510
971.160236	38556.804196
973.333659	38601.849650
975.510428	38659.344755
977.682790	38690.076224
979.856560	38710.611888
982.025926	38688.877622
984.198637	38711.463636
986.368881	38728.980420
988.538597	38732.917483
990.707784	38754.814685
992.872574	38772.753147
995.040705	38840.497902
997.204442	38861.846853
999.369585	38922.439161
1001.532270	38972.096503
1003.694428	38990.059441
1005.854130	38994.127972
1008.013308	38929.432867
1010.173892	38910.774825
1012.332021	38811.591608
1014.489626	38727.900699
1016.646708	38641.347552
1018.803267	38550.998601
1020.955446	38535.190909
1023.109031	38524.127273
1025.262095	38505.853147
1027.412711	38498.486713
1029.564732	38522.522378
1031.712380	38541.499301
1033.863360	38543.379021
1036.009969	38569.877622
1038.156060	38521.077622
1040.301631	38508.849650
1042.448608	38475.933566
1044.589296	38466.174825
1046.733314	38468.839161
1048.874891	38500.574825
1051.015952	38514.193706
1053.158417	38549.479021
1055.294603	38570.503497
1057.434115	38555.782517
1059.569271	38544.142657
1061.707752	38525.196503
1063.841879	38488.521678
1065.975493	38495.359441
1068.110512	38480.723077
1070.241181	38480.467832
1072.373255	38487.932168
1074.502900	38512.631469
1076.632033	38546.303497
1078.760654	38561.036364
1080.888764	38576.120979
1083.014448	38592.288112
1085.139622	38592.760839
1087.266200	38584.617483
1089.388441	38567.397902
1091.512085	38585.988112
1093.631396	38562.584615
1095.755935	38557.834266
1097.874229	38577.321678
1099.993928	38556.909790
1102.111208	38567.954545
1104.227982	38544.627972
1106.344249	38603.878322
1108.458101	38640.789510
1110.573356	38642.874126
1112.684289	38626.102098
1114.798533	38629.937063
1116.908457	38677.884615
1119.019785	38722.654545
1121.130608	38763.115385
1123.237115	38810.840559
1125.346932	38777.347552
1127.452434	38798.038462
1129.559339	38785.290909
1131.660029	38820.112587
1133.765931	38802.925874
1135.867524	38783.002797
1137.970520	38728.704196
1140.073015	38699.132867
1142.169303	38687.188811
1144.270799	38691.653147
1146.367992	38650.058042
1148.464686	38654.971329
1150.560882	38639.345455
1152.656581	38670.742657
1154.751781	38693.861538
1156.844586	38709.371329
1158.938792	38709.267133
1161.026807	38734.654545
1163.120020	38720.820280
1165.207045	38744.596503
1167.297369	38756.453846
1169.383406	38792.037762
1171.472740	38788.193706
1173.555893	38802.097203
1175.640448	38821.497902
1177.726405	38854.425874
1179.808080	38879.962937
1181.891157	38885.371329
1183.971848	38891.777622
1186.052047	38935.196503
1188.131755	38958.959441
1190.210972	39028.057343
1192.287807	39080.097203
1194.362261	39138.339860
1196.440006	39209.793007
1198.513482	39252.337063
1200.588358	39338.915385
1202.658967	39422.065734
1204.730978	39489.756643
1206.800612	39540.662238
1208.871647	39595.822378
1210.942194	39640.265734
1213.008480	39664.715385
1215.076167	39708.155245
1217.141482	39755.983217
1219.208197	39829.293007
1221.270656	39874.455944
1223.336400	39879.410490
1225.397891	39923.253147
1227.460781	39996.994406
1229.521304	40060.969930
1231.581343	40086.458042
1233.640900	40135.087413
1235.698091	40169.985315
1237.754801	40204.293706
1239.809148	40255.290210
1241.866775	40301.749650
1243.922040	40374.152448
1245.973064	40375.609091
1248.025488	40424.141958
1250.077432	40497.979021
1252.127018	40648.646853
1254.176125	40737.345455
1256.224754	40805.565734
1258.272904	40879.630769
1260.320575	40952.200699
1262.364017	41008.941259
1264.410733	41024.940559
1266.455096	41055.897902
1268.498983	41112.121678
1270.540519	41149.842657
1272.579704	41218.638462
1274.622163	41292.717483
1276.660399	41429.302098
1278.700034	41523.690210
1280.739194	41660.070629
1282.774135	41784.315385
1284.810475	41945.754545
1286.844471	42146.046853
1288.879865	42349.543357
1290.911045	42658.425175
1292.943624	42958.639161
1294.975730	43323.195804
1297.005496	43695.809091
1299.036660	44083.757343
1301.063616	44513.827972
1303.091970	44997.774126
1305.116120	45538.539860
1307.143534	46066.090210
1309.166746	46735.381818
1311.191356	47821.885315
1313.213632	49620.439860
1315.237305	51957.431469
1317.258645	54526.769231
1319.279517	57190.698601
1321.299922	59682.322378
1323.316134	61842.639860
1325.333743	63546.237063
1327.349024	64706.874825
1329.367564	65233.851748
1331.381915	65542.387413
1333.393940	65617.155245
1335.409222	65339.792308
1337.420319	64671.660839
1339.432813	63290.951049
1341.441124	61243.593706
1343.452691	58737.148252
1345.458218	55863.843357
1347.467001	52861.638462
1349.471606	49999.468531
1351.479465	47505.590210
1353.486862	45630.290909
1355.488228	44710.536364
1357.490991	44195.698601
1359.493293	43814.434965
1361.495136	43490.539860
1363.496519	43202.459441
1365.495589	42983.816084
1367.494200	42820.457343
1369.492353	42644.238462
1371.490047	42512.459441
1373.483579	42432.348252
1375.478507	42371.085315
1377.472977	42323.802098
1379.466992	42273.316084
1381.458698	42223.666434
1383.449950	42195.717483
1385.438896	42185.281119
1387.429237	42183.504196
1389.419123	42172.719580
1391.406706	42153.493706
1393.393834	42177.703497
1395.378662	42228.246154
1397.364883	42295.518182
1399.348805	42401.291608
1401.332274	42439.709790
1403.315291	42484.952448
1405.296009	42550.770629
1407.278123	42587.490909
1409.257939	42665.338462
1411.237305	42723.848951
1413.212531	42742.706993
1415.190997	42829.281119
1417.167168	42902.786713
1419.142891	42987.137762
1421.118164	43092.476224
1423.091146	43196.068531
1425.063680	43240.766434
1427.035767	43343.074825
1429.007405	43411.200699
1430.974915	43501.980420
1432.947500	43577.496503
1434.912278	43638.269930
1436.882128	43689.464336
1438.847855	43725.572727
1440.814974	43713.682517
1442.779810	43712.267832
1444.740526	43699.036364
1446.706311	43660.989510
1448.666140	43676.869930
1450.627362	43687.628671
1452.589977	43700.983916
1454.548477	43737.734266
1456.506534	43724.187413
1458.464150	43738.703497
1460.421324	43745.504895
1462.376222	43745.864336
1464.332512	43733.622378
1466.286528	43677.565734
1468.240104	43642.016783
1470.191407	43622.558042
1472.144102	43627.288112
1474.094526	43581.869930
1476.044510	43531.646154
1477.994056	43513.877622
1479.941333	43470.887413
1481.886343	43507.069231
1483.832744	43530.004895
1485.778708	43567.467832
1487.724235	43605.567832
1489.667497	43620.809091
1491.610322	43717.146853
1493.550884	43738.978322
1495.492837	43789.028671
1497.432528	43848.573427
1499.371785	43921.148252
1501.310606	43989.639860
1503.247168	44017.582517
1505.185121	44110.697902
1507.120815	44133.551748
1509.056076	44189.753147
1510.989081	44272.403497
1512.921653	44312.720280
1514.853793	44367.868531
1516.785501	44409.352448
1518.714955	44503.360140
1520.645800	44566.442657
1522.576213	44653.193007
1524.502554	44681.786713
1526.430286	44708.137762
1528.355767	44731.755245
1530.280819	44728.005594
1532.205442	44740.951049
1534.129636	44778.219580
1536.051583	44807.146154
1537.974919	44816.769930
1539.896010	44886.317483
1541.814856	44945.549650
1543.735092	44985.068531
1545.653084	45011.559441
1547.570650	45009.632168
1549.485974	45023.809091
1551.402688	44984.602797
1553.315347	44914.081119
1555.231210	44905.167133
1557.144833	44904.446154
1559.056219	44877.951748
1560.968993	44854.486713
1562.877718	44846.677622
1564.787833	44860.532168
1566.697523	44888.179021
1568.606791	44873.049650
1570.513825	44839.867133
1572.418626	44878.338462
1574.324816	44866.493007
1576.228774	44834.734965
1578.132312	44908.080420
1580.035428	44898.355245
1581.936316	44889.047552
1583.838591	44864.434965
1585.738639	44824.582517
1587.640074	44825.741958
1589.537476	44807.746853
1591.434459	44781.478322
1593.331024	44733.882517
1595.228977	44753.874825
1597.121095	44744.509091
1599.016406	44753.730769
1600.911300	44784.109790
1602.803972	44789.629371
1604.696228	44786.276224
1606.586263	44768.193706
1608.475884	44782.400000
1610.365088	44819.410490
1612.253878	44868.327972
1614.140450	44944.360140
1616.028410	44968.872727
1617.912353	45009.734266
1619.797684	45067.539161
1621.682600	45132.419580
1623.565303	45163.673427
1625.449393	45203.058741
1627.329472	45218.004895
1629.210937	45239.285315
1631.090192	45272.774825
1632.970833	45308.721678
1634.845670	45367.425874
1636.725489	45409.454545
1638.601302	45446.151049
1640.476705	45495.937063
1642.353495	45543.306294
1644.224487	45583.961538
1646.098661	45646.503497
1647.968837	45644.011888
1649.842193	45660.541259
1651.713346	45651.358741
1653.582297	45655.106294
1655.452634	45642.243357
1657.318977	45591.077622
1659.186706	45582.562238
1661.052237	45554.658741
1662.919152	45491.235664
1664.782079	45451.884615
1666.646391	45445.538462
1668.508507	45440.133566
1670.370219	45392.893706
1672.233315	45369.383217
1674.094217	45350.959441
1675.952925	45376.358741
1677.811230	45372.434266
1679.670920	45342.366434
1681.524843	45377.412587
1683.381938	45386.020979
1685.238631	45379.359441
1687.091348	45376.703497
1688.947235	45375.826573
1690.799149	45346.992308
1692.650662	45332.099301
1694.501774	45248.125175
1696.352486	45192.901399
1698.202797	45161.777622
1700.050924	45152.098601
1701.900434	45078.317483
1703.744196	45045.667832
1705.592907	45045.104196
1707.435873	45016.095804
1709.282004	45012.048951
1711.124174	45035.100699
1712.969508	45045.446154
1714.809102	45061.137063
1716.650080	45038.234266
1718.492441	45061.808392
1720.330846	45108.405594
1722.170634	45153.433566
1724.008247	45097.691608
1725.845464	45079.200699
1727.680508	45082.008392
1729.516935	45031.912587
1731.351190	45022.479021
1733.185050	44958.630070
1735.018517	44954.638462
1736.848037	44912.536364
1738.680716	44852.811189
1740.509451	44830.583916
1742.341344	44787.073427
1744.169294	44744.160839
1745.996852	44691.569231
1747.824018	44633.380420
1749.650793	44613.403497
1751.477177	44533.230769
1753.299623	44505.417483
1755.125225	44471.164336
1756.946892	44490.887413
1758.769941	44438.013287
1760.590828	44402.532867
1762.411327	44362.099301
1764.233207	44298.253846
1766.049387	44297.927273
1767.868719	44286.268531
1769.684124	44294.529371
1771.502679	44320.572028
1773.317309	44314.651748
1775.131553	44385.995804
1776.945409	44421.424476
1778.758879	44463.539161
1780.570196	44475.690210
1782.382894	44492.289510
1784.195205	44522.628671
1786.003599	44550.505594
1787.813373	44603.788811
1789.619233	44617.430070
1791.428238	44663.529371
1793.233330	44698.576923
1795.039803	44730.865035
1796.845892	44782.565734
1798.648071	44826.367133
1800.453393	44850.813287
1802.254807	44855.503497
1804.057601	44870.562238
1805.856489	44876.467832
1807.656758	44868.076923
1809.456645	44871.961538
1811.254391	44834.323077
1813.051755	44825.120979
1814.848740	44827.797902
1816.645344	44841.337063
1818.439809	44878.340559
1820.235653	44958.190210
1822.025843	44957.006294
1823.820928	45001.646853
1825.610362	44998.688112
1827.402932	44996.336364
1829.193367	45027.244755
1830.981668	45062.182517
1832.773104	45051.098601
1834.558894	45066.932168
1836.346064	45108.236364
1838.131102	45135.316783
1839.919274	45158.379021
1841.703560	45233.772028
1843.485717	45255.105594
1845.269252	45318.230070
1847.050659	45321.019580
1848.833445	45342.640559
1850.612350	45401.070629
1852.392635	45447.408392
1854.170793	45484.011189
1855.950330	45529.056643
1857.727742	45610.412587
1859.503030	45672.102098
1861.279697	45767.649650
1863.054240	45896.986713
1864.830162	45986.830769
1866.600463	46121.909790
1868.373892	46201.842657
1870.145201	46306.398601
1871.916140	46423.980420
1873.688455	46506.234965
1875.455157	46574.097203
1877.224985	46627.930769
1878.990949	46716.297203
1880.760037	46745.350350
1882.525263	46788.390210
1884.290120	46801.573427
1886.056355	46832.415385
1887.818731	46862.011189
1889.580740	46900.359441
1891.342381	46929.104196
1893.103656	46957.215385
1894.864563	46983.109790
1896.625104	47001.120280
1898.383535	47034.781119
1900.141601	47085.050350
1901.897558	47122.447552
1903.654892	47168.825175
1905.411861	47230.083217
1907.166724	47340.935664
1908.919481	47401.169930
1910.671875	47473.186713
1912.425644	47501.008392
1914.177310	47603.369930
1915.926874	47673.267133
1917.677813	47793.375524
1919.428390	47916.153147
1921.175127	48047.287413
1922.923241	48185.081119
1924.669255	48259.044056
1926.416645	48352.270629
1928.161936	48435.855944
1929.905130	48456.276923
1931.649699	48492.654545
1933.392173	48547.773427
1935.134286	48648.051049
1936.876039	48729.513287
1938.617433	48887.488811
1940.356732	49017.168531
1942.095673	49169.483217
1943.834256	49293.683916
1945.570746	49432.773427
1947.306879	49552.423776
1949.044386	49655.560839
1950.778071	49793.301399
1952.513131	49975.869930
1954.246103	50148.672727
1955.978718	50338.383916
1957.710976	50506.446853
1959.442878	50673.189510
1961.172694	50842.772028
1962.900425	51021.379021
1964.629531	51181.249650
1966.358282	51329.387413
1968.084949	51418.794406
1969.811262	51521.017483
1971.538948	51641.309790
1973.261098	51788.449650
1974.986349	51939.898601
1976.707794	52106.765734
1978.432338	52227.595105
1980.154803	52370.929371
1981.873464	52559.780420
1983.595224	52734.153147
1985.313182	52868.104895
1987.032513	52997.616783
1988.748045	53110.225175
1990.468397	53259.664336
1992.184951	53357.555944
1993.897708	53507.083916
1995.613562	53637.797203
1997.327342	53776.456643
1999.040773	53884.072727
2000.752133	53996.126573
2002.464866	54150.596503
2004.173807	54251.057343
2005.885842	54350.891608
2007.592367	54480.008392
2009.301985	54542.702098
2011.009535	54634.059441
2012.716738	54725.164336
2014.421875	54803.025175
2016.126665	54860.051049
2017.832827	54927.953846
2019.535207	54973.602797
2021.238959	55023.186014
2022.940647	55083.184615
2024.641991	55133.139860
2026.342989	55192.834965
2028.041927	55261.022378
2029.742235	55335.830769
2031.438769	55411.860140
2033.136674	55538.536364
2034.832520	55623.402797
2036.531452	55741.171329
2038.224898	55871.865035
2039.919715	55956.887413
2041.614190	56071.892308
2043.304896	56130.567133
2044.998686	56161.863636
2046.688709	56157.814685
2048.380103	56160.395804
2050.069444	56155.141259
2051.760155	56090.211189
2053.447103	56095.435664
2055.133712	56066.438462
2056.821691	56075.890210
2058.505910	56052.537762
2060.191499	56048.172727
2061.876749	56049.584615
2063.559951	56014.203497
2065.244522	55964.507692
2066.923631	55974.810490
2068.607525	55988.600000
2070.285959	56003.524476
2071.967469	56025.083916
2073.645229	56094.303497
2075.322651	56143.962238
2077.001443	56217.606993
2078.678193	56259.550350
2080.352901	56339.379720
2082.028978	56373.461538
2083.703015	56425.124476
2085.376716	56462.905594
2087.050082	56538.633566
2088.721410	56552.943357
2090.392403	56602.497902
2092.063062	56602.835664
2093.733386	56635.339860
2095.403377	56673.819580
2097.071332	56749.052448
2098.738954	56815.662238
2100.404541	56946.059441
2102.071498	57077.512587
2103.736420	57237.772028
2105.401011	57368.656643
2107.063570	57507.343357
2108.727497	57625.844056
2110.389394	57753.732168
2112.050959	57826.244755
2113.712193	57917.922378
2115.371399	57984.578322
2117.030274	58059.583217
2118.688820	58105.885315
2120.347036	58175.068531
2122.001528	58215.781818
2123.659085	58293.051049
2125.316313	58308.670629
2126.969819	58369.267133
2128.624693	58417.590909
2130.275849	58438.848951
2131.930066	58478.963636
2133.580567	58532.035664
2135.232434	58603.544755
2136.878893	58648.437762
2138.530107	58740.247552
2140.177607	58841.172028
2141.826474	58948.766434
2143.473323	59056.386713
2145.119845	59120.017483
2146.766042	59195.704196
2148.408531	59205.192308
2150.054078	59197.576923
2151.695918	59180.107692
2153.340815	59188.686014
2154.982007	59169.474825
2156.622875	59120.756643
2158.263419	59135.097902
2159.901951	59115.402797
2161.541849	59085.958741
2163.178047	59064.146154
2164.815612	59058.587413
2166.452853	59063.776224
2168.088085	59069.847552
2169.722996	59091.702797
2171.357585	59107.224476
2172.991852	59159.374126
2174.622426	59217.048252
2176.256052	59272.752448
2177.885986	59353.683916
2179.517285	59407.472727
2181.146579	59450.948951
2182.775554	59481.739860
2184.404210	59535.145455
2186.032546	59556.297203
2187.658879	59561.960140
2189.284894	59530.462238
2190.908908	59520.541259
2192.534286	59506.811888
2194.157665	59495.741958
2195.782407	59488.765035
2197.403469	59498.614685
2199.024214	59473.349650
2200.646324	59448.841958
2202.266436	59447.563636
2203.884551	59454.665035
2205.502351	59476.611189
2207.119836	59501.455245
2208.737005	59549.829371
2210.353859	59637.316084
2211.970398	59680.997203
2213.584943	59764.553147
2215.197496	59824.981818
2216.811413	59890.123776
2218.423339	59938.169930
2220.036628	60008.730070
2221.647927	60060.898601
2223.257236	60090.614685
2224.867909	60153.026573
2226.476593	60201.617483
2228.084965	60262.533566
2229.691349	60314.773427
2231.299097	60348.438462
2232.904858	60434.390210
2234.510308	60458.973427
2236.113773	60539.654545
2237.718601	60611.749650
2239.321445	60693.999301
2240.922307	60746.834266
2242.524530	60818.695804
2244.124772	60887.664336
2245.726376	60945.176224
2247.324328	60977.141259
2248.923642	61051.683217
2250.520976	61102.873427
2252.118001	61179.978322
2253.716389	61218.599301
2255.311128	61281.495105
2256.903890	61303.385315
2258.498015	61331.938462
2260.093501	61339.325175
2261.685343	61361.612587
2263.276878	61387.709790
2264.869774	61377.558042
2266.457361	61394.902797
2268.049645	61439.628671
2269.636621	61439.217483
2271.226626	61486.288811
2272.811326	61490.741958
2274.400719	61493.358741
2275.984811	61438.885315
2277.570264	61386.011888
2279.153747	61363.681119
2280.740257	61355.656643
2282.323133	61367.553846
2283.905705	61365.777273
2285.487974	61412.544056
2287.066614	61456.413636
2288.648277	61462.595105
2290.226312	61503.801049
2291.807370	61515.462238
2293.384801	61511.933916
2294.960269	61478.767832
2296.538759	61466.231818
2298.113625	61491.125874
2299.688190	61468.103147
2301.262455	61452.257343
2302.836419	61443.896853
2304.410083	61461.055944
2305.983446	61467.488112
2307.553191	61461.964336
2309.122637	61486.832168
2310.695101	61528.478322
2312.262291	61558.580420
2313.832499	61651.739860
2315.399092	61720.188112
2316.967045	61792.170629
2318.533042	61860.757343
2320.098742	61917.372028
2321.664145	61967.414685
2323.227593	62039.964336
2324.792401	62090.839860
2326.353601	62126.044056
2327.917815	62181.909091
2329.476767	62240.843357
2331.038734	62290.853147
2332.598750	62385.904895
2334.158470	62433.209091
2335.716241	62504.467133
2337.273717	62608.920280
2338.830899	62662.390210
2340.386134	62733.974825
2341.941074	62793.959441
2343.495721	62823.570629
2345.050074	62848.712587
2346.604133	62905.129371
2348.157898	62928.609091
2349.709720	62951.527972
2351.259598	62967.225874
2352.812484	62975.150350
2354.360128	62997.688112
2355.910779	63027.893007
2357.457839	63049.887413
2359.006258	63077.044056
2360.554384	63079.995105
2362.098922	63104.347552
2363.644818	63143.004196
2365.188776	63181.403497
2366.734091	63219.028671
2368.275821	63270.574126
2369.818908	63302.746154
2371.360060	63372.962238
2372.900922	63432.173427
2374.441495	63501.772028
2375.981778	63549.101399
2377.521773	63584.535664
2379.058190	63610.453147
2380.597608	63670.232867
2382.133449	63672.306294
2383.670646	63702.469930
2385.204268	63727.613986
2386.740891	63769.987413
2388.275582	63834.789510
2389.808344	63919.800000
2391.340819	64002.860839
2392.871367	64083.762238
2394.404912	64138.474126
2395.933245	64206.751049
2397.462936	64270.331469
2398.992341	64332.600699
2400.521460	64354.325175
2402.050295	64398.020280
2403.573924	64413.230070
2405.102190	64444.330070
2406.625252	64478.069231
2408.152948	64495.334965
2409.673805	64519.909790
2411.199295	64521.529371
2412.721224	64529.344056
2414.244509	64539.188811
2415.765873	64546.673427
2417.285317	64552.515385
2418.806116	64558.465035
2420.324996	64563.512587
2421.843594	64563.875524
2423.360275	64567.544755
2424.878310	64566.517483
2426.396064	64570.889510
2427.910267	64573.978322
2429.424189	64579.620280
2430.937831	64580.688811
2432.452828	64584.213986
2433.964276	64584.723077
2435.477079	64588.416783
2436.987968	64588.876923
2438.498579	64589.546154
2440.007278	64585.602797
2441.518963	64584.126573
2443.027105	64580.362238
2444.534969	64580.813986
2446.042555	64581.027273
2447.546600	64580.679720
2449.053631	64578.647552
2450.558753	64579.746154
2452.063598	64578.464336
2453.566535	64580.793007
2455.069197	64581.508392
2456.571582	64583.475524
2458.072062	64580.864336
2459.573895	64579.799301
2461.073824	64578.645455
2462.573477	64579.952448
2464.072854	64578.897902
2465.570329	64577.897902
2467.065902	64575.045455
2468.564455	64574.046154
2470.059480	64571.876923
2471.555858	64573.472028
2473.048708	64574.978322
2474.542912	64577.967133
2476.036842	64575.986014
2477.527248	64577.878322
2479.020632	64578.074825
2480.512118	64580.446154
2482.001707	64584.783916
2483.491024	64584.619580
2484.978446	64580.431469
2486.468843	64578.980420
2487.955721	64576.758741
2489.443951	64573.745455
2490.928665	64572.618881
2492.413108	64571.834965
2493.898903	64572.639161
2495.382805	64572.069930
2496.868059	64572.795804
2498.348178	64575.771329
2499.831271	64580.511888
2501.312473	64581.191608
2502.793406	64581.134965
2504.272450	64582.388811
2505.751225	64583.274126
2507.229732	64583.916783
2508.707971	64584.107692
2510.185941	64583.694406
2511.660407	64584.764336
2513.137841	64584.920280
2514.611772	64584.878322
2516.087053	64584.276224
2517.562068	64583.032168
2519.033581	64586.918182
2520.506444	64586.704895
2521.977425	64588.726573
2523.449756	64588.780420
2524.916974	64587.925175
2526.387157	64586.120979
2527.855460	64584.839860
2529.323498	64582.865035
2530.791271	64584.091608
2532.258779	64581.837063
2533.726022	64581.751049
2535.189773	64581.849650
2536.654874	64585.765035
2538.118098	64586.326573
2539.582672	64587.903497
2541.043756	64586.232867
2542.506190	64587.659441
2543.968361	64586.109790
2545.427046	64581.958042
2546.890303	64578.430769
2548.348463	64575.181818
2549.807972	64569.178322
2551.262388	64567.168531
2552.721373	64567.591608
2554.178487	64568.648252
2555.633730	64571.047552
2557.088712	64574.390909
2558.541824	64579.530769
2559.996285	64584.237063
2561.448877	64584.438462
2562.901209	64583.104895
2564.351673	64583.024476
2565.805093	64581.912587
2567.253431	64579.374126
2568.704725	64580.017483
2570.154152	64579.858741
2571.600107	64579.592308
2573.049018	64580.934266
2574.494457	64582.889510
2575.941245	64583.504895
2577.386169	64581.567133
2578.830835	64579.956643
2580.276850	64577.030070
2581.719397	64577.702098
2583.163292	64579.755944
2584.603722	64582.185315
2586.045499	64584.146853
2587.485417	64584.317483
2588.926682	64586.853846
2590.364486	64587.625874
2591.805239	64588.172727
2593.240929	64585.711189
2594.679569	64582.996503
2596.116352	64580.407692
2597.551278	64578.744056
2598.989153	64579.537063
2600.421969	64581.765035
2601.856133	64583.945455
2603.288443	64583.611189
2604.722099	64583.116084
2606.153902	64583.819580
2607.585452	64582.847552
2609.016748	64584.748951
2610.446192	64584.273427
2611.875384	64583.462238
2613.302726	64583.650350
2614.731414	64583.993706
2616.159849	64585.262238
2617.584837	64586.114685
2619.011172	64584.914685
2620.435658	64585.815385
2621.861490	64585.669930
2623.283878	64585.104196
2624.707612	64584.330769
2626.129499	64584.840559
2627.551137	64582.427273
2628.970929	64581.856643
2630.392067	64584.239161
2631.812955	64583.965734
2633.230405	64584.472028
2634.650794	64586.671329
2636.067746	64584.361538
2637.484449	64600.562238
2638.900905	64583.520979
2640.317111	64569.560140
2641.733070	64556.641958
2643.147188	64546.458042
2644.561059	64538.904895
2645.973090	64537.676923
2647.386466	64541.204895
2648.796412	64544.917483
2650.209293	64553.430769
2651.618746	64565.582517
2653.027954	64577.449650
2654.435324	64596.997902
2655.845630	64583.637762
2657.254099	64584.539860
2658.660733	64582.606294
2660.067122	64580.882517
2661.471677	64581.388112
2662.877576	64579.548252
2664.281642	64578.143357
2665.685463	64577.633566
2667.089041	64577.796503
2668.490786	64576.116783
2669.893875	64576.686713
2671.293546	64576.257343
2672.694561	64575.768531
2674.092160	64572.921678
2675.492689	64573.227972
2676.889803	64577.120280
2678.288260	64579.620280
2679.684889	64578.430769
2681.081276	64579.424476
2682.477422	64582.703497
2683.871741	64585.811189
2685.267403	64586.390909
2686.659655	64585.686713
2688.053250	64585.158741
2689.445022	64585.094406
2690.838135	64581.474126
2692.229425	64582.234965
2693.618892	64583.597902
2695.008119	64581.374825
2696.397107	64579.042657
2697.787437	64576.016783
2699.172782	64574.830769
2700.561051	64576.367133
2701.947500	64578.190909
2703.333710	64575.210490
2704.719682	64577.620979
2706.102254	64576.487413
2707.486169	64576.101399
2708.869846	64578.932867
2710.253285	64580.745455
2711.633328	64582.128671
2713.014713	64582.400699
2714.394282	64581.867832
2715.775193	64585.520280
2717.154288	64587.930769
2718.531570	64593.067832
2719.910193	64589.232867
2721.287003	64588.527273
2722.663577	64585.260140
2724.039915	64585.756643
2725.414441	64584.498601
2726.790308	64582.613287
2728.162788	64581.678322
2729.538184	64582.641958
2730.908620	64582.995105
2732.280397	64587.141958
2733.651939	64587.040559
2735.021673	64590.758741
2736.392748	64587.424476
2737.762014	64586.573427
2739.131048	64587.381119
2740.498274	64588.477622
2741.865268	64586.036364
2743.232029	64585.754545
2744.598557	64584.195804
2745.963280	64580.274126
2747.327772	64576.743357
2748.692031	64576.310490
2750.056058	64572.826573
2751.419854	64571.913986
2752.780276	64571.871329
2754.143609	64572.364336
2755.501999	64574.862937
2756.863299	64575.732168
2758.221228	64576.056643
2759.582067	64578.347552
2760.941105	64578.060839
2762.296775	64581.799301
2763.655353	64575.357343
2765.010564	64571.397203
2766.365547	64566.530769
2767.718732	64563.335664
2769.074824	64562.789510
2770.427552	64562.360839
2771.780051	64564.866434
2773.132322	64564.801399
2774.485932	64569.467133
2775.836180	64575.120280
2777.184635	64581.058042
2778.535994	64586.499301
2779.883994	64578.873427
2781.233332	64579.138462
2782.580879	64577.210490
2783.928198	64576.480420
2785.275291	64576.834965
2786.620593	64579.729371
2787.965669	64579.023077
2789.310518	64576.667832
2790.655142	64576.621678
2791.996414	64574.946853
2793.339024	64574.920979
2794.681408	64572.588112
2796.023568	64570.206294
2797.362378	64571.210490
2798.704087	64571.974825
2800.042449	64574.658042
2801.382148	64577.690909
2802.720061	64580.442657
2804.056190	64577.757343
2805.392095	64579.709790
2806.729338	64578.545455
2808.064797	64578.015385
2809.400033	64577.654545
2810.733486	64574.943357
2812.068277	64574.727273
2813.399726	64576.162238
2814.734071	64578.168531
2816.063518	64578.904895
2817.394302	64579.197902
2818.724864	64575.737762
2820.053647	64574.164336
2821.383766	64575.831469
2822.712107	64573.958741
2824.040227	64573.606993
2825.366569	64572.797203
2826.694248	64573.475524
2828.018593	64575.862937
2829.344275	64577.074126
2830.668181	64580.009790
2831.991868	64577.444056
2833.316890	64576.893007
2834.638582	64574.635664
2835.960056	64573.683916
2837.281311	64573.782517
2838.602347	64573.790210
2839.921611	64575.009091
2841.242210	64575.720979
2842.561037	64578.124476
2843.879646	64579.813287
2845.196484	64578.692308
2846.513105	64580.702098
2847.829509	64576.213986
2849.144144	64575.460140
2850.460113	64573.051748
2851.772762	64570.417483
2853.086747	64568.381119
2854.400514	64567.858741
2855.714066	64570.091608
2857.025850	64570.466434
2858.335868	64571.734266
2859.647221	64573.638462
2860.955259	64574.242657
2862.264632	64576.300699
2863.573789	64575.446853
2864.882731	64576.439161
2866.189909	64577.783217
2867.495325	64579.121678
2868.802075	64578.743357
2870.107062	64577.298601
2871.411836	64577.665734
2872.714848	64577.055245
2874.020742	64577.060839
2875.321780	64579.193706
2876.624153	64577.186713
2877.924766	64574.827273
2879.226713	64576.425175
2880.528447	64575.605594
2881.826876	64574.397902
2883.126640	64575.737762
2884.424645	64574.060140
2885.722439	64570.904196
2887.018477	64570.081119
2888.315848	64569.003497
2889.611463	64568.586014
2890.906867	64570.701399
2892.202061	64568.318881
2893.493956	64567.556643
2894.788728	64569.295105
2896.080203	64568.611189
2897.373011	64570.747552
2898.665609	64575.040559
2899.954913	64574.380420
2901.245549	64572.333566
2902.534434	64573.506294
2903.824652	64570.881119
2905.111577	64571.290909
2906.399836	64572.431469
2907.686344	64570.796503
2908.972645	64570.402797
2910.258737	64572.039161
2911.543081	64574.374825
2912.830296	64574.332867
2914.112685	64570.585315
2915.396406	64568.951748
2916.678381	64567.216783
2917.960148	64569.453846
2919.240171	64565.507692
2920.523063	64566.701399
2921.804210	64570.313986
2923.082075	64573.014685
2924.362809	64571.753147
2925.640262	64572.855245
2926.917509	64572.978322
2928.193015	64569.840559
2929.471388	64565.870629
2930.744946	64568.490909
2932.021372	64569.093007
2933.296057	64569.011888
2934.569002	64567.993007
2935.843277	64569.411888
2937.115813	64573.888811
2938.388145	64575.418881
2939.657203	64574.212587
2940.929127	64575.013986
2942.199313	64575.342657
2943.469296	64573.953147
2944.739075	64572.662238
2946.007117	64574.637762
2947.273424	64574.381818
2948.539528	64572.831469
2949.806962	64572.077622
2951.072662	64569.038462
2952.338159	64570.388112
2953.603454	64571.958042
2954.865484	64572.252448
2956.128845	64572.087413
2957.392003	64572.073427
2958.653430	64573.775524
2959.916186	64576.046154
2961.177211	64577.620979
2962.436504	64580.192308
2963.695598	64584.032168
2964.954491	64582.884615
2966.213184	64583.474825
2967.471677	64581.299301
2968.728441	64580.274825
2969.985005	64576.500699
2971.239842	64572.322378
2972.496007	64568.141259
2973.748918	64568.786014
2975.003158	64567.737063
2976.257199	64569.848951
2977.509514	64571.027972
2978.761631	64573.228671
2980.012022	64572.586713
2981.265269	64576.115385
2982.513739	64574.534965
2983.765064	64575.039161
2985.013139	64574.804196
2986.261018	64575.661538
2987.508699	64575.076923
2988.756184	64577.701399
2990.001946	64578.672028
2991.247513	64580.434965
2992.494407	64577.055944
2993.738057	64576.669930
2994.983035	64576.388112
2996.224769	64575.914685
2997.469355	64578.780420
2998.712222	64576.688811
2999.951848	64576.346853
3001.194324	64578.300699
3002.433561	64575.717483
3003.674125	64579.111888
3004.912972	64577.154545
3006.151625	64575.842657
3007.388562	64574.072727
3008.626826	64573.617483
3009.863376	64572.459441
3011.099731	64572.978322
3012.335893	64576.826573
3013.570342	64576.624476
3014.804597	64578.357343
3016.038659	64581.816084
3017.271009	64583.625175
3018.501647	64588.781818
3019.735131	64585.111888
3020.966903	64586.065035
3022.196965	64583.686713
3023.426835	64579.455944
3024.654995	64577.055245
3025.884481	64573.832168
3027.112259	64572.225874
3028.339845	64572.682517
3029.568757	64572.949650
3030.792927	64574.471329
3032.019940	64575.495105
3033.243729	64576.311189
3034.468845	64573.937762
3035.692254	64573.793007
3036.915473	64570.783916
3038.136987	64569.982517
3039.361343	64568.946853
3040.580962	64568.149650
3041.801908	64565.884615
3043.022665	64566.238462
3044.241718	64567.413986
3045.462097	64570.139161
3046.679259	64572.444755
3047.897746	64574.620280
3049.114531	64575.906993
3050.331129	64578.058741
3051.547538	64579.262238
3052.760735	64580.693706
3053.976769	64579.383217
3055.189591	64577.397902
3056.405250	64570.911189
3057.616186	64572.611888
3058.828447	64572.627273
3060.040522	64574.578322
3061.252410	64576.479720
3062.462600	64579.174825
3063.672604	64581.533916
3064.882423	64584.016783
3066.090545	64585.126923
3067.298481	64584.947552
3068.504723	64583.167483
3069.712288	64580.083217
3070.918160	64579.261189
3072.123846	64579.265734
3073.329347	64577.447902
3074.533155	64577.568531
3075.738287	64577.521329
3076.941727	64579.151049
3078.143474	64578.188462
3079.345038	64577.319580
3080.546417	64575.676224
3081.747614	64575.090909
3082.947119	64576.563636
3084.146442	64571.939161
3085.347088	64570.996503
3086.546044	64570.320280
3087.741806	64572.892308
3088.940397	64575.034266
3090.135794	64575.746154
3091.332514	64577.509091
3092.526042	64578.906294
3093.722398	64581.152448
3094.917068	64581.802797
3096.108547	64584.429371
3097.304357	64584.519580
3098.495474	64581.213287
3099.687913	64581.289510
3100.877165	64582.468531
3102.069243	64584.565035
3103.259636	64583.525874
3104.446844	64580.761538
3105.635375	64579.945455
3106.825228	64580.295105
3108.011896	64581.743357
3109.198385	64579.395804
3110.384694	64577.316084
3111.572325	64577.555245
3112.756775	64579.313287
3113.939544	64577.040559
3115.125136	64577.474126
3116.309049	64578.637762
3117.491283	64577.131469
3118.673338	64576.283916
3119.855216	64577.318182
3121.036915	64578.281818
3122.216936	64580.860140
3123.395281	64578.253147
3124.576447	64578.390909
3125.754437	64578.242657
3126.932250	64578.372727
3128.109886	64574.534266
3129.285847	64572.721678
3130.461631	64573.004196
3131.638737	64573.618182
3132.814168	64575.030070
3133.987926	64576.864336
3135.160012	64577.788112
3136.333418	64577.594406
3137.506649	64576.184615
3138.678207	64578.569231
3139.851086	64575.034266
3141.020799	64577.067133
3142.191831	64574.557343
3143.361194	64572.552448
3144.528887	64573.182517
3145.699395	64574.839860
3146.865244	64575.107692
3148.035403	64575.518881
3149.200904	64576.766434
3150.366232	64574.037762
3151.531386	64574.633566
3152.696366	64578.283217
3153.862667	64576.071329
3155.024314	64577.617483
3156.187282	64574.725874
3157.350076	64572.292308
3158.512698	64574.748252
3159.673655	64574.692308
3160.834439	64572.986014
3161.995051	64572.355944
3163.154000	64572.936364
3164.312776	64571.575524
3165.471381	64574.244755
3166.629814	64575.328671
3167.788075	64575.542657
3168.944674	64577.648252
3170.099612	64576.528671
3171.255869	64579.356643
3172.410466	64581.351748
3173.564891	64581.767133
3174.717657	64579.054545
3175.870253	64579.464336
3177.022678	64579.276224
3178.174934	64577.831469
3179.327019	64576.039860
3180.475959	64572.557343
3181.627705	64573.081119
3182.777793	64570.872727
3183.926225	64568.040559
3185.074488	64569.366434
3186.222581	64570.151748
3187.370506	64573.315385
3188.516776	64571.454545
3189.662877	64576.712587
3190.807323	64576.967832
3191.951602	64576.946154
3193.095713	64576.530070
3194.241142	64577.376923
3195.383431	64577.023077
3196.525554	64575.862937
3197.667509	64576.855245
3198.809298	64578.786713
3199.950919	64578.912587
3201.089404	64579.530769
3202.229207	64575.964336
3203.370328	64576.719580
3204.508314	64572.082517
3205.644651	64570.187413
3206.780822	64567.573427
3207.918311	64567.379720
3209.054150	64568.187413
3210.191307	64571.341259
3211.323851	64574.800000
3212.460677	64580.196503
3213.592891	64580.855245
3214.726422	64581.507692
3215.859789	64575.041958
3216.990028	64572.030070
3218.123065	64568.916084
3219.252976	64567.638462
3220.384203	64564.874825
3221.512306	64564.253147
3222.643205	64566.343357
3223.772460	64567.142657
3224.900072	64568.400000
3226.024562	64572.648951
3227.153326	64572.722378
3228.278970	64573.583217
3229.404450	64571.360839
3230.528289	64572.435664
3231.654922	64574.345455
3232.776958	64574.890210
3233.900310	64575.595105
3235.023500	64576.490909
3236.146528	64576.763636
3237.267916	64577.491608
3238.389143	64575.420979
3239.508731	64580.044755
3240.628158	64577.942657
3241.745947	64575.630769
3242.866529	64572.789510
3243.983996	64571.733566
3245.101303	64570.333566
3246.218450	64569.441958
3247.333961	64568.748951
3248.450787	64568.663636
3249.564502	64569.884615
3250.681007	64573.479021
3251.795878	64573.402797
3252.907640	64578.602797
3254.019243	64575.494406
3255.132160	64576.830769
3256.244919	64575.734965
3257.354571	64574.786713
3258.465537	64570.547552
3259.576345	64572.359441
3260.685522	64576.075524
3261.793067	64569.044755
3262.901926	64565.167133
3264.010628	64561.523077
3265.116227	64558.471329
3266.223140	64560.605594
3267.328424	64557.461538
3268.435023	64559.442657
3269.538521	64557.718881
3270.643333	64558.940559
3271.747988	64561.796503
3272.849544	64570.076923
3273.950945	64575.257343
3275.053659	64568.453147
3276.156216	64568.022378
3277.255677	64567.341958
3278.357922	64566.630070
3279.457071	64569.572028
3280.554596	64566.005594
3281.651965	64567.577622
3282.752117	64570.166434
3283.849175	64570.190909
3284.946078	64571.643357
3286.042826	64573.034266
3287.135016	64574.353846
3288.231454	64574.917483
3289.326270	64577.076224
3290.420932	64578.579720
3291.513972	64575.788112
3292.606858	64576.027273
3293.698123	64574.895804
3294.790701	64573.465035
3295.881658	64571.905594
3296.970996	64569.055944
3298.060181	64570.697902
3299.150679	64570.572727
3300.238092	64572.067832
3301.325353	64577.890210
3302.413926	64582.176224
3303.502346	64583.328671
3304.586219	64580.490909
3305.674334	64580.909790
3306.759368	64579.576923
3307.842785	64578.287413
3308.927515	64573.828671
3310.010630	64573.553147
3311.095056	64574.879720
3312.176404	64573.490909
3313.259064	64576.083217
3314.340110	64578.793706
3315.421005	64580.054545
3316.500286	64581.991608
3317.579418	64582.122378
3318.659860	64583.556643
3319.737229	64583.301399
3320.815908	64586.025874
3321.892977	64583.393007
3322.969895	64584.833566
3324.045202	64584.886713
3325.120360	64583.823077
3326.196829	64585.086713
3327.270228	64583.532168
3328.343478	64585.180420
3329.418038	64587.900000
3330.490990	64587.615385
3331.562333	64587.667832
3332.634988	64587.319580
3333.704575	64587.563636
3334.775473	64584.180420
3335.844764	64582.613287
3336.915366	64581.809091
3337.984361	64577.849650
3339.051750	64575.937762
3340.117534	64579.369930
3341.187544	64575.673427
3342.254491	64573.504895
3343.318376	64570.573427
3344.385029	64572.390210
3345.450077	64573.919580
3346.513522	64575.353147
3347.576821	64576.209790
3348.639973	64581.555944
3349.702979	64587.063636
3350.765839	64584.167133
3351.827097	64586.674126
3352.885298	64589.519580
3353.947720	64581.927273
3355.007085	64579.796503
3356.066305	64577.830070
3357.126835	64578.567832
3358.182855	64577.598601
3359.241640	64576.448951
3360.295917	64576.938462
3361.352957	64581.748951
3362.408400	64583.723776
3363.465151	64582.662937
3364.520304	64585.442657
3365.573861	64585.406294
3366.625820	64584.525874
3367.680541	64584.038462
3368.732213	64585.020979
3369.783742	64585.673427
3370.836579	64586.053846
3371.886369	64586.360839
3372.937468	64590.649650
3373.985521	64590.628671
3375.036334	64589.672727
3376.084101	64589.562238
3377.131726	64589.324476
3378.179208	64588.181119
3379.225098	64583.863636
3380.272296	64582.527273
3381.316452	64582.376224
3382.363366	64582.009091
3383.408688	64585.779720
3384.450969	64586.357343
3385.493110	64588.393007
3386.536558	64586.425175
3387.579866	64584.595105
3388.621583	64586.099301
3389.663159	64585.990909
3390.704595	64585.885315
3391.744441	64584.696503
3392.782700	64583.909790
3393.822266	64582.948951
3394.861691	64583.574825
3395.899529	64584.287413
3396.935780	64584.462937
3397.971892	64586.856643
3399.009311	64589.814685
3400.043697	64588.830769
3401.079390	64590.919580
3402.114944	64589.795804
3403.147467	64591.918881
3404.182743	64592.370629
3405.214988	64588.402797
3406.247095	64585.864336
3407.277618	64585.516783
3408.309448	64583.836364
3409.341140	64583.060839
3410.369805	64583.158741
3411.398331	64582.565035
3412.428165	64580.925874
3413.457860	64581.579720
3414.484530	64581.662238
3415.512507	64583.303497
3416.537459	64583.151049
3417.565161	64583.109091
3418.589840	64585.783916
3419.615825	64586.154545
3420.640230	64584.240559
3421.664499	64582.914685
3422.687189	64582.312587
3423.709743	64579.935664
3424.733603	64580.517483
3425.754443	64580.507692
3426.775148	64580.537063
3427.797158	64580.887662
3428.816150	64581.621379
3429.835007	64582.800100
3430.855169	64584.485714
3431.872315	64586.740110
