-118.187858	72.700000
-115.518258	88.100000
-112.851593	73.800000
-110.185680	73.400000
-107.522699	60.800000
-104.858289	72.300000
-102.196809	68.900000
-99.533899	92.400000
-96.876097	66.900000
-94.216864	70.000000
-91.558380	78.700000
-88.902821	81.900000
-86.245833	79.200000
-83.593942	88.400000
-80.940622	72.300000
-78.290222	81.100000
-75.638392	87.200000
-72.991653	77.100000
-70.343484	79.600000
-67.696059	70.000000
-65.051547	81.300000
-62.405607	75.100000
-59.764748	82.100000
-57.122460	73.300000
-54.483080	83.300000
-51.842272	85.300000
-49.202204	80.300000
-46.567208	79.100000
-43.930783	73.300000
-41.297262	66.200000
-38.662312	99.800000
-36.032427	80.100000
-33.398950	95.700000
-30.770535	85.200000
-28.142853	94.000000
-25.513744	91.100000
-22.889691	83.800000
-20.262049	102.700000
-17.639460	93.800000
-15.017602	113.200000
-12.396476	150.100000
-9.776079	256.400000
-7.158570	660.400000
-4.539633	1989.700000
-1.923582	4800.900000
0.691741	5914.800000
3.306337	3465.600000
5.918050	450.400000
8.531192	128.800000
11.139300	101.000000
13.750990	104.400000
16.357649	88.700000
18.965736	83.700000
21.573099	86.000000
24.175437	74.900000
26.781353	71.200000
29.382247	77.900000
31.984570	82.800000
34.581874	86.000000
37.182754	88.300000
39.778620	84.100000
42.375913	90.800000
44.972487	95.800000
47.564052	112.400000
50.157045	82.000000
52.747177	105.000000
55.338737	79.900000
57.927437	89.000000
60.517564	77.100000
63.102693	104.300000
65.689249	92.200000
68.275090	97.800000
70.858078	82.400000
73.442493	103.700000
76.019778	98.700000
78.600630	92.400000
81.178633	113.000000
83.755926	92.900000
86.334645	91.900000
88.908383	94.300000
91.483547	102.600000
94.055868	98.600000
96.627481	99.100000
99.196255	109.600000
101.766455	114.100000
104.333816	125.700000
106.902604	128.200000
109.468554	144.400000
112.031670	151.300000
114.598342	185.800000
117.155793	210.300000
119.718929	289.600000
122.277106	378.000000
124.838836	532.900000
127.395611	761.700000
129.953811	1110.300000
132.507059	1685.300000
135.059608	2380.800000
137.615708	3372.900000
140.166861	4369.200000
142.717315	5492.500000
145.267073	6288.100000
147.814011	6978.700000
150.360253	7341.500000
152.907922	7484.800000
155.454894	7717.600000
157.996930	7627.900000
160.538273	7716.800000
163.078924	7748.400000
165.620999	7694.900000
168.160264	7776.200000
170.696719	7767.400000
173.232484	7715.500000
175.769674	7728.700000
178.306172	7743.000000
180.839865	7763.800000
183.370755	7738.900000
185.900956	7758.700000
188.432582	7736.400000
190.961407	7709.100000
193.487433	7789.400000
196.012774	7728.500000
198.539539	7711.900000
201.063508	7803.400000
203.586791	7675.500000
206.109390	7746.200000
208.629196	7724.500000
211.148319	7734.500000
213.666759	7694.400000
216.186623	7696.800000
218.699486	7693.200000
221.215880	7737.600000
223.731592	7754.600000
226.242415	7765.000000
228.754662	7774.400000
231.264126	7757.300000
233.772912	7830.400000
236.281020	7762.700000
238.790551	7802.000000
241.295203	7834.900000
243.799178	7756.400000
246.304577	7776.400000
248.805101	7800.500000
251.309148	7787.300000
253.806225	7712.600000
256.306824	7748.200000
258.804652	7871.800000
261.301807	7725.500000
263.798289	7788.100000
266.289909	7741.800000
268.785047	7752.400000
271.277420	7747.500000
273.769122	7755.700000
276.258061	7695.600000
278.748423	7739.800000
281.236024	7698.000000
283.720865	7716.000000
286.209220	7750.300000
288.690636	7607.000000
291.175566	7742.900000
293.655651	7678.100000
296.139248	7690.300000
298.618002	7697.100000
301.098180	7664.000000
303.575605	7692.800000
306.052367	7706.700000
308.528466	7673.800000
311.001816	7698.900000
313.474504	7694.300000
315.946531	7660.700000
318.417897	7781.100000
320.886519	7766.000000
323.354481	7790.500000
325.823866	7787.200000
328.288428	7806.900000
330.756493	7782.600000
333.219739	7770.500000
335.682328	7812.700000
338.144259	7783.200000
340.605534	7806.500000
343.064075	7760.600000
345.524038	7744.300000
347.981269	7743.400000
350.437844	7768.900000
352.893766	7693.400000
355.346959	7760.700000
357.801573	7704.700000
360.251386	7665.600000
362.704696	7666.000000
365.153206	7626.700000
367.601066	7584.800000
370.050347	7595.900000
372.494835	7611.800000
374.940745	7543.300000
377.386006	7530.600000
379.828548	7587.300000
382.270442	7542.700000
384.711688	7576.300000
387.150219	7570.300000
389.590172	7545.200000
392.027411	7556.800000
394.461938	7506.000000
396.899953	7545.300000
399.333191	7522.500000
401.767851	7483.900000
404.197737	7479.100000
406.631109	7568.300000
409.059711	7550.500000
411.487672	7514.000000
413.917053	7494.000000
416.341669	7612.900000
418.767707	7565.600000
421.193104	7554.600000
423.617861	7609.100000
426.037860	7587.100000
428.459280	7685.500000
430.878003	7607.900000
433.298147	7585.300000
435.715596	7616.600000
438.134465	7588.900000
440.550641	7627.600000
442.962070	7703.900000
445.376975	7624.500000
447.789190	7637.100000
450.200771	7685.700000
452.611718	7718.700000
455.019979	7602.300000
457.427607	7611.600000
459.834604	7670.400000
462.240968	7638.800000
464.644650	7612.100000
467.047702	7617.500000
469.450124	7622.400000
471.851917	7661.800000
474.251031	7663.000000
476.651565	7596.800000
479.051470	7619.500000
481.446652	7588.500000
483.845301	7634.600000
486.239230	7632.400000
488.632533	7524.300000
491.025210	7561.600000
493.417262	7624.900000
495.810733	7536.300000
498.199491	7510.000000
500.585583	7502.700000
502.973095	7578.200000
505.359983	7574.200000
507.744208	7490.400000
510.129852	7532.300000
512.512833	7525.900000
514.893154	7470.500000
517.274894	7646.300000
519.653975	7546.300000
522.034475	7522.600000
524.412317	7463.900000
526.787504	7500.700000
529.162073	7456.400000
531.538061	7532.900000
533.911395	7558.700000
536.286148	7544.200000
538.656214	7480.900000
541.025665	7547.600000
543.396535	7523.200000
545.762723	7529.300000
548.130330	7552.400000
550.495291	7503.200000
552.859639	7552.600000
555.223375	7599.500000
557.588528	7567.600000
559.949008	7544.500000
562.310907	7563.100000
564.670166	7566.900000
567.026786	7539.300000
569.386851	7517.600000
571.740226	7530.400000
574.097045	7627.900000
576.451228	7475.200000
578.804804	7506.000000
581.157771	7482.800000
583.508107	7507.000000
585.859859	7524.000000
588.204935	7490.200000
590.555475	7433.000000
592.899342	7458.700000
595.248669	7434.600000
597.593349	7485.200000
599.935404	7485.400000
602.278875	7421.000000
604.619724	7504.500000
606.959971	7489.500000
609.297597	7478.200000
611.638658	7443.900000
613.975082	7532.200000
616.312922	7378.100000
618.648144	7437.200000
620.980751	7379.500000
623.314775	7394.100000
625.646184	7411.600000
627.976995	7406.200000
630.307208	7432.400000
632.636823	7474.900000
634.961816	7454.800000
637.292250	7506.800000
639.618062	7511.000000
641.941268	7516.600000
644.265889	7538.100000
646.587906	7502.400000
648.909328	7517.800000
651.228147	7512.900000
653.548382	7489.800000
655.868024	7497.700000
658.185065	7487.300000
660.501515	7486.800000
662.815366	7504.400000
665.130632	7490.900000
667.443302	7507.300000
669.757387	7467.900000
672.066872	7538.100000
674.377773	7577.600000
676.686081	7453.200000
678.993801	7535.100000
681.302936	7503.900000
683.607478	7514.700000
685.911434	7499.000000
688.214803	7502.600000
690.519587	7396.900000
692.819785	7436.200000
695.121398	7495.100000
697.422425	7414.400000
699.718870	7411.800000
702.016731	7424.000000
704.314008	7395.400000
706.610702	7410.100000
708.902820	7430.400000
711.198349	7452.000000
713.489305	7456.500000
715.781675	7487.000000
718.071469	7502.900000
720.360684	7398.700000
722.649318	7470.200000
724.935381	7455.300000
727.222857	7509.500000
729.507763	7452.800000
731.792090	7494.300000
734.073849	7498.900000
736.357023	7481.500000
738.639618	7467.700000
740.917659	7462.200000
743.197113	7494.400000
745.475992	7548.100000
747.754295	7541.500000
750.028049	7533.200000
752.303217	7509.700000
754.577811	7520.000000
756.849846	7465.700000
759.123293	7484.200000
761.394183	7568.600000
763.662517	7542.800000
765.932264	7466.600000
768.199457	7567.100000
770.466079	7507.000000
772.732132	7555.400000
774.995632	7519.800000
777.260546	7478.800000
779.524890	7509.000000
781.784705	7542.800000
784.045933	7527.000000
786.306593	7531.900000
788.564706	7535.600000
790.820275	7494.100000
793.079235	7473.700000
795.331696	7513.600000
797.589524	7505.700000
799.842832	7501.600000
802.093601	7567.400000
804.345782	7471.700000
806.595425	7572.500000
808.846479	7543.900000
811.093022	7475.400000
813.340978	7514.100000
815.586398	7543.600000
817.833230	7486.100000
820.079501	7497.800000
822.321268	7457.800000
824.566417	7458.900000
826.805094	7490.200000
829.047154	7462.600000
831.284715	7537.000000
833.523687	7496.200000
835.760133	7426.300000
837.997991	7468.600000
840.233323	7398.300000
842.466131	7463.200000
844.700351	7572.200000
846.932049	7452.200000
849.163192	7453.900000
851.393780	7479.200000
853.623814	7484.400000
855.853293	7550.700000
858.078291	7546.500000
860.306664	7463.100000
862.530558	7481.400000
864.755862	7528.500000
866.976691	7569.500000
869.200892	7522.100000
871.420620	7480.600000
873.641759	7511.600000
875.862347	7573.400000
878.080425	7612.200000
880.299914	7567.100000
882.514936	7508.400000
884.729410	7488.300000
886.943337	7576.200000
889.156716	7548.100000
891.369549	7495.300000
893.581834	7453.800000
895.791618	7523.900000
898.000856	7510.300000
900.209548	7431.000000
902.415742	7512.000000
904.623345	7531.200000
906.828451	7503.300000
909.033013	7473.300000
911.235079	7492.700000
913.438555	7510.800000
915.639537	7510.200000
917.839978	7557.500000
920.041827	7541.300000
922.237284	7553.700000
924.436101	7594.300000
926.630480	7518.000000
928.828215	7518.300000
931.021515	7572.600000
933.216224	7579.900000
935.408447	7539.900000
937.600132	7587.100000
939.791279	7527.000000
941.979943	7613.000000
944.168070	7592.800000
946.353717	7590.200000
948.542716	7607.200000
950.727292	7678.500000
952.911333	7682.300000
955.098724	7656.900000
957.277812	7729.300000
959.460249	7696.500000
961.642153	7716.700000
963.821583	7719.900000
965.998540	7764.400000
968.176905	7804.900000
970.356676	7812.700000
972.530099	7788.000000
974.706868	7795.500000
976.879231	7797.600000
979.053000	7840.300000
981.222366	7745.700000
983.395077	7813.400000
985.565321	7759.900000
987.735037	7769.300000
989.904224	7764.500000
992.069014	7840.900000
994.237145	7817.600000
996.400882	7819.200000
998.566025	7806.500000
1000.728710	7835.900000
1002.890868	7786.900000
1005.050570	7843.200000
1007.209748	7703.600000
1009.370332	7781.600000
1011.528461	7711.600000
1013.686066	7754.300000
1015.843148	7688.600000
1017.999707	7691.800000
1020.151886	7708.000000
1022.305471	7670.600000
1024.458535	7695.900000
1026.609151	7675.900000
1028.761172	7786.600000
1030.908820	7720.000000
1033.059800	7688.000000
1035.206409	7734.800000
1037.352500	7738.900000
1039.498071	7827.800000
1041.645048	7749.700000
1043.785737	7721.100000
1045.929754	7671.800000
1048.071331	7723.500000
1050.212392	7789.300000
1052.354857	7723.900000
1054.491043	7770.700000
1056.630555	7744.700000
1058.765711	7781.200000
1060.904192	7760.700000
1063.038320	7761.000000
1065.171933	7859.600000
1067.306952	7814.300000
1069.437621	7857.400000
1071.569695	7903.700000
1073.699340	7779.500000
1075.828473	7975.800000
1077.957094	7881.100000
1080.085204	7914.900000
1082.210888	7913.600000
1084.336062	8022.100000
1086.462640	7967.400000
1088.584881	8013.700000
1090.708525	8089.600000
1092.827836	8031.000000
1094.952375	8028.400000
1097.070669	8039.800000
1099.190368	8136.100000
1101.307648	8119.800000
1103.424422	8098.400000
1105.540689	8132.300000
1107.654541	8168.800000
1109.769796	8084.300000
1111.880729	8146.200000
1113.994973	8088.000000
1116.104897	8166.400000
1118.216225	8140.900000
1120.327049	8205.600000
1122.433556	8167.800000
1124.543372	8225.800000
1126.648874	8146.400000
1128.755779	8244.600000
1130.856469	8169.400000
1132.962371	8221.300000
1135.063964	8228.700000
1137.166960	8298.100000
1139.269455	8267.400000
1141.365744	8244.900000
1143.467239	8251.600000
1145.564432	8220.100000
1147.661126	8205.800000
1149.757323	8256.600000
1151.853021	8328.600000
1153.948222	8274.800000
1156.041026	8238.100000
1158.135232	8310.100000
1160.223247	8294.800000
1162.316460	8307.100000
1164.403485	8317.300000
1166.493810	8320.400000
1168.579846	8369.000000
1170.669180	8363.100000
1172.752333	8333.000000
1174.836889	8405.000000
1176.922845	8319.400000
1179.004520	8380.700000
1181.087597	8417.300000
1183.168288	8381.900000
1185.248487	8413.900000
1187.328195	8466.800000
1189.407412	8512.500000
1191.484247	8495.100000
1193.558701	8520.700000
1195.636447	8530.000000
1197.709922	8508.500000
1199.784798	8600.400000
1201.855407	8605.700000
1203.927418	8588.900000
1205.997052	8705.600000
1208.068087	8635.400000
1210.138634	8749.800000
1212.204920	8708.200000
1214.272607	8697.900000
1216.337922	8772.800000
1218.404637	8752.000000
1220.467096	8738.600000
1222.532840	8792.500000
1224.594331	8860.900000
1226.657221	8905.700000
1228.717744	8861.500000
1230.777784	8893.200000
1232.837340	8951.100000
1234.894531	8955.600000
1236.951241	9057.400000
1239.005588	9065.700000
1241.063215	9026.500000
1243.118480	9110.600000
1245.169504	9132.300000
1247.221928	9133.700000
1249.273873	9155.400000
1251.323458	9286.600000
1253.372565	9291.300000
1255.421194	9344.300000
1257.469344	9406.400000
1259.517016	9472.300000
1261.560457	9435.000000
1263.607173	9449.600000
1265.651537	9425.900000
1267.695423	9564.300000
1269.736959	9675.500000
1271.776145	9655.100000
1273.818603	9703.400000
1275.856839	9896.700000
1277.896474	9835.800000
1279.935634	9950.900000
1281.970576	10038.000000
1284.006916	10185.600000
1286.040911	10321.500000
1288.076305	10465.000000
1290.107485	10499.000000
1292.140064	10808.000000
1294.172170	11129.000000
1296.201936	11325.700000
1298.233100	11669.600000
1300.260056	12040.700000
1302.288410	12445.800000
1304.312560	13208.400000
1306.339974	13962.500000
1308.363187	14930.200000
1310.387796	16255.000000
1312.410072	17978.500000
1314.433745	20498.300000
1316.455085	24059.400000
1318.475957	30200.700000
1320.496363	39885.400000
1322.512574	56733.700000
1324.530184	64551.000000
1326.545465	64550.200000
1328.564005	64551.000000
1330.578355	64550.200000
1332.590380	64551.000000
1334.605662	64550.200000
1336.616759	64551.000000
1338.629253	64550.200000
1340.637564	64490.900000
1342.649131	38181.800000
1344.654658	27150.300000
1346.663441	21326.100000
1348.668046	18072.000000
1350.675905	15934.800000
1352.683302	14441.000000
1354.684668	13293.800000
1356.687431	12528.400000
1358.689733	11903.900000
1360.691576	11451.800000
1362.692960	11121.400000
1364.692029	10876.300000
1366.690640	10623.900000
1368.688793	10430.000000
1370.686488	10227.900000
1372.680019	10119.500000
1374.674947	9985.700000
1376.669418	9950.700000
1378.663432	9839.800000
1380.655139	9831.900000
1382.646390	9678.200000
1384.635336	9638.500000
1386.625677	9561.700000
1388.615563	9498.100000
1390.603146	9606.600000
1392.590275	9518.400000
1394.575102	9521.700000
1396.561323	9466.300000
1398.545245	9447.000000
1400.528714	9530.000000
1402.511731	9627.300000
1404.492450	9514.000000
1406.474563	9583.000000
1408.454379	9542.200000
1410.433745	9496.900000
1412.408971	9561.800000
1414.387437	9519.000000
1416.363609	9559.200000
1418.339331	9646.300000
1420.314604	9638.600000
1422.287586	9576.500000
1424.260120	9743.600000
1426.232207	9669.900000
1428.203845	9671.300000
1430.171355	9711.600000
1432.143940	9785.300000
1434.108718	9766.700000
1436.078569	9866.300000
1438.044295	9757.600000
1440.011415	9838.100000
1441.976250	9818.200000
1443.936967	9811.300000
1445.902751	9800.000000
1447.862580	9800.000000
1449.823802	9848.600000
1451.786417	9839.300000
1453.744917	9788.900000
1455.702975	9870.200000
1457.660590	9781.600000
1459.617764	9725.900000
1461.572662	9830.100000
1463.528952	9808.600000
1465.482968	9763.100000
1467.436544	9783.700000
1469.387847	9665.300000
1471.340542	9792.000000
1473.290966	9683.200000
1475.240951	9680.600000
1477.190496	9709.200000
1479.137773	9624.900000
1481.082783	9574.500000
1483.029184	9638.800000
1484.975149	9606.100000
1486.920675	9649.100000
1488.863937	9582.500000
1490.806762	9693.200000
1492.747324	9658.500000
1494.689277	9695.100000
1496.628969	9729.100000
1498.568225	9761.200000
1500.507047	9862.900000
1502.443608	9867.400000
1504.381561	9879.500000
1506.317256	9801.600000
1508.252517	9758.400000
1510.185521	9649.400000
1512.118093	9746.100000
1514.050233	9822.300000
1515.981941	9815.500000
1517.911395	9774.300000
1519.842240	9861.800000
1521.772654	9812.300000
1523.698995	9863.500000
1525.626726	9907.600000
1527.552207	9860.000000
1529.477259	9843.800000
1531.401882	9947.700000
1533.326076	9980.900000
1535.248023	9936.200000
1537.171359	9960.200000
1539.092450	10010.500000
1541.011296	10032.500000
1542.931532	10051.000000
1544.849524	10006.500000
1546.767090	10002.500000
1548.682414	10025.900000
1550.599128	10015.000000
1552.511787	9918.900000
1554.427650	9984.100000
1556.341273	9996.100000
1558.252659	9995.300000
1560.165433	9959.800000
1562.074158	9970.900000
1563.984273	10018.600000
1565.893964	9906.000000
1567.803231	9998.000000
1569.710265	9932.700000
1571.615066	9905.700000
1573.521256	9910.500000
1575.425214	9955.100000
1577.328752	9963.400000
1579.231868	9906.300000
1581.132756	10025.800000
1583.035031	9896.300000
1584.935079	9899.400000
1586.836515	9939.000000
1588.733916	9870.400000
1590.630899	9956.100000
1592.527464	9891.500000
1594.425417	9872.800000
1596.317535	9971.000000
1598.212846	9949.900000
1600.107740	9980.000000
1602.000412	9981.700000
1603.892668	9940.400000
1605.782704	9992.300000
1607.672324	9951.800000
1609.561529	9897.500000
1611.450318	9915.900000
1613.336891	9972.900000
1615.224850	10008.900000
1617.108793	9940.200000
1618.994124	10053.100000
1620.879040	10033.800000
1622.761744	9974.700000
1624.645833	9971.500000
1626.525912	10107.700000
1628.407377	10103.000000
1630.286632	10048.100000
1632.167273	10071.900000
1634.042110	10058.700000
1635.921929	10137.000000
1637.797742	10050.300000
1639.673145	10124.000000
1641.549935	10129.400000
1643.420927	10139.700000
1645.295101	10144.500000
1647.165277	10129.300000
1649.038633	10176.500000
1650.909786	10195.700000
1652.778737	10303.000000
1654.649074	10205.500000
1656.515417	10124.800000
1658.383146	10151.900000
1660.248677	10112.000000
1662.115592	10126.500000
1663.978519	10146.700000
1665.842831	10114.400000
1667.704947	10277.500000
1669.566659	10143.500000
1671.429755	10198.400000
1673.290657	10212.600000
1675.149365	10237.700000
1677.007670	10205.100000
1678.867360	10261.600000
1680.721283	10221.100000
1682.578378	10248.200000
1684.435071	10239.800000
1686.287788	10214.900000
1688.143676	10299.700000
1689.995589	10296.600000
1691.847102	10281.000000
1693.698215	10265.900000
1695.548926	10318.000000
1697.399237	10233.300000
1699.247364	10336.100000
1701.096874	10310.500000
1702.940636	10298.900000
1704.789348	10328.000000
1706.632313	10313.800000
1708.478444	10361.400000
1710.320614	10277.400000
1712.165948	10343.800000
1714.005542	10357.700000
1715.846520	10371.200000
1717.688881	10414.700000
1719.527286	10422.200000
1721.367074	10422.200000
1723.204687	10440.300000
1725.041904	10411.800000
1726.876948	10491.400000
1728.713375	10476.300000
1730.547630	10458.600000
1732.381490	10447.900000
1734.214957	10466.400000
1736.044477	10572.200000
1737.877156	10558.700000
1739.705891	10533.200000
1741.537784	10619.300000
1743.365734	10642.000000
1745.193292	10586.700000
1747.020458	10583.100000
1748.847233	10651.300000
1750.673617	10571.400000
1752.496064	10600.800000
1754.321665	10636.300000
1756.143332	10742.800000
1757.966381	10710.700000
1759.787269	10673.500000
1761.607767	10717.000000
1763.429647	10761.200000
1765.245827	10738.600000
1767.065159	10782.800000
1768.880564	10708.600000
1770.699119	10843.800000
1772.513749	10804.300000
1774.327993	10925.100000
1776.141849	10904.600000
1777.955319	10905.800000
1779.766636	10837.000000
1781.579334	10978.700000
1783.391645	10982.900000
1785.200039	10926.700000
1787.009814	10965.800000
1788.815673	11010.300000
1790.624679	10993.100000
1792.429771	11083.500000
1794.236243	11046.400000
1796.042332	10998.200000
1797.844511	11095.100000
1799.649833	11111.200000
1801.451247	11035.200000
1803.254041	11188.700000
1805.052929	11200.900000
1806.853198	11181.000000
1808.653085	11178.000000
1810.450831	11199.600000
1812.248196	11222.500000
1814.045180	11218.900000
1815.841784	11262.000000
1817.636249	11269.100000
1819.432093	11283.500000
1821.222283	11313.300000
1823.017369	11375.500000
1824.806802	11321.100000
1826.599372	11366.300000
1828.389807	11378.600000
1830.178108	11311.000000
1831.969544	11506.700000
1833.755334	11419.700000
1835.542504	11548.300000
1837.327542	11643.600000
1839.115714	11532.600000
1840.900000	11463.000000
1842.682157	11596.600000
1844.465692	11616.300000
1846.247099	11575.800000
1848.029885	11612.500000
1849.808791	11679.100000
1851.589075	11667.700000
1853.367233	11699.700000
1855.146770	11700.400000
1856.924182	11796.600000
1858.699470	11733.600000
1860.476137	11742.900000
1862.250681	11762.600000
1864.026602	11823.400000
1865.796904	11881.200000
1867.570332	11930.300000
1869.341641	11961.100000
1871.112580	11972.800000
1872.884895	11998.300000
1874.651598	12048.500000
1876.421425	11991.300000
1878.187389	12120.700000
1879.956477	12087.300000
1881.721703	12116.600000
1883.486561	12128.300000
1885.252795	12142.400000
1887.015171	12191.900000
1888.777180	12137.600000
1890.538822	12256.300000
1892.300096	12249.200000
1894.061003	12273.900000
1895.821544	12231.900000
1897.579975	12410.700000
1899.338041	12290.900000
1901.093998	12255.000000
1902.851333	12379.200000
1904.608301	12384.700000
1906.363164	12398.700000
1908.115921	12372.700000
1909.868315	12427.600000
1911.622084	12399.000000
1913.373750	12504.400000
1915.123314	12521.500000
1916.874254	12351.600000
1918.624830	12511.400000
1920.371568	12657.700000
1922.119681	12618.200000
1923.865695	12652.700000
1925.613085	12741.900000
1927.358376	12693.500000
1929.101570	12698.500000
1930.846140	12728.700000
1932.588613	12785.900000
1934.330726	12877.800000
1936.072479	12869.900000
1937.813873	12947.600000
1939.553173	13001.700000
1941.292114	12954.500000
1943.030696	13060.600000
1944.767186	13116.300000
1946.503319	13173.800000
1948.240826	13231.300000
1949.974512	13181.300000
1951.709571	13201.700000
1953.442543	13294.100000
1955.175158	13206.000000
1956.907416	13317.000000
1958.639318	13335.800000
1960.369134	13402.800000
1962.096866	13450.100000
1963.825971	13467.800000
1965.554722	13396.100000
1967.281389	13578.800000
1969.007702	13621.000000
1970.735388	13698.200000
1972.457538	13663.100000
1974.182789	13685.600000
1975.904234	13776.500000
1977.628778	13794.300000
1979.351243	13829.000000
1981.069904	13955.400000
1982.791664	14003.600000
1984.509622	13924.800000
1986.228954	13992.500000
1987.944485	14117.800000
1989.664838	14139.600000
1991.381391	14217.000000
1993.094149	14191.500000
1994.810002	14194.900000
1996.523782	14257.100000
1998.237213	14409.800000
1999.948573	14357.700000
2001.661306	14426.800000
2003.370247	14519.300000
2005.082282	14502.100000
2006.788807	14578.800000
2008.498425	14579.700000
2010.205975	14669.300000
2011.913178	14732.600000
2013.618315	14716.900000
2015.323105	14758.400000
2017.029267	14904.800000
2018.731647	14783.900000
2020.435399	14902.500000
2022.137087	14896.400000
2023.838431	14982.500000
2025.539429	14968.600000
2027.238367	14967.200000
2028.938675	14998.100000
2030.635209	15133.100000
2032.333114	15122.300000
2034.028961	15099.300000
2035.727892	15236.300000
2037.421338	15262.400000
2039.116156	15293.100000
2040.810630	15351.900000
2042.501336	15409.800000
2044.195126	15409.000000
2045.885149	15416.800000
2047.576543	15369.000000
2049.265884	15492.800000
2050.956595	15365.600000
2052.643544	15386.100000
2054.330152	15406.000000
2056.018131	15445.200000
2057.702350	15394.300000
2059.387939	15406.400000
2061.073189	15499.200000
2062.756391	15419.700000
2064.440962	15563.000000
2066.120071	15477.400000
2067.803965	15602.300000
2069.482399	15499.900000
2071.163909	15611.800000
2072.841669	15664.400000
2074.519091	15662.700000
2076.197884	15715.200000
2077.874633	15744.400000
2079.549341	15827.600000
2081.225418	15799.500000
2082.899455	15812.300000
2084.573156	15835.000000
2086.246522	15849.600000
2087.917850	15852.200000
2089.588843	15921.900000
2091.259502	16009.600000
2092.929826	15864.600000
2094.599817	16008.000000
2096.267772	16040.600000
2097.935394	16085.000000
2099.600982	16145.800000
2101.267938	16371.200000
2102.932861	16176.800000
2104.597451	16513.600000
2106.260010	16414.500000
2107.923937	16619.200000
2109.585834	16492.500000
2111.247399	16637.200000
2112.908634	16688.000000
2114.567839	16795.600000
2116.226715	16844.500000
2117.885260	16882.900000
2119.543476	16976.300000
2121.197968	16864.200000
2122.855525	16949.100000
2124.512753	17015.900000
2126.166259	17131.300000
2127.821133	17055.200000
2129.472289	17158.200000
2131.126506	17208.300000
2132.777007	17134.400000
2134.428874	17350.000000
2136.075333	17087.600000
2137.726547	17268.200000
2139.374047	17331.200000
2141.022914	17452.800000
2142.669763	17323.100000
2144.316285	17474.400000
2145.962482	17575.100000
2147.604971	17461.300000
2149.250518	17640.200000
2150.892358	17678.700000
2152.537255	17661.700000
2154.178447	17693.700000
2155.819315	17721.500000
2157.459860	17764.700000
2159.098392	17730.200000
2160.738290	17830.000000
2162.374488	17776.900000
2164.012052	17940.500000
2165.649293	17925.300000
2167.284525	17922.600000
2168.919436	18043.000000
2170.554025	18087.000000
2172.188292	18175.700000
2173.818867	18066.600000
2175.452492	18239.600000
2177.082426	18354.600000
2178.713725	18303.900000
2180.343020	18428.600000
2181.971994	18596.300000
2183.600650	18365.400000
2185.228986	18375.000000
2186.855319	18420.000000
2188.481334	18461.800000
2190.105348	18536.300000
2191.730726	18526.200000
2193.354105	18489.800000
2194.978847	18565.500000
2196.599909	18649.100000
2198.220654	18590.400000
2199.842764	18523.100000
2201.462876	18713.300000
2203.080991	18590.900000
2204.698791	18721.100000
2206.316276	18689.100000
2207.933445	18859.100000
2209.550299	18821.800000
2211.166838	18868.200000
2212.781383	18978.700000
2214.393936	18928.700000
2216.007853	19017.200000
2217.619779	19102.300000
2219.233068	19037.500000
2220.844367	19204.800000
2222.453676	19211.100000
2224.064349	19451.400000
2225.673033	19249.900000
2227.281405	19413.400000
2228.887789	19440.800000
2230.495537	19545.800000
2232.101298	19570.500000
2233.706748	19783.000000
2235.310214	19677.600000
2236.915042	19765.200000
2238.517886	19893.300000
2240.118747	20003.400000
2241.720971	20019.000000
2243.321212	20208.200000
2244.922816	20173.700000
2246.520768	20137.300000
2248.120082	20214.400000
2249.717416	20432.900000
2251.314442	20341.200000
2252.912829	20502.600000
2254.507568	20641.400000
2256.100331	20676.000000
2257.694455	20588.800000
2259.289941	20754.700000
2260.881783	20727.500000
2262.473318	20719.100000
2264.066214	20719.400000
2265.653801	20881.100000
2267.246085	20871.500000
2268.833061	20917.200000
2270.423066	21034.200000
2272.007766	20831.700000
2273.597160	20980.100000
2275.181251	20994.000000
2276.766704	20904.800000
2278.350187	20970.300000
2279.936697	20790.500000
2281.519573	20833.100000
2283.102145	20799.200000
2284.684414	21038.400000
2286.263054	21068.300000
2287.844717	21116.000000
2289.422752	21157.100000
2291.003810	21234.400000
2292.581242	21219.750000
2294.156710	21205.100000
2295.735199	21086.700000
2297.310065	21327.700000
2298.884630	21300.900000
2300.458895	21166.200000
2302.032859	21288.200000
2303.606523	21255.600000
2305.179886	21310.900000
2306.749631	21222.200000
2308.319077	21468.900000
2309.891542	21424.200000
2311.458731	21628.300000
2313.028939	21611.600000
2314.595532	21644.700000
2316.163485	21764.700000
2317.729483	21729.300000
2319.295182	21784.100000
2320.860585	22059.600000
2322.424034	21908.600000
2323.988841	22126.900000
2325.550041	22244.900000
2327.114255	22207.800000
2328.673208	22195.000000
2330.235174	22417.900000
2331.795190	22466.700000
2333.354910	22465.000000
2334.912681	22708.700000
2336.470158	22482.700000
2338.027339	22734.300000
2339.582574	22732.500000
2341.137514	22752.200000
2342.692161	22873.900000
2344.246514	22993.300000
2345.800573	23045.700000
2347.354338	22988.700000
2348.906160	23011.900000
2350.456038	23087.800000
2352.008924	23067.900000
2353.556568	23345.600000
2355.107219	23212.300000
2356.654280	23260.900000
2358.202698	23322.200000
2359.750824	23392.700000
2361.295363	23488.000000
2362.841259	23401.900000
2364.385216	23603.000000
2365.930531	23629.500000
2367.472261	23719.200000
2369.015348	23854.600000
2370.556500	23882.000000
2372.097362	23860.100000
2373.637935	24012.600000
2375.178219	23949.300000
2376.718214	23969.400000
2378.254630	24128.800000
2379.794048	24174.700000
2381.329889	24343.600000
2382.867086	24168.400000
2384.400709	24344.900000
2385.937331	24279.600000
2387.472022	24483.300000
2389.004784	24406.900000
2390.537260	24670.400000
2392.067807	24706.000000
2393.601352	24808.400000
2395.129686	24805.900000
2396.659376	24959.700000
2398.188781	25066.100000
2399.717900	24907.700000
2401.246735	25132.500000
2402.770365	25246.000000
2404.298630	25381.900000
2405.821692	25506.900000
2407.349388	25497.000000
2408.870245	25483.500000
2410.395735	25824.100000
2411.917664	25903.400000
2413.440949	25813.800000
2414.962313	25988.000000
2416.481757	25993.400000
2418.002556	26138.400000
2419.521436	26158.000000
2421.040034	26363.700000
2422.556715	26248.600000
2424.074750	26404.400000
2425.592504	26526.300000
2427.106707	26575.300000
2428.620629	26605.100000
2430.134272	26809.300000
2431.649268	26846.100000
2433.160716	26966.400000
2434.673519	27104.000000
2436.184409	27189.100000
2437.695019	27118.000000
2439.203718	27290.600000
2440.715404	27446.400000
2442.223546	27613.600000
2443.731409	27656.200000
2445.238995	27657.000000
2446.743040	27872.100000
2448.250071	27964.700000
2449.755193	28228.800000
2451.260038	28477.200000
2452.762976	28553.200000
2454.265637	28655.900000
2455.768022	28796.600000
2457.268502	28870.200000
2458.770335	28800.400000
2460.270264	29157.900000
2461.769917	29084.900000
2463.269295	29181.400000
2464.766769	29323.600000
2466.262343	29401.700000
2467.760896	29482.700000
2469.255920	29321.600000
2470.752298	29450.400000
2472.245149	29487.600000
2473.739352	29522.300000
2475.233282	29542.000000
2476.723689	29517.600000
2478.217072	29792.000000
2479.708558	29448.900000
2481.198147	29771.500000
2482.687464	29659.600000
2484.174886	29766.300000
2485.665283	29727.300000
2487.152161	29841.300000
2488.640391	29741.400000
2490.125105	29825.600000
2491.609548	29646.100000
2493.095343	29734.700000
2494.579245	29575.500000
2496.064499	29649.800000
2497.544619	29568.500000
2499.027711	29616.400000
2500.508913	29617.900000
2501.989846	29668.400000
2503.468890	29615.100000
2504.947666	29510.700000
2506.426172	29301.300000
2507.904411	29372.200000
2509.382381	29368.000000
2510.856847	29179.700000
2512.334281	29197.500000
2513.808212	29268.700000
2515.283494	29119.200000
2516.758508	29179.000000
2518.230021	29095.400000
2519.702885	29128.300000
2521.173865	28974.900000
2522.646196	29097.700000
2524.113414	29087.800000
2525.583597	28960.500000
2527.051900	28888.500000
2528.519938	29068.900000
2529.987711	29002.800000
2531.455219	28938.700000
2532.922462	29101.700000
2534.386213	29239.300000
2535.851315	29230.300000
2537.314538	29322.800000
2538.779112	29450.300000
2540.240196	29456.900000
2541.702630	29374.700000
2543.164801	29548.600000
2544.623486	29545.500000
2546.086743	29664.700000
2547.544903	29832.300000
2549.004412	29757.900000
2550.458828	29709.700000
2551.917813	29953.300000
2553.374927	29901.900000
2554.830170	29918.500000
2556.285152	29857.900000
2557.738264	29951.600000
2559.192725	29962.200000
2560.645317	30181.100000
2562.097649	30065.300000
2563.548113	30241.000000
2565.001533	30348.600000
2566.449871	30201.700000
2567.901165	30558.400000
2569.350592	30533.100000
2570.796548	30627.000000
2572.245458	30670.200000
2573.690897	30647.300000
2575.137685	30724.100000
2576.582609	30652.800000
2578.027276	31101.200000
2579.473290	30812.900000
2580.915837	31081.200000
2582.359732	30959.600000
2583.800162	31152.600000
2585.241940	30868.800000
2586.681857	31029.800000
2588.123122	31125.800000
2589.560926	31242.500000
2591.001679	31460.700000
2592.437369	31387.800000
2593.876009	31501.700000
2595.312792	31644.200000
2596.747718	31663.900000
2598.185593	31480.600000
2599.618410	31971.000000
2601.052573	31802.100000
2602.484883	31945.100000
2603.918539	32010.400000
2605.350342	31855.200000
2606.781892	31997.900000
2608.213188	31950.000000
2609.642633	32259.900000
2611.071825	32145.800000
2612.499166	32262.000000
2613.927854	32170.600000
2615.356289	32207.500000
2616.781277	32327.800000
2618.207612	32229.800000
2619.632098	32346.600000
2621.057930	32337.100000
2622.480318	32608.500000
2623.904052	32613.600000
2625.325940	32567.000000
2626.747577	32693.100000
2628.167369	32516.300000
2629.588507	32748.100000
2631.009395	32784.200000
2632.426845	32792.000000
2633.847234	33035.700000
2635.264186	32994.400000
2636.680890	32994.100000
2638.097345	32892.400000
2639.513552	33321.600000
2640.929510	32867.500000
2642.343628	33184.300000
2643.757499	33162.200000
2645.169530	33208.900000
2646.582906	33199.300000
2647.992852	33280.400000
2649.405733	33247.200000
2650.815187	33516.100000
2652.224394	33726.900000
2653.631765	33682.500000
2655.042070	33656.600000
2656.450539	33679.700000
2657.857173	33888.400000
2659.263562	33714.700000
2660.668117	34049.300000
2662.074016	34161.100000
2663.478082	34182.700000
2664.881904	34551.600000
2666.285481	34257.400000
2667.687226	34600.500000
2669.090315	34601.700000
2670.489987	34436.400000
2671.891001	34286.200000
2673.288600	34196.700000
2674.689129	34057.200000
2676.086243	34102.400000
2677.484700	34037.800000
2678.881329	34123.000000
2680.277716	33871.500000
2681.673862	34115.800000
2683.068181	34049.500000
2684.463843	33955.500000
2685.856095	34038.500000
2687.249691	33880.000000
2688.641462	34230.300000
2690.034575	33910.500000
2691.425865	33826.000000
2692.815332	34069.900000
2694.204560	33993.200000
2695.593547	33910.100000
2696.983877	34243.700000
2698.369222	34266.600000
2699.757491	34196.900000
2701.143940	34080.400000
2702.530150	34328.500000
2703.916122	34291.000000
2705.298695	34509.000000
2706.682609	34480.800000
2708.066286	34438.700000
2709.449725	34637.000000
2710.829768	34558.100000
2712.211153	34835.000000
2713.590722	34890.100000
2714.971633	34762.800000
2716.350729	35129.500000
2717.728010	34986.100000
2719.106633	35223.200000
2720.483443	35266.600000
2721.860017	35250.800000
2723.236355	35388.400000
2724.610881	35476.500000
2725.986748	35644.700000
2727.359228	35560.600000
2728.734625	35808.800000
2730.105060	35677.000000
2731.476837	35851.300000
2732.848380	35963.300000
2734.218114	36114.700000
2735.589188	36131.200000
2736.958455	36199.500000
2738.327488	36235.900000
2739.694714	36421.400000
2741.061708	36589.700000
2742.428469	36437.100000
2743.794997	36464.500000
2745.159720	36795.900000
2746.524212	36750.700000
2747.888471	36768.600000
2749.252499	37077.800000
2750.616294	37073.700000
2751.976716	37277.100000
2753.340049	37238.600000
2754.698439	37262.100000
2756.059739	37304.300000
2757.417668	37388.400000
2758.778507	37161.100000
2760.137545	37188.900000
2761.493215	37441.100000
2762.851793	37304.300000
2764.207005	37467.300000
2765.561987	37218.300000
2766.915172	37587.600000
2768.271264	37728.400000
2769.623992	37828.000000
2770.976491	37789.800000
2772.328762	38065.000000
2773.682372	37957.700000
2775.032620	38027.600000
2776.381075	38246.400000
2777.732434	38111.100000
2779.080434	38259.900000
2780.429773	38388.000000
2781.777319	38549.900000
2783.124638	38621.000000
2784.471731	38457.000000
2785.817033	38387.200000
2787.162109	38746.400000
2788.506959	38762.400000
2789.851582	38737.600000
2791.192854	38672.900000
2792.535464	38788.800000
2793.877848	38982.000000
2795.220008	39263.600000
2796.558818	39330.100000
2797.900527	39445.700000
2799.238889	39549.900000
2800.578588	39626.400000
2801.916501	39688.400000
2803.252630	39699.100000
2804.588536	39902.400000
2805.925778	39768.600000
2807.261237	40260.000000
2808.596473	40375.700000
2809.929927	40228.800000
2811.264717	40650.000000
2812.596166	40603.300000
2813.930511	40697.600000
2815.259958	40506.700000
2816.590742	41165.200000
2817.921304	40876.600000
2819.250087	40866.600000
2820.580207	40969.700000
2821.908547	41110.800000
2823.236667	41132.600000
2824.563010	41058.500000
2825.890688	41153.300000
2827.215034	41341.900000
2828.540715	41127.700000
2829.864621	41271.900000
2831.188308	41275.700000
2832.513330	41275.600000
2833.835023	41162.600000
2835.156496	41261.400000
2836.477751	41321.100000
2837.798787	41528.300000
2839.118051	41305.800000
2840.438650	41677.600000
2841.757477	41373.200000
2843.076086	41479.400000
2844.392925	41344.700000
2845.709546	41408.900000
2847.025949	41462.800000
2848.340584	41610.100000
2849.656553	41544.300000
2850.969202	41809.600000
2852.283187	41777.000000
2853.596955	41976.800000
2854.910506	41876.700000
2856.222290	41883.100000
2857.532309	42089.400000
2858.843661	42146.400000
2860.151699	42177.400000
2861.461072	42319.300000
2862.770229	42490.900000
2864.079171	42344.700000
2865.386350	42691.100000
2866.691765	42628.100000
2867.998515	42840.000000
2869.303502	42877.900000
2870.608276	42974.300000
2871.911288	43058.800000
2873.217182	43021.900000
2874.518220	43195.100000
2875.820593	42988.800000
2877.121206	43520.800000
2878.423153	43443.400000
2879.724887	43270.200000
2881.023317	43415.500000
2882.323080	43292.500000
2883.621085	43151.500000
2884.918879	43502.100000
2886.214917	43202.800000
2887.512288	43373.500000
2888.807903	43219.100000
2890.103307	43494.700000
2891.398501	43562.900000
2892.690396	43489.300000
2893.985168	43448.400000
2895.276643	43601.400000
2896.569452	43416.100000
2897.862049	43496.200000
2899.151353	43599.800000
2900.441989	43406.600000
2901.730874	43547.600000
2903.021092	43544.600000
2904.308018	43675.400000
2905.596276	43906.100000
2906.882784	43819.900000
2908.169085	43834.000000
2909.455177	43885.100000
2910.739521	43664.500000
2912.026737	43971.100000
2913.309126	44106.600000
2914.592846	44110.900000
2915.874821	43999.400000
2917.156589	44107.000000
2918.436611	44266.100000
2919.719503	44034.200000
2921.000650	44100.800000
2922.278515	44292.900000
2923.559249	44360.500000
2924.836702	44215.800000
2926.113950	44221.800000
2927.389455	44228.200000
2928.667828	44261.500000
2929.941386	43880.200000
2931.217812	44260.600000
2932.492497	44336.400000
2933.765442	44220.500000
2935.039717	44505.500000
2936.312253	44489.200000
2937.584585	44388.000000
2938.853644	44445.200000
2940.125567	44306.300000
2941.395753	44463.700000
2942.665736	44433.800000
2943.935515	44484.900000
2945.203557	44517.400000
2946.469864	44561.200000
2947.735968	44634.800000
2949.003402	44854.600000
2950.269102	44899.600000
2951.534599	44732.700000
2952.799894	44796.800000
2954.061924	44705.700000
2955.325285	44831.100000
2956.588444	44945.300000
2957.849870	45201.600000
2959.112626	44766.200000
2960.373651	45101.100000
2961.632945	45113.500000
2962.892038	45120.700000
2964.150931	45177.600000
2965.409624	45420.700000
2966.668117	45227.300000
2967.924881	45215.900000
2969.181445	45489.300000
2970.436282	45397.600000
2971.692448	45733.400000
2972.945358	45859.500000
2974.199598	45492.600000
2975.453639	45851.700000
2976.705954	45707.000000
2977.958071	45938.400000
2979.208463	46090.300000
2980.461710	46238.200000
2981.710180	46007.300000
2982.961504	46581.600000
2984.209580	46553.100000
2985.457458	46478.300000
2986.705139	46353.700000
2987.952624	46521.600000
2989.198387	46640.900000
2990.443953	46665.100000
2991.690848	47009.500000
2992.934497	46952.800000
2994.179475	47160.400000
2995.421210	47312.300000
2996.665796	47279.400000
2997.908662	47341.300000
2999.148288	47363.300000
3000.390765	47395.200000
3001.630001	47484.000000
3002.870565	47778.900000
3004.109412	48009.700000
3005.348065	47840.200000
3006.585002	47944.600000
3007.823266	47912.200000
3009.059816	48287.900000
3010.296171	48019.300000
3011.532333	48215.100000
3012.766782	48480.400000
3014.001037	48413.900000
3015.235099	48698.300000
3016.467449	48550.600000
3017.698087	48682.000000
3018.931571	48543.700000
3020.163343	48879.900000
3021.393405	49031.500000
3022.623275	49016.600000
3023.851435	48848.400000
3025.080921	49138.500000
3026.308699	49313.800000
3027.536285	49278.200000
3028.765197	49417.500000
3029.989367	49261.400000
3031.216380	49464.900000
3032.440170	49446.600000
3033.665285	49680.100000
3034.888694	49618.500000
3036.111914	49613.700000
3037.333428	49675.700000
3038.557783	49692.500000
3039.777403	49823.700000
3040.998348	50024.000000
3042.219105	50014.000000
3043.438158	50280.000000
3044.658537	50185.100000
3045.875699	50086.200000
3047.094186	50176.100000
3048.310972	50460.500000
3049.527569	50570.100000
3050.743979	50418.700000
3051.957175	50584.800000
3053.173209	50845.200000
3054.386031	50639.000000
3055.601690	50719.800000
3056.812626	50816.800000
3058.024887	50798.100000
3059.236962	51010.500000
3060.448850	50850.900000
3061.659040	51060.800000
3062.869045	51105.300000
3064.078863	51012.000000
3065.286985	51223.600000
3066.494921	50990.800000
3067.701163	51463.900000
3068.908728	51604.900000
3070.114600	51604.900000
3071.320286	51604.900000
3072.525787	51784.200000
3073.729596	51736.300000
3074.934728	51562.200000
3076.138167	52283.500000
3077.339914	51934.000000
3078.541478	51998.100000
3079.742858	52339.300000
3080.944054	52156.500000
3082.143560	52283.200000
3083.342882	52200.400000
3084.543528	52199.900000
3085.742485	52584.500000
3086.938246	52439.300000
3088.136837	52635.100000
3089.332234	52552.000000
3090.528954	52656.100000
3091.722482	52639.400000
3092.918839	52813.100000
3094.113508	52796.500000
3095.304987	52804.100000
3096.500797	52785.900000
3097.691914	52941.400000
3098.884353	53073.700000
3100.073605	53047.000000
3101.265683	53095.700000
3102.456076	52938.500000
3103.643284	53506.500000
3104.831815	53337.700000
3106.021668	53417.200000
3107.208336	53336.700000
3108.394825	53479.100000
3109.581134	53503.900000
3110.768765	53348.200000
3111.953215	53549.900000
3113.135984	53288.700000
3114.321577	53583.000000
3115.505489	53350.300000
3116.687723	53688.800000
3117.869779	53495.700000
3119.051656	53762.300000
3120.233355	53690.400000
3121.413376	53714.100000
3122.591721	53758.800000
3123.772887	53943.100000
3124.950877	53832.000000
3126.128690	53711.300000
3127.306326	53676.900000
3128.482287	53880.000000
3129.658072	53842.700000
3130.835177	54023.200000
3132.010608	53970.900000
3133.184366	53827.800000
3134.356452	53970.600000
3135.529858	54159.700000
3136.703089	54398.900000
3137.874647	54065.600000
3139.047527	54534.400000
3140.217239	54366.400000
3141.388272	54671.600000
3142.557634	54889.700000
3143.725327	54717.300000
3144.895835	54746.600000
3146.061684	54643.000000
3147.231843	54609.800000
3148.397344	54620.100000
3149.562672	54723.300000
3150.727826	54654.900000
3151.892806	54964.300000
3153.059107	54860.800000
3154.220754	54697.600000
3155.383722	54417.400000
3156.546516	54241.900000
3157.709138	54329.900000
3158.870095	53725.300000
3160.030879	54030.400000
3161.191491	53853.000000
3162.350440	53696.900000
3163.509216	53670.400000
3164.667821	53955.500000
3165.826254	53631.700000
3166.984515	54057.400000
3168.141114	54082.700000
3169.296052	54028.900000
3170.452309	53839.000000
3171.606906	54112.300000
3172.761331	54258.300000
3173.914097	54204.300000
3175.066693	54025.100000
3176.219118	54224.700000
3177.371374	54446.600000
3178.523460	54186.300000
3179.672399	54263.700000
3180.824145	54799.300000
3181.974234	54384.300000
3183.122665	54745.500000
3184.270928	54749.700000
3185.419021	55167.100000
3186.566946	55082.700000
3187.713216	55179.800000
3188.859317	55540.000000
3190.003763	55616.100000
3191.148042	55674.400000
3192.292153	55725.000000
3193.437582	55495.600000
3194.579872	55629.600000
3195.721994	55655.400000
3196.863950	55895.800000
3198.005738	55517.000000
3199.147359	55704.100000
3200.285844	55747.800000
3201.425647	55731.400000
3202.566768	55576.100000
3203.704754	55768.800000
3204.841091	55918.200000
3205.977262	55832.500000
3207.114751	55974.600000
3208.250591	55997.000000
3209.387747	55979.400000
3210.520291	55939.800000
3211.657117	56191.000000
3212.789331	55906.500000
3213.922863	56042.300000
3215.056229	55619.200000
3216.186468	55825.000000
3217.319505	55501.800000
3218.449416	55371.100000
3219.580644	55229.800000
3220.708746	55210.200000
3221.839645	55391.400000
3222.968901	55240.400000
3224.096512	55321.100000
3225.221002	55350.200000
3226.349767	55728.400000
3227.475410	55310.400000
3228.600890	55419.000000
3229.724729	55586.800000
3230.851362	55690.000000
3231.973398	55742.600000
3233.096750	55672.800000
3234.219940	55704.700000
3235.342968	55304.600000
3236.464356	55475.800000
3237.585583	55532.100000
3238.705171	55881.700000
3239.824598	55296.000000
3240.942387	55799.500000
3242.062969	55791.300000
3243.180436	56035.700000
3244.297744	56183.200000
3245.414890	56428.600000
3246.530401	56451.700000
3247.647227	56825.800000
3248.760942	56731.100000
3249.877448	56929.800000
3250.992318	56841.400000
3252.104080	56995.700000
3253.215683	56909.800000
3254.328600	56857.000000
3255.441359	56906.600000
3256.551011	56885.800000
3257.661978	56903.200000
3258.772786	56815.700000
3259.881962	57009.600000
3260.989507	57115.200000
3262.098367	56864.400000
3263.207068	57308.900000
3264.312667	57193.600000
3265.419581	57521.200000
3266.524865	57374.600000
3267.631463	57715.100000
3268.734961	57436.900000
3269.839773	57589.500000
3270.944428	57532.600000
3272.045984	57531.000000
3273.147385	57769.300000
3274.250099	57774.500000
3275.352656	57712.600000
3276.452118	57949.800000
3277.554362	57808.600000
3278.653512	57778.400000
3279.751036	57813.500000
3280.848405	57956.200000
3281.948557	57915.800000
3283.045615	58017.500000
3284.142518	57898.800000
3285.239267	57839.800000
3286.331456	57850.300000
3287.427895	57757.700000
3288.522711	57672.800000
3289.617372	58219.600000
3290.710412	57713.500000
3291.803298	58176.300000
3292.894563	57991.500000
3293.987141	57868.300000
3295.078098	58223.500000
3296.167437	58005.100000
3297.256621	57939.000000
3298.347119	58005.100000
3299.434532	58137.800000
3300.521793	58082.100000
3301.610366	58180.900000
3302.698786	58243.600000
3303.782659	57925.500000
3304.870774	58377.800000
3305.955808	58530.200000
3307.039226	58509.200000
3308.123955	58413.400000
3309.207070	58678.000000
3310.291496	58798.200000
3311.372844	58608.100000
3312.455504	59026.800000
3313.536550	58652.900000
3314.617445	58997.000000
3315.696727	58905.500000
3316.775858	59058.500000
3317.856300	58875.600000
3318.933669	58952.400000
3320.012349	59217.000000
3321.089417	59129.300000
3322.166335	59189.400000
3323.241642	59002.700000
3324.316800	59224.500000
3325.393270	59336.200000
3326.466668	59274.600000
3327.539918	59341.200000
3328.614479	59364.300000
3329.687430	59370.400000
3330.758774	59432.300000
3331.831428	59454.800000
3332.901015	59160.000000
3333.971913	59316.800000
3335.041204	59278.300000
3336.111806	59313.200000
3337.180801	59389.700000
3338.248190	59251.700000
3339.313974	59180.500000
3340.383984	59260.000000
3341.450931	59146.600000
3342.514816	59259.700000
3343.581469	59311.500000
3344.646517	59172.100000
3345.709963	59397.600000
3346.773261	59321.900000
3347.836414	59279.000000
3348.899420	59427.400000
3349.962279	59216.700000
3351.023537	59392.700000
3352.081738	59293.100000
3353.144160	59479.200000
3354.203525	59251.500000
3355.262745	59615.700000
3356.323275	59254.600000
3357.379295	59651.900000
3358.438080	59796.700000
3359.492357	59835.400000
3360.549397	59911.100000
3361.604840	60096.400000
3362.661591	59944.900000
3363.716745	60057.100000
3364.770301	60215.900000
3365.822260	60149.600000
3366.876981	60186.700000
3367.928653	60260.100000
3368.980182	60102.700000
3370.033020	60365.200000
3371.082810	60502.500000
3372.133908	60359.200000
3373.181961	60439.800000
3374.232774	60413.500000
3375.280541	60450.300000
3376.328166	60565.100000
3377.375649	60535.400000
3378.421538	60755.600000
3379.468736	60494.400000
3380.512892	60680.000000
3381.559806	60650.200000
3382.605128	60711.200000
3383.647410	60686.200000
3384.689550	60714.500000
3385.732998	60826.700000
3386.776306	60656.600000
3387.818023	60653.300000
3388.859599	60840.500000
3389.901035	60863.400000
3390.940881	60933.800000
3391.979140	60864.700000
3393.018706	61164.100000
3394.058131	61131.000000
3395.095970	61111.700000
3396.132221	61143.600000
3397.168332	61046.600000
3398.205751	61230.300000
3399.240137	61068.500000
3400.275830	61220.900000
3401.311384	61298.900000
3402.343907	61368.900000
3403.379183	61459.600000
3404.411428	61281.400000
3405.443535	61545.200000
3406.474058	61642.800000
3407.505889	61632.500000
3408.537580	61494.100000
3409.566245	61748.200000
3410.594771	61725.200000
3411.624605	61801.200000
3412.654300	61725.200000
3413.680970	61795.500000
3414.708947	61852.800000
3415.733899	61755.300000
3416.761601	61888.400000
3417.786280	62162.000000
3418.812265	62098.700000
3419.836670	62132.200000
3420.860939	62095.200000
3421.883629	62250.900000
3422.906183	62003.700000
3423.930043	62166.200000
3424.950883	62143.000000
3425.971588	61958.300000
3426.993598	62185.900000
3428.012590	61938.100000
3429.031447	62079.400000
3430.051609	62061.300000
3431.068755	62288.100000
