-118.448435	14.100000
-115.778835	12.500000
-113.112170	6.900000
-110.446257	14.700000
-107.783276	18.700000
-105.118866	19.600000
-102.457386	16.900000
-99.794476	22.900000
-97.136674	6.400000
-94.477441	2.300000
-91.818958	5.100000
-89.163398	16.500000
-86.506410	18.800000
-83.854519	-0.600000
-81.201199	-11.300000
-78.550799	9.400000
-75.898969	23.700000
-73.252230	1.300000
-70.604061	-3.000000
-67.956636	-4.200000
-65.312124	10.800000
-62.666184	5.800000
-60.025325	13.500000
-57.383037	10.700000
-54.743657	8.500000
-52.102849	2.000000
-49.462781	-4.100000
-46.827785	7.500000
-44.191360	21.500000
-41.557839	24.600000
-38.922889	10.300000
-36.293004	6.200000
-33.659527	13.900000
-31.031112	24.300000
-28.403430	21.000000
-25.774321	20.900000
-23.150268	21.500000
-20.522626	28.600000
-17.900037	35.200000
-15.278180	39.600000
-12.657053	92.900000
-10.036656	202.300000
-7.419147	714.800000
-4.800210	2428.000000
-2.184159	6010.400000
0.431164	9314.700000
3.045760	7507.400000
5.657473	1039.100000
8.270615	110.300000
10.878723	69.600000
13.490413	46.200000
16.097072	28.300000
18.705159	34.700000
21.312522	21.100000
23.914860	8.800000
26.520776	17.800000
29.121670	26.100000
31.723992	29.200000
34.321297	30.700000
36.922177	8.600000
39.518043	25.400000
42.115336	2.100000
44.711910	5.000000
47.303475	20.100000
49.896468	1.500000
52.486600	-1.100000
55.078160	8.800000
57.666860	14.100000
60.256987	2.700000
62.842116	10.700000
65.428671	9.500000
68.014513	14.000000
70.597501	24.600000
73.181915	2.800000
75.759201	6.200000
78.340053	-4.500000
80.918056	8.200000
83.495349	9.300000
86.074068	8.900000
88.647806	3.000000
91.222970	15.200000
93.795291	1.700000
96.366904	-0.300000
98.935677	24.800000
101.505877	-2.300000
104.073239	5.100000
106.642026	0.900000
109.207977	3.500000
111.771093	6.200000
114.337765	4.800000
116.895216	20.700000
119.458352	16.700000
122.016529	23.900000
124.578259	28.500000
127.135034	42.000000
129.693234	46.300000
132.246482	65.500000
134.799031	123.300000
137.355131	176.900000
139.906284	236.700000
142.456738	279.100000
145.006496	313.000000
147.553434	364.600000
150.099676	390.000000
152.647344	376.000000
155.194317	384.200000
157.736353	395.500000
160.277696	380.000000
162.818346	392.200000
165.360422	375.000000
167.899687	382.600000
170.436142	373.900000
172.971907	371.500000
175.509097	378.700000
178.045595	354.000000
180.579288	349.400000
183.110178	383.000000
185.640379	384.600000
188.172005	368.900000
190.700830	361.500000
193.226856	349.900000
195.752197	344.800000
198.278962	364.900000
200.802930	359.300000
203.326214	326.200000
205.848813	371.300000
208.368619	355.500000
210.887742	365.400000
213.406182	384.600000
215.926046	348.000000
218.438909	371.700000
220.955303	379.900000
223.471015	389.500000
225.981838	393.700000
228.494085	392.600000
231.003549	395.900000
233.512335	398.800000
236.020443	386.300000
238.529974	381.800000
241.034625	407.400000
243.538601	396.600000
246.044000	404.700000
248.544524	401.200000
251.048571	402.300000
253.545648	400.100000
256.046247	418.000000
258.544075	405.900000
261.041230	393.400000
263.537712	407.500000
266.029331	382.200000
268.524470	395.600000
271.016843	407.700000
273.508545	418.800000
275.997483	400.900000
278.487846	394.200000
280.975447	414.600000
283.460288	417.600000
285.948643	425.000000
288.430059	445.400000
290.914989	413.500000
293.395074	429.800000
295.878671	450.800000
298.357425	456.200000
300.837603	475.500000
303.315028	461.300000
305.791790	452.300000
308.267889	441.700000
310.741239	428.000000
313.213927	429.300000
315.685954	439.500000
318.157320	446.600000
320.625942	450.500000
323.093904	445.500000
325.563289	430.400000
328.027850	418.700000
330.495916	414.900000
332.959162	394.400000
335.421750	398.600000
337.883682	387.800000
340.344957	376.000000
342.803498	386.500000
345.263461	402.900000
347.720691	377.900000
350.177267	386.400000
352.633189	370.000000
355.086382	350.900000
357.540996	363.200000
359.990809	347.700000
362.444119	359.700000
364.892629	343.500000
367.340489	340.300000
369.789770	337.200000
372.234258	349.500000
374.680168	341.600000
377.125429	329.500000
379.567970	338.600000
382.009864	329.700000
384.451111	344.000000
386.889642	316.300000
389.329595	335.900000
391.766834	343.000000
394.201361	337.000000
396.639376	332.200000
399.072614	330.300000
401.507274	336.200000
403.937160	323.100000
406.370532	340.800000
408.799134	305.200000
411.227095	307.700000
413.656476	326.700000
416.081092	323.300000
418.507130	311.700000
420.932527	293.500000
423.357284	290.300000
425.777283	297.500000
428.198703	293.300000
430.617426	315.400000
433.037570	290.100000
435.455019	296.200000
437.873888	279.100000
440.290064	296.200000
442.701493	291.800000
445.116398	272.300000
447.528613	263.500000
449.940194	274.600000
452.351141	261.500000
454.759402	247.900000
457.167030	244.900000
459.574027	241.800000
461.980391	247.600000
464.384073	243.700000
466.787125	227.900000
469.189547	243.600000
471.591340	253.200000
473.990454	260.100000
476.390988	249.600000
478.790893	253.500000
481.186075	246.200000
483.584724	268.400000
485.978653	245.000000
488.371956	267.000000
490.764633	290.700000
493.156685	299.800000
495.550156	327.600000
497.938914	361.700000
500.325006	413.100000
502.712518	477.300000
505.099406	632.400000
507.483631	850.300000
509.869275	1174.500000
512.252256	1697.000000
514.632577	2436.300000
517.014317	3023.900000
519.393398	3240.300000
521.773898	3035.700000
524.151740	2522.500000
526.526927	2003.300000
528.901496	1622.400000
531.277484	1379.400000
533.650818	1174.700000
536.025570	1053.900000
538.395637	931.100000
540.765088	845.900000
543.135957	782.500000
545.502146	707.100000
547.869753	662.200000
550.234714	618.700000
552.599062	581.300000
554.962798	552.800000
557.327951	554.300000
559.688431	540.300000
562.050330	480.800000
564.409589	463.100000
566.766209	450.600000
569.126274	443.700000
571.479649	415.700000
573.836468	420.500000
576.190651	409.400000
578.544227	399.700000
580.897194	395.700000
583.247530	407.600000
585.599282	385.800000
587.944358	373.600000
590.294898	344.300000
592.638765	357.300000
594.988092	346.000000
597.332772	344.500000
599.674826	327.900000
602.018298	325.300000
604.359147	327.600000
606.699394	313.900000
609.037020	316.400000
611.378081	355.100000
613.714504	384.800000
616.052345	372.900000
618.387567	373.700000
620.720174	390.000000
623.054197	371.000000
625.385607	344.400000
627.716418	339.100000
630.046631	336.100000
632.376246	312.400000
634.701239	315.300000
637.031673	310.900000
639.357485	295.000000
641.680691	308.500000
644.005312	302.400000
646.327329	306.800000
648.648751	304.700000
650.967570	287.400000
653.287805	295.600000
655.607447	290.700000
657.924488	286.700000
660.240937	272.500000
662.554788	275.800000
664.870055	259.700000
667.182725	306.200000
669.496810	294.600000
671.806295	276.900000
674.117196	282.300000
676.425504	283.600000
678.733224	294.700000
681.042359	259.000000
683.346901	267.400000
685.650856	264.300000
687.954226	255.600000
690.259010	260.500000
692.559208	264.200000
694.860820	254.200000
697.161848	252.000000
699.458293	262.300000
701.756154	250.600000
704.053431	233.500000
706.350125	249.000000
708.642243	245.200000
710.937772	228.100000
713.228728	235.200000
715.521098	247.000000
717.810892	238.200000
720.100107	233.800000
722.388741	223.100000
724.674804	254.500000
726.962280	242.100000
729.247186	230.000000
731.531513	234.600000
733.813272	235.200000
736.096445	243.100000
738.379041	229.000000
740.657082	215.000000
742.936536	229.900000
745.215415	231.300000
747.493718	203.100000
749.767472	224.200000
752.042640	220.200000
754.317234	246.200000
756.589268	233.700000
758.862716	236.500000
761.133606	206.000000
763.401940	191.500000
765.671687	211.400000
767.938880	214.000000
770.205502	214.600000
772.471555	240.000000
774.735055	207.100000
776.999969	206.400000
779.264313	208.700000
781.524128	222.800000
783.785356	218.900000
786.046015	215.600000
788.304129	227.400000
790.559698	214.100000
792.818658	221.600000
795.071119	213.600000
797.328947	192.700000
799.582255	218.800000
801.833024	212.900000
804.085205	219.600000
806.334848	227.100000
808.585902	225.800000
810.832445	188.800000
813.080400	225.500000
815.325821	224.300000
817.572653	212.700000
819.818924	229.300000
822.060691	232.100000
824.305840	211.700000
826.544517	205.700000
828.786577	191.300000
831.024138	225.000000
833.263110	201.300000
835.499556	199.000000
837.737413	205.200000
839.972745	228.100000
842.205554	212.400000
844.439774	218.100000
846.671472	196.800000
848.902615	204.900000
851.133203	202.900000
853.363236	222.800000
855.592716	196.900000
857.817714	203.400000
860.046087	181.400000
862.269981	216.900000
864.495285	202.500000
866.716114	194.000000
868.940315	205.400000
871.160043	175.100000
873.381182	192.800000
875.601770	205.700000
877.819848	204.200000
880.039337	179.800000
882.254359	203.400000
884.468833	191.600000
886.682760	201.200000
888.896139	194.900000
891.108971	194.600000
893.321257	184.400000
895.531040	204.700000
897.740278	192.600000
899.948971	214.000000
902.155165	204.900000
904.362768	202.600000
906.567874	190.200000
908.772436	206.600000
910.974502	225.100000
913.177978	209.700000
915.378960	213.700000
917.579401	206.500000
919.781249	226.900000
921.976707	236.200000
924.175524	256.400000
926.369902	246.100000
928.567638	280.500000
930.760938	314.300000
932.955647	321.100000
935.147870	375.200000
937.339555	395.400000
939.530702	444.000000
941.719366	441.700000
943.907493	456.200000
946.093140	425.500000
948.282139	439.200000
950.466715	440.100000
952.650756	426.200000
954.838147	431.100000
957.017234	461.300000
959.199672	479.000000
961.381576	455.500000
963.561006	440.800000
965.737963	482.600000
967.916327	469.300000
970.096099	484.500000
972.269522	490.600000
974.446291	480.200000
976.618653	495.800000
978.792423	450.100000
980.961789	449.500000
983.134500	461.900000
985.304744	458.200000
987.474460	424.300000
989.643647	387.000000
991.808437	326.000000
993.976568	310.200000
996.140305	309.100000
998.305448	284.200000
1000.468133	263.700000
1002.630291	292.600000
1004.789993	267.400000
1006.949171	274.300000
1009.109755	255.600000
1011.267884	269.200000
1013.425489	241.000000
1015.582571	239.700000
1017.739130	230.700000
1019.891309	225.500000
1022.044894	222.700000
1024.197958	245.000000
1026.348574	202.300000
1028.500595	214.400000
1030.648243	223.100000
1032.799223	223.400000
1034.945832	223.400000
1037.091923	197.600000
1039.237494	198.000000
1041.384471	208.400000
1043.525159	206.100000
1045.669177	199.900000
1047.810754	211.100000
1049.951815	200.000000
1052.094280	205.600000
1054.230466	202.300000
1056.369978	211.800000
1058.505134	193.300000
1060.643615	192.100000
1062.777742	196.400000
1064.911356	213.900000
1067.046375	197.200000
1069.177044	197.600000
1071.309118	200.400000
1073.438763	192.800000
1075.567896	215.200000
1077.696517	187.500000
1079.824627	206.400000
1081.950311	172.800000
1084.075485	196.600000
1086.202063	199.400000
1088.324304	186.300000
1090.447948	187.700000
1092.567259	183.400000
1094.691798	171.100000
1096.810092	175.200000
1098.929791	167.900000
1101.047071	182.100000
1103.163845	182.800000
1105.280112	191.400000
1107.393964	180.800000
1109.509219	175.700000
1111.620152	182.400000
1113.734396	193.800000
1115.844320	195.000000
1117.955648	188.800000
1120.066471	167.800000
1122.172979	186.700000
1124.282795	195.100000
1126.388297	182.900000
1128.495202	168.600000
1130.595892	197.000000
1132.701794	189.600000
1134.803387	176.400000
1136.906383	199.500000
1139.008878	171.900000
1141.105166	173.400000
1143.206662	167.800000
1145.303855	158.900000
1147.400549	164.500000
1149.496745	179.000000
1151.592444	187.800000
1153.687645	181.900000
1155.780449	170.600000
1157.874655	178.400000
1159.962670	186.300000
1162.055883	179.700000
1164.142908	155.700000
1166.233232	153.400000
1168.319269	185.200000
1170.408603	154.700000
1172.491756	165.200000
1174.576311	173.100000
1176.662268	177.000000
1178.743943	173.300000
1180.827020	171.900000
1182.907711	172.700000
1184.987910	161.000000
1187.067618	162.800000
1189.146835	172.800000
1191.223670	169.000000
1193.298124	188.000000
1195.375870	170.800000
1197.449345	162.800000
1199.524221	173.200000
1201.594830	189.100000
1203.666841	188.600000
1205.736475	155.900000
1207.807510	162.300000
1209.878057	178.600000
1211.944343	187.100000
1214.012030	166.600000
1216.077345	187.000000
1218.144060	163.300000
1220.206519	160.900000
1222.272263	170.600000
1224.333754	168.300000
1226.396644	175.300000
1228.457167	156.700000
1230.517206	163.400000
1232.576763	175.900000
1234.633954	178.600000
1236.690664	178.000000
1238.745011	173.100000
1240.802638	182.200000
1242.857903	170.700000
1244.908927	182.400000
1246.961351	164.400000
1249.013295	155.800000
1251.062881	163.600000
1253.111988	172.000000
1255.160617	182.500000
1257.208767	187.400000
1259.256439	176.600000
1261.299880	167.000000
1263.346596	186.300000
1265.390959	185.900000
1267.434846	179.300000
1269.476382	159.800000
1271.515567	172.500000
1273.558026	192.900000
1275.596262	171.400000
1277.635897	173.400000
1279.675057	180.600000
1281.709998	166.800000
1283.746339	167.900000
1285.780334	166.800000
1287.815728	166.800000
1289.846908	175.300000
1291.879487	172.100000
1293.911593	181.300000
1295.941359	178.500000
1297.972523	175.400000
1299.999479	174.600000
1302.027833	195.800000
1304.051983	172.300000
1306.079397	167.300000
1308.102609	174.000000
1310.127219	159.500000
1312.149495	163.000000
1314.173168	185.500000
1316.194508	177.100000
1318.215380	168.600000
1320.235786	159.900000
1322.251997	202.300000
1324.269606	186.600000
1326.284888	182.200000
1328.303427	167.200000
1330.317778	174.600000
1332.329803	168.500000
1334.345085	192.400000
1336.356182	164.200000
1338.368676	171.500000
1340.376987	177.300000
1342.388554	165.300000
1344.394081	176.800000
1346.402864	168.900000
1348.407469	184.800000
1350.415328	182.100000
1352.422725	210.100000
1354.424091	185.000000
1356.426854	184.800000
1358.429156	179.100000
1360.430999	178.500000
1362.432382	186.200000
1364.431452	191.900000
1366.430063	162.400000
1368.428216	188.700000
1370.425911	169.700000
1372.419442	164.800000
1374.414370	159.600000
1376.408841	188.400000
1378.402855	175.200000
1380.394561	159.500000
1382.385813	167.800000
1384.374759	162.200000
1386.365100	177.700000
1388.354986	152.800000
1390.342569	175.600000
1392.329697	168.000000
1394.314525	150.900000
1396.300746	170.700000
1398.284668	157.400000
1400.268137	163.400000
1402.251154	157.800000
1404.231872	182.200000
1406.213986	167.800000
1408.193802	155.100000
1410.173168	160.700000
1412.148394	170.600000
1414.126860	162.400000
1416.103031	170.700000
1418.078754	159.900000
1420.054027	179.800000
1422.027009	168.800000
1423.999543	167.200000
1425.971630	160.400000
1427.943268	177.500000
1429.910778	157.000000
1431.883363	147.100000
1433.848141	162.200000
1435.817991	168.200000
1437.783718	162.700000
1439.750837	163.600000
1441.715673	143.000000
1443.676390	145.200000
1445.642174	152.500000
1447.602003	154.700000
1449.563225	175.800000
1451.525840	156.600000
1453.484340	169.300000
1455.442398	173.900000
1457.400013	164.300000
1459.357187	185.100000
1461.312085	168.100000
1463.268375	181.700000
1465.222391	168.500000
1467.175967	172.200000
1469.127270	163.000000
1471.079965	179.000000
1473.030389	178.600000
1474.980373	171.000000
1476.929919	173.300000
1478.877196	154.300000
1480.822206	158.600000
1482.768607	165.100000
1484.714572	172.200000
1486.660098	162.200000
1488.603360	167.500000
1490.546185	149.800000
1492.486747	172.600000
1494.428700	147.400000
1496.368392	160.000000
1498.307648	155.600000
1500.246469	182.100000
1502.183031	160.100000
1504.120984	183.000000
1506.056679	169.900000
1507.991939	161.200000
1509.924944	157.200000
1511.857516	180.300000
1513.789656	179.800000
1515.721364	175.800000
1517.650818	191.300000
1519.581663	169.100000
1521.512077	168.200000
1523.438417	173.400000
1525.366149	187.900000
1527.291630	182.500000
1529.216682	179.700000
1531.141305	206.400000
1533.065499	188.900000
1534.987446	170.600000
1536.910782	189.400000
1538.831873	173.000000
1540.750719	203.900000
1542.670955	201.700000
1544.588947	209.400000
1546.506513	208.000000
1548.421837	207.700000
1550.338551	204.700000
1552.251210	202.900000
1554.167073	209.800000
1556.080696	218.300000
1557.992082	244.000000
1559.904856	261.500000
1561.813581	251.900000
1563.723696	271.100000
1565.633387	275.100000
1567.542654	324.300000
1569.449688	329.500000
1571.354489	380.800000
1573.260679	429.900000
1575.164637	482.900000
1577.068175	545.500000
1578.971291	604.700000
1580.872179	671.300000
1582.774454	672.400000
1584.674502	674.900000
1586.575937	669.900000
1588.473339	591.100000
1590.370322	534.900000
1592.266887	472.900000
1594.164840	436.600000
1596.056958	394.300000
1597.952269	333.500000
1599.847163	316.100000
1601.739835	285.800000
1603.632091	258.800000
1605.522126	247.800000
1607.411747	237.800000
1609.300951	220.100000
1611.189741	223.200000
1613.076314	235.200000
1614.964273	201.400000
1616.848216	232.300000
1618.733547	213.700000
1620.618463	209.700000
1622.501166	207.400000
1624.385256	205.800000
1626.265335	192.400000
1628.146800	177.700000
1630.026055	173.300000
1631.906696	180.900000
1633.781533	170.200000
1635.661352	155.600000
1637.537165	166.800000
1639.412568	137.100000
1641.289358	159.900000
1643.160350	150.600000
1645.034524	150.100000
1646.904700	149.200000
1648.778056	152.400000
1650.649209	140.200000
1652.518160	130.800000
1654.388497	153.900000
1656.254840	135.900000
1658.122569	123.000000
1659.988100	134.900000
1661.855015	147.600000
1663.717942	141.300000
1665.582254	136.200000
1667.444370	146.100000
1669.306082	127.600000
1671.169178	127.900000
1673.030080	137.800000
1674.888788	132.300000
1676.747093	118.200000
1678.606783	129.500000
1680.460706	111.600000
1682.317801	129.700000
1684.174494	137.100000
1686.027211	103.800000
1687.883098	136.800000
1689.735012	126.600000
1691.586525	119.800000
1693.437637	129.400000
1695.288349	121.800000
1697.138660	119.700000
1698.986787	123.900000
1700.836297	124.400000
1702.680059	117.000000
1704.528770	107.900000
1706.371736	112.800000
1708.217867	120.300000
1710.060037	118.200000
1711.905371	133.700000
1713.744965	114.200000
1715.585943	111.700000
1717.428304	112.400000
1719.266709	124.900000
1721.106497	125.400000
1722.944110	131.100000
1724.781327	108.500000
1726.616371	136.000000
1728.452798	130.000000
1730.287053	108.100000
1732.120913	117.900000
1733.954380	131.800000
1735.783900	114.900000
1737.616579	115.100000
1739.445314	124.400000
1741.277207	107.200000
1743.105157	115.200000
1744.932715	120.400000
1746.759881	116.100000
1748.586656	111.300000
1750.413040	121.000000
1752.235487	101.700000
1754.061088	129.400000
1755.882755	134.100000
1757.705804	112.800000
1759.526692	107.300000
1761.347190	123.800000
1763.169070	112.300000
1764.985250	127.900000
1766.804582	108.600000
1768.619987	115.000000
1770.438542	114.600000
1772.253172	117.000000
1774.067416	115.400000
1775.881272	132.500000
1777.694742	122.400000
1779.506059	122.700000
1781.318757	113.700000
1783.131068	122.800000
1784.939462	102.400000
1786.749237	123.400000
1788.555096	94.500000
1790.364101	126.700000
1792.169193	112.600000
1793.975666	107.400000
1795.781755	113.100000
1797.583934	117.800000
1799.389256	110.500000
1801.190670	118.200000
1802.993464	101.700000
1804.792352	115.500000
1806.592621	121.200000
1808.392508	117.200000
1810.190254	99.700000
1811.987618	103.500000
1813.784603	109.200000
1815.581207	96.600000
1817.375672	91.800000
1819.171516	111.600000
1820.961706	124.000000
1822.756792	107.500000
1824.546225	107.900000
1826.338795	105.400000
1828.129230	101.500000
1829.917531	118.800000
1831.708967	115.600000
1833.494757	117.600000
1835.281927	114.600000
1837.066965	115.500000
1838.855137	131.700000
1840.639423	113.400000
1842.421580	108.900000
1844.205115	117.300000
1845.986522	105.800000
1847.769308	116.400000
1849.548214	108.000000
1851.328498	120.000000
1853.106656	107.800000
1854.886193	128.400000
1856.663605	115.100000
1858.438893	136.300000
1860.215560	121.200000
1861.990103	108.000000
1863.766025	100.700000
1865.536326	110.300000
1867.309755	122.400000
1869.081064	108.000000
1870.852003	116.200000
1872.624318	124.800000
1874.391020	121.000000
1876.160848	111.400000
1877.926812	121.300000
1879.695900	133.900000
1881.461126	140.200000
1883.225983	133.700000
1884.992218	106.000000
1886.754594	121.600000
1888.516603	108.500000
1890.278244	136.300000
1892.039519	102.600000
1893.800426	112.300000
1895.560967	118.100000
1897.319398	110.600000
1899.077464	109.000000
1900.833421	114.800000
1902.590756	118.800000
1904.347724	106.400000
1906.102587	111.400000
1907.855344	114.000000
1909.607738	106.900000
1911.361507	116.900000
1913.113173	100.600000
1914.862737	103.900000
1916.613677	112.100000
1918.364253	109.600000
1920.110990	122.000000
1921.859104	98.900000
1923.605118	106.100000
1925.352508	113.100000
1927.097799	99.400000
1928.840993	96.600000
1930.585563	96.800000
1932.328036	95.900000
1934.070149	119.200000
1935.811902	132.700000
1937.553296	90.900000
1939.292596	118.400000
1941.031536	101.800000
1942.770119	115.900000
1944.506609	97.200000
1946.242742	93.950000
1947.980249	90.700000
1949.713934	99.000000
1951.448994	113.000000
1953.181966	125.700000
1954.914581	95.600000
1956.646839	107.900000
1958.378741	106.900000
1960.108557	94.100000
1961.836289	109.700000
1963.565394	111.800000
1965.294145	106.300000
1967.020812	123.800000
1968.747125	119.100000
1970.474811	117.000000
1972.196961	112.000000
1973.922212	101.200000
1975.643657	97.400000
1977.368201	98.300000
1979.090666	105.900000
1980.809327	95.700000
1982.531087	99.400000
1984.249045	102.400000
1985.968376	114.800000
1987.683908	124.500000
1989.404261	96.100000
1991.120814	106.300000
1992.833571	121.400000
1994.549425	112.600000
1996.263205	113.600000
1997.976636	94.400000
1999.687996	113.000000
2001.400729	113.000000
2003.109670	107.200000
2004.821705	107.600000
2006.528230	110.900000
2008.237848	110.600000
2009.945398	108.200000
2011.652601	113.000000
2013.357738	114.000000
2015.062528	105.400000
2016.768690	105.500000
2018.471070	103.800000
2020.174822	118.500000
2021.876510	93.200000
2023.577854	113.100000
2025.278852	105.000000
2026.977790	115.500000
2028.678098	89.800000
2030.374632	97.700000
2032.072537	106.600000
2033.768383	103.500000
2035.467315	101.700000
2037.160761	115.800000
2038.855579	92.100000
2040.550053	96.400000
2042.240759	112.100000
2043.934549	108.900000
2045.624572	86.700000
2047.315966	98.000000
2049.005307	114.800000
2050.696018	87.000000
2052.382966	99.100000
2054.069575	99.100000
2055.757554	100.700000
2057.441773	103.100000
2059.127362	97.600000
2060.812612	105.700000
2062.495814	103.000000
2064.180385	96.500000
2065.859494	112.400000
2067.543388	101.100000
2069.221822	95.800000
2070.903332	92.300000
2072.581092	89.700000
2074.258514	97.000000
2075.937306	118.700000
2077.614056	101.300000
2079.288764	108.200000
2080.964841	74.000000
2082.638878	92.400000
2084.312579	105.900000
2085.985945	95.600000
2087.657273	99.100000
2089.328266	99.000000
2090.998925	94.900000
2092.669249	104.000000
2094.339240	114.000000
2096.007195	101.600000
2097.674817	95.800000
2099.340404	123.200000
2101.007361	97.900000
2102.672283	99.200000
2104.336874	96.300000
2105.999433	84.600000
2107.663360	93.300000
2109.325257	123.900000
2110.986822	93.200000
2112.648056	94.100000
2114.307262	106.400000
2115.966137	95.900000
2117.624683	82.100000
2119.282899	111.400000
2120.937391	93.300000
2122.594948	109.100000
2124.252176	88.100000
2125.905682	111.000000
2127.560556	75.700000
2129.211712	108.600000
2130.865929	93.400000
2132.516430	108.000000
2134.168297	118.200000
2135.814756	93.100000
2137.465970	92.300000
2139.113470	116.900000
2140.762337	84.300000
2142.409186	102.200000
2144.055708	86.100000
2145.701905	97.100000
2147.344394	85.800000
2148.989941	98.500000
2150.631781	87.300000
2152.276678	108.800000
2153.917870	87.200000
2155.558738	123.700000
2157.199282	95.000000
2158.837814	109.700000
2160.477712	92.100000
2162.113910	116.200000
2163.751475	110.000000
2165.388716	100.400000
2167.023948	101.000000
2168.658859	108.600000
2170.293448	116.600000
2171.927715	104.800000
2173.558289	101.300000
2175.191915	100.400000
2176.821849	98.400000
2178.453148	74.600000
2180.082442	97.800000
2181.711417	106.300000
2183.340073	119.800000
2184.968409	103.300000
2186.594742	82.200000
2188.220757	96.500000
2189.844771	96.100000
2191.470149	102.700000
2193.093528	92.400000
2194.718270	99.000000
2196.339332	105.600000
2197.960077	89.700000
2199.582187	111.300000
2201.202299	80.400000
2202.820414	89.200000
2204.438214	90.300000
2206.055699	109.600000
2207.672868	97.500000
2209.289722	102.100000
2210.906261	79.900000
2212.520806	101.600000
2214.133359	108.400000
2215.747276	88.200000
2217.359202	104.000000
2218.972491	108.600000
2220.583790	70.200000
2222.193099	87.300000
2223.803772	94.600000
2225.412456	87.600000
2227.020828	119.800000
2228.627212	83.300000
2230.234960	85.400000
2231.840721	93.100000
2233.446171	91.400000
2235.049636	94.700000
2236.654464	88.500000
2238.257309	81.300000
2239.858170	108.900000
2241.460393	92.200000
2243.060635	93.400000
2244.662239	84.000000
2246.260191	98.000000
2247.859505	103.100000
2249.456839	107.400000
2251.053864	94.300000
2252.652252	100.900000
2254.246991	95.600000
2255.839753	107.100000
2257.433878	90.100000
2259.029364	121.900000
2260.621206	114.600000
2262.212741	95.400000
2263.805637	116.700000
2265.393224	95.100000
2266.985508	94.500000
2268.572484	111.000000
2270.162489	89.300000
2271.747189	93.100000
2273.336583	105.700000
2274.920674	109.500000
2276.506127	105.300000
2278.089610	110.000000
2279.676120	109.300000
2281.258996	112.300000
2282.841568	85.900000
2284.423837	86.500000
2286.002477	97.300000
2287.584140	93.500000
2289.162175	103.400000
2290.743233	96.100000
2292.320665	96.550000
2293.896132	97.000000
2295.474622	104.700000
2297.049488	83.400000
2298.624053	99.400000
2300.198318	86.400000
2301.772282	103.900000
2303.345946	91.000000
2304.919309	93.400000
2306.489054	88.300000
2308.058500	67.300000
2309.630965	95.700000
2311.198154	80.200000
2312.768362	106.000000
2314.334955	84.200000
2315.902908	99.500000
2317.468905	96.100000
2319.034605	90.900000
2320.600008	94.400000
2322.163456	112.100000
2323.728264	81.300000
2325.289464	112.500000
2326.853678	97.500000
2328.412631	109.300000
2329.974597	98.800000
2331.534613	85.700000
2333.094333	90.200000
2334.652104	82.800000
2336.209580	101.700000
2337.766762	93.300000
2339.321997	87.200000
2340.876937	101.700000
2342.431584	96.500000
2343.985937	89.000000
2345.539996	86.300000
2347.093761	105.000000
2348.645583	98.100000
2350.195461	92.600000
2351.748347	96.900000
2353.295991	89.000000
2354.846642	97.700000
2356.393702	92.500000
2357.942121	122.000000
2359.490247	87.600000
2361.034785	100.800000
2362.580681	92.500000
2364.124639	100.700000
2365.669954	83.100000
2367.211684	105.700000
2368.754771	91.900000
2370.295923	109.800000
2371.836785	119.400000
2373.377358	113.200000
2374.917641	89.700000
2376.457636	81.000000
2377.994053	87.700000
2379.533471	90.400000
2381.069312	91.800000
2382.606509	100.500000
2384.140131	82.400000
2385.676754	101.900000
2387.211445	99.600000
2388.744207	101.300000
2390.276682	102.700000
2391.807230	74.400000
2393.340775	78.200000
2394.869109	90.900000
2396.398799	111.200000
2397.928204	96.100000
2399.457323	121.200000
2400.986158	87.000000
2402.509787	88.500000
2404.038053	95.500000
2405.561115	105.200000
2407.088811	108.300000
2408.609668	110.400000
2410.135158	94.800000
2411.657087	89.000000
2413.180372	103.500000
2414.701736	86.900000
2416.221180	95.000000
2417.741979	93.700000
2419.260859	93.300000
2420.779457	111.000000
2422.296138	99.100000
2423.814173	121.300000
2425.331927	112.200000
2426.846130	93.600000
2428.360052	104.400000
2429.873694	113.900000
2431.388691	96.700000
2432.900139	107.800000
2434.412942	99.600000
2435.923832	119.900000
2437.434442	107.700000
2438.943141	102.900000
2440.454827	129.600000
2441.962968	114.800000
2443.470832	122.400000
2444.978418	120.600000
2446.482463	127.300000
2447.989494	121.600000
2449.494616	127.400000
2450.999461	123.500000
2452.502399	139.800000
2454.005060	139.300000
2455.507445	131.800000
2457.007925	141.300000
2458.509758	129.200000
2460.009687	128.600000
2461.509340	131.700000
2463.008717	137.600000
2464.506192	128.900000
2466.001765	126.700000
2467.500319	119.100000
2468.995343	124.300000
2470.491721	103.900000
2471.984571	121.800000
2473.478775	92.900000
2474.972705	120.600000
2476.463112	130.700000
2477.956495	112.500000
2479.447981	110.300000
2480.937570	122.700000
2482.426887	101.000000
2483.914309	122.100000
2485.404706	104.200000
2486.891584	95.400000
2488.379814	108.500000
2489.864528	109.400000
2491.348971	98.300000
2492.834766	130.700000
2494.318668	102.000000
2495.803922	102.900000
2497.284042	114.500000
2498.767134	101.300000
2500.248336	109.900000
2501.729269	117.100000
2503.208313	84.200000
2504.687088	104.000000
2506.165595	97.600000
2507.643834	93.400000
2509.121804	89.100000
2510.596270	100.300000
2512.073704	106.700000
2513.547635	111.500000
2515.022916	91.900000
2516.497931	109.300000
2517.969444	92.500000
2519.442307	108.300000
2520.913288	84.000000
2522.385619	110.100000
2523.852837	108.100000
2525.323020	92.100000
2526.791323	90.400000
2528.259361	106.500000
2529.727134	98.600000
2531.194642	103.600000
2532.661885	108.400000
2534.125636	95.700000
2535.590737	105.500000
2537.053961	118.400000
2538.518535	79.100000
2539.979619	101.100000
2541.442053	105.900000
2542.904224	111.800000
2544.362909	108.900000
2545.826166	118.500000
2547.284326	79.800000
2548.743835	95.900000
2550.198251	99.000000
2551.657236	113.500000
2553.114350	106.300000
2554.569593	89.300000
2556.024575	104.200000
2557.477687	108.200000
2558.932148	91.300000
2560.384740	110.100000
2561.837072	96.300000
2563.287536	114.300000
2564.740956	105.900000
2566.189294	107.200000
2567.640588	101.900000
2569.090015	98.900000
2570.535970	93.200000
2571.984881	108.500000
2573.430320	97.100000
2574.877108	104.600000
2576.322032	110.800000
2577.766699	91.500000
2579.212713	101.000000
2580.655260	101.700000
2582.099155	106.900000
2583.539585	108.400000
2584.981362	108.200000
2586.421280	94.200000
2587.862545	96.900000
2589.300349	110.200000
2590.741102	107.400000
2592.176792	105.000000
2593.615432	115.300000
2595.052215	116.700000
2596.487141	108.000000
2597.925016	103.800000
2599.357832	103.600000
2600.791996	112.300000
2602.224306	111.400000
2603.657962	98.300000
2605.089765	105.400000
2606.521315	115.700000
2607.952611	111.100000
2609.382055	97.100000
2610.811248	105.600000
2612.238589	128.800000
2613.667277	129.000000
2615.095712	126.500000
2616.520700	111.300000
2617.947035	116.000000
2619.371521	118.300000
2620.797353	121.500000
2622.219741	112.400000
2623.643475	133.200000
2625.065362	128.900000
2626.487000	131.200000
2627.906792	144.600000
2629.327930	160.000000
2630.748818	125.900000
2632.166268	136.200000
2633.586657	143.400000
2635.003609	145.000000
2636.420313	152.700000
2637.836768	185.800000
2639.252975	149.400000
2640.668933	156.200000
2642.083051	160.500000
2643.496922	185.400000
2644.908953	214.100000
2646.322329	178.600000
2647.732275	201.700000
2649.145156	214.100000
2650.554610	219.000000
2651.963817	246.300000
2653.371187	235.000000
2654.781493	270.400000
2656.189962	266.000000
2657.596596	287.100000
2659.002985	313.000000
2660.407540	339.600000
2661.813439	333.900000
2663.217505	367.500000
2664.621326	390.200000
2666.024904	423.800000
2667.426649	455.300000
2668.829738	497.300000
2670.229409	527.600000
2671.630424	539.000000
2673.028023	579.500000
2674.428552	627.300000
2675.825666	663.300000
2677.224123	688.000000
2678.620752	695.900000
2680.017139	735.100000
2681.413285	746.000000
2682.807604	767.100000
2684.203266	807.300000
2685.595518	782.100000
2686.989114	775.900000
2688.380885	764.600000
2689.773998	758.400000
2691.165288	745.300000
2692.554755	711.200000
2693.943982	687.400000
2695.332970	679.200000
2696.723300	624.000000
2698.108645	629.000000
2699.496914	583.600000
2700.883363	577.000000
2702.269573	537.000000
2703.655545	485.400000
2705.038117	486.000000
2706.422032	448.700000
2707.805709	411.000000
2709.189148	396.400000
2710.569191	406.300000
2711.950576	352.000000
2713.330145	364.100000
2714.711056	315.200000
2716.090151	314.200000
2717.467433	285.400000
2718.846056	272.600000
2720.222866	243.700000
2721.599440	241.100000
2722.975778	238.000000
2724.350304	229.500000
2725.726171	213.500000
2727.098651	195.900000
2728.474047	206.600000
2729.844483	192.300000
2731.216260	183.600000
2732.587802	181.100000
2733.957536	169.600000
2735.328611	175.300000
2736.697877	147.700000
2738.066911	167.100000
2739.434137	146.200000
2740.801131	157.500000
2742.167892	131.000000
2743.534420	140.400000
2744.899143	137.900000
2746.263635	135.900000
2747.627894	141.500000
2748.991921	122.700000
2750.355717	110.700000
2751.716139	109.400000
2753.079472	115.200000
2754.437862	114.100000
2755.799162	132.200000
2757.157091	102.000000
2758.517930	99.500000
2759.876968	92.500000
2761.232638	123.500000
2762.591216	116.400000
2763.946428	102.900000
2765.301410	111.600000
2766.654595	93.200000
2768.010687	100.800000
2769.363415	98.900000
2770.715914	108.900000
2772.068185	108.700000
2773.421795	100.700000
2774.772043	87.600000
2776.120498	94.000000
2777.471857	106.700000
2778.819857	103.100000
2780.169196	103.400000
2781.516742	94.000000
2782.864061	69.100000
2784.211154	107.500000
2785.556456	107.000000
2786.901532	95.100000
2788.246382	108.000000
2789.591005	98.600000
2790.932277	89.900000
2792.274887	81.200000
2793.617271	100.400000
2794.959431	91.600000
2796.298241	92.200000
2797.639950	96.400000
2798.978312	94.300000
2800.318011	93.000000
2801.655924	86.100000
2802.992053	88.700000
2804.327958	99.500000
2805.665201	85.400000
2807.000660	105.800000
2808.335896	93.000000
2809.669349	72.600000
2811.004140	88.000000
2812.335589	100.400000
2813.669934	93.600000
2814.999381	99.600000
2816.330165	97.500000
2817.660727	96.900000
2818.989510	79.300000
2820.319629	108.600000
2821.647970	99.900000
2822.976090	101.400000
2824.302432	88.000000
2825.630111	88.800000
2826.954457	103.500000
2828.280138	79.500000
2829.604044	86.100000
2830.927731	92.900000
2832.252753	89.700000
2833.574445	88.500000
2834.895919	68.000000
2836.217174	99.700000
2837.538210	98.600000
2838.857474	79.000000
2840.178073	72.500000
2841.496900	83.200000
2842.815509	86.300000
2844.132347	73.400000
2845.448968	74.600000
2846.765372	99.100000
2848.080007	86.000000
2849.395976	70.100000
2850.708625	75.700000
2852.022610	90.700000
2853.336377	82.500000
2854.649929	81.700000
2855.961713	113.000000
2857.271731	74.900000
2858.583084	89.800000
2859.891122	78.600000
2861.200495	94.700000
2862.509652	75.000000
2863.818594	79.800000
2865.125773	73.400000
2866.431188	88.200000
2867.737938	103.400000
2869.042925	85.500000
2870.347699	82.600000
2871.650711	100.400000
2872.956605	83.900000
2874.257643	88.900000
2875.560016	66.000000
2876.860629	77.100000
2878.162576	70.500000
2879.464310	90.700000
2880.762739	75.900000
2882.062503	83.900000
2883.360508	95.600000
2884.658302	69.800000
2885.954340	81.800000
2887.251711	105.400000
2888.547326	71.400000
2889.842730	84.100000
2891.137924	98.600000
2892.429819	80.500000
2893.724591	87.300000
2895.016066	79.900000
2896.308874	57.200000
2897.601472	81.600000
2898.890776	85.600000
2900.181412	66.100000
2901.470297	76.200000
2902.760515	100.800000
2904.047440	81.600000
2905.335699	75.300000
2906.622207	65.200000
2907.908508	83.600000
2909.194600	88.200000
2910.478944	93.100000
2911.766160	68.100000
2913.048548	94.000000
2914.332269	71.500000
2915.614244	66.700000
2916.896012	98.400000
2918.176034	88.400000
2919.458926	65.600000
2920.740073	90.800000
2922.017938	69.000000
2923.298672	87.400000
2924.576125	60.500000
2925.853372	88.000000
2927.128878	73.700000
2928.407251	76.000000
2929.680809	63.400000
2930.957235	84.100000
2932.231920	75.500000
2933.504865	73.800000
2934.779140	71.000000
2936.051676	88.900000
2937.324008	71.300000
2938.593066	57.200000
2939.864990	66.900000
2941.135176	79.900000
2942.405159	76.200000
2943.674938	70.700000
2944.942980	68.400000
2946.209287	84.000000
2947.475391	60.100000
2948.742825	71.700000
2950.008525	81.400000
2951.274022	74.500000
2952.539317	80.900000
2953.801347	75.900000
2955.064708	44.700000
2956.327866	80.200000
2957.589293	81.800000
2958.852049	99.100000
2960.113074	62.900000
2961.372367	74.300000
2962.631461	66.300000
2963.890354	69.100000
2965.149047	66.100000
2966.407540	69.500000
2967.664304	70.000000
2968.920868	61.100000
2970.175705	64.200000
2971.431871	71.500000
2972.684781	86.300000
2973.939021	70.500000
2975.193062	66.600000
2976.445377	76.600000
2977.697494	75.400000
2978.947886	70.500000
2980.201133	80.400000
2981.449603	88.200000
2982.700927	79.800000
2983.949003	81.200000
2985.196881	65.700000
2986.444562	73.700000
2987.692047	65.700000
2988.937810	70.600000
2990.183376	65.800000
2991.430270	65.700000
2992.673920	88.600000
2993.918898	85.700000
2995.160633	51.300000
2996.405218	78.300000
2997.648085	67.700000
2998.887711	65.200000
3000.130187	66.400000
3001.369424	90.600000
3002.609988	66.500000
3003.848835	80.600000
3005.087488	74.300000
3006.324425	71.000000
3007.562689	102.400000
3008.799239	85.300000
3010.035594	65.700000
3011.271756	70.500000
3012.506205	59.100000
3013.740460	75.600000
3014.974522	69.100000
3016.206872	84.200000
3017.437510	63.900000
3018.670994	82.500000
3019.902766	54.600000
3021.132828	60.400000
3022.362698	63.200000
3023.590858	64.400000
3024.820344	60.000000
3026.048122	69.000000
3027.275708	80.700000
3028.504620	74.200000
3029.728790	58.100000
3030.955803	69.100000
3032.179592	56.300000
3033.404708	69.800000
3034.628117	61.800000
3035.851337	74.300000
3037.072851	61.900000
3038.297206	72.000000
3039.516826	68.800000
3040.737771	82.400000
3041.958528	58.000000
3043.177581	83.800000
3044.397960	58.500000
3045.615122	67.100000
3046.833609	57.000000
3048.050394	70.400000
3049.266992	66.100000
3050.483401	68.100000
3051.696598	40.800000
3052.912632	71.100000
3054.125454	56.500000
3055.341113	74.900000
3056.552049	71.300000
3057.764310	66.300000
3058.976385	67.900000
3060.188273	61.200000
3061.398463	42.300000
3062.608467	79.300000
3063.818286	52.100000
3065.026408	69.700000
3066.234344	53.100000
3067.440586	76.200000
3068.648151	55.200000
3069.854023	57.150000
3071.059709	59.100000
3072.265210	53.200000
3073.469018	51.800000
3074.674150	55.800000
3075.877590	59.800000
3077.079337	63.600000
3078.280901	66.800000
3079.482281	51.900000
3080.683477	63.400000
3081.882983	78.600000
3083.082305	70.200000
3084.282951	55.500000
3085.481907	53.800000
3086.677669	84.800000
3087.876260	44.800000
3089.071657	63.100000
3090.268377	62.700000
3091.461905	66.900000
3092.658261	61.000000
3093.852931	57.600000
3095.044410	74.300000
3096.240220	47.300000
3097.431337	71.500000
3098.623776	69.300000
3099.813028	61.700000
3101.005106	51.000000
3102.195499	64.600000
3103.382707	70.900000
3104.571238	68.600000
3105.761091	65.800000
3106.947759	69.000000
3108.134248	73.500000
3109.320557	52.700000
3110.508188	64.000000
3111.692638	58.800000
3112.875407	68.700000
3114.061000	73.100000
3115.244912	64.200000
3116.427146	82.100000
3117.609201	41.400000
3118.791079	60.900000
3119.972778	65.600000
3121.152799	64.800000
3122.331144	57.400000
3123.512310	61.900000
3124.690300	60.700000
3125.868113	59.800000
3127.045749	52.800000
3128.221710	72.100000
3129.397494	63.100000
3130.574600	63.200000
3131.750031	55.700000
3132.923789	54.700000
3134.095875	57.000000
3135.269281	44.500000
3136.442512	72.500000
3137.614070	56.100000
3138.786950	53.700000
3139.956662	60.500000
3141.127695	52.900000
3142.297057	49.800000
3143.464750	61.400000
3144.635258	63.900000
3145.801107	34.200000
3146.971266	51.800000
3148.136767	76.400000
3149.302095	51.700000
3150.467249	68.800000
3151.632229	59.000000
3152.798530	66.000000
3153.960177	50.400000
3155.123145	53.400000
3156.285939	51.200000
3157.448561	58.700000
3158.609518	76.000000
3159.770302	57.100000
3160.930914	61.200000
3162.089863	60.700000
3163.248639	44.100000
3164.407244	45.500000
3165.565677	47.000000
3166.723938	64.700000
3167.880537	67.900000
3169.035475	53.200000
3170.191732	75.400000
3171.346329	63.300000
3172.500754	64.600000
3173.653520	61.800000
3174.806116	72.100000
3175.958541	40.300000
3177.110797	61.600000
3178.262883	66.200000
3179.411822	48.800000
3180.563568	50.100000
3181.713656	58.600000
3182.862088	55.000000
3184.010351	59.600000
3185.158444	52.600000
3186.306369	50.500000
3187.452639	67.000000
3188.598740	53.000000
3189.743186	43.200000
3190.887465	64.500000
3192.031576	62.100000
3193.177005	49.800000
3194.319294	61.500000
3195.461417	69.500000
3196.603372	62.500000
3197.745161	61.000000
3198.886782	52.700000
3200.025267	65.400000
3201.165070	51.600000
3202.306191	63.200000
3203.444177	55.600000
3204.580514	54.500000
3205.716685	50.800000
3206.854174	61.200000
3207.990013	49.300000
3209.127170	39.900000
3210.259714	57.900000
3211.396540	41.900000
3212.528754	55.700000
3213.662286	74.000000
3214.795652	51.600000
3215.925891	46.900000
3217.058928	51.800000
3218.188839	64.400000
3219.320067	67.700000
3220.448169	59.800000
3221.579068	65.400000
3222.708324	68.100000
3223.835935	83.100000
3224.960425	67.100000
3226.089190	55.500000
3227.214833	80.900000
3228.340313	82.700000
3229.464152	65.900000
3230.590785	70.500000
3231.712821	74.400000
3232.836173	58.300000
3233.959363	67.500000
3235.082391	72.600000
3236.203779	60.200000
3237.325006	72.900000
3238.444594	85.900000
3239.564021	79.400000
3240.681810	78.600000
3241.802392	96.500000
3242.919859	65.800000
3244.037167	77.900000
3245.154313	74.200000
3246.269824	83.700000
3247.386650	62.800000
3248.500365	74.800000
3249.616870	74.500000
3250.731741	78.700000
3251.843503	60.800000
3252.955106	81.100000
3254.068023	65.000000
3255.180782	88.700000
3256.290434	57.500000
3257.401400	77.900000
3258.512208	51.800000
3259.621385	74.300000
3260.728930	61.100000
3261.837790	67.300000
3262.946491	39.900000
3264.052090	68.100000
3265.159003	48.100000
3266.264288	60.900000
3267.370886	70.800000
3268.474384	66.200000
3269.579196	54.500000
3270.683851	56.800000
3271.785407	79.500000
3272.886808	60.700000
3273.989522	56.000000
3275.092079	51.600000
3276.191540	42.400000
3277.293785	66.900000
3278.392934	38.100000
3279.490459	43.400000
3280.587828	54.400000
3281.687980	54.200000
3282.785038	37.100000
3283.881941	61.100000
3284.978689	41.200000
3286.070879	68.400000
3287.167317	50.000000
3288.262134	57.100000
3289.356795	44.400000
3290.449835	64.900000
3291.542721	49.500000
3292.633986	74.200000
3293.726564	48.800000
3294.817521	44.900000
3295.906859	38.900000
3296.996044	52.300000
3298.086542	56.200000
3299.173955	52.400000
3300.261216	49.500000
3301.349789	54.000000
3302.438209	47.500000
3303.522082	33.500000
3304.610197	30.300000
3305.695231	43.000000
3306.778648	39.300000
3307.863378	66.400000
3308.946493	49.200000
3310.030919	22.000000
3311.112267	49.500000
3312.194927	65.400000
3313.275973	39.400000
3314.356868	37.000000
3315.436150	46.200000
3316.515281	40.700000
3317.595723	43.100000
3318.673092	57.100000
3319.751771	45.500000
3320.828840	63.000000
3321.905758	46.100000
3322.981065	52.200000
3324.056223	48.800000
3325.132692	53.100000
3326.206091	48.900000
3327.279341	65.700000
3328.353902	52.300000
3329.426853	48.000000
3330.498197	55.800000
3331.570851	40.400000
3332.640438	36.200000
3333.711336	55.600000
3334.780627	36.100000
3335.851229	58.500000
3336.920224	57.800000
3337.987613	51.400000
3339.053397	29.600000
3340.123407	48.600000
3341.190354	29.700000
3342.254239	45.000000
3343.320892	47.200000
3344.385940	47.000000
3345.449385	45.000000
3346.512684	62.600000
3347.575836	48.600000
3348.638842	37.900000
3349.701702	45.500000
3350.762960	45.400000
3351.821161	55.200000
3352.883583	42.200000
3353.942948	39.300000
3355.002168	61.000000
3356.062698	52.800000
3357.118718	51.500000
3358.177503	44.300000
3359.231780	60.000000
3360.288820	25.400000
3361.344263	46.000000
3362.401014	35.100000
3363.456168	47.700000
3364.509724	72.100000
3365.561683	48.900000
3366.616404	53.800000
3367.668076	56.200000
3368.719605	43.600000
3369.772443	49.300000
3370.822233	40.400000
3371.873331	39.600000
3372.921384	35.700000
3373.972197	46.700000
3375.019964	52.900000
3376.067589	53.800000
3377.115071	49.700000
3378.160961	41.900000
3379.208159	50.200000
3380.252315	51.500000
3381.299229	27.900000
3382.344551	49.900000
3383.386833	40.100000
3384.428973	47.800000
3385.472421	36.100000
3386.515729	48.600000
3387.557446	41.500000
3388.599022	40.900000
3389.640458	41.100000
3390.680304	46.800000
3391.718563	55.500000
3392.758129	48.200000
3393.797554	54.000000
3394.835392	41.500000
3395.871643	39.400000
3396.907755	45.800000
3397.945174	34.500000
3398.979560	34.600000
3400.015253	35.400000
3401.050807	43.300000
3402.083330	53.400000
3403.118606	54.500000
3404.150851	60.000000
3405.182958	59.600000
3406.213481	41.000000
3407.245312	32.400000
3408.277003	38.200000
3409.305668	32.400000
3410.334194	43.100000
3411.364028	43.100000
3412.393723	33.700000
3413.420393	45.600000
3414.448370	34.200000
3415.473322	59.000000
3416.501024	45.400000
3417.525703	51.900000
3418.551688	41.400000
3419.576093	32.300000
3420.600362	47.400000
3421.623052	68.500000
3422.645606	47.400000
3423.669466	53.300000
3424.690306	52.800000
3425.711011	42.800000
3426.733021	51.300000
3427.752013	45.300000
3428.770870	42.100000
3429.791032	39.300000
3430.808178	38.200000
