-118.448435	-0.800000
-115.778835	-2.500000
-113.112170	-5.300000
-110.446257	10.300000
-107.783276	2.600000
-105.118866	13.900000
-102.457386	-3.900000
-99.794476	-3.900000
-97.136674	3.200000
-94.477441	-18.200000
-91.818958	7.800000
-89.163398	4.600000
-86.506410	0.200000
-83.854519	-7.000000
-81.201199	-10.900000
-78.550799	-9.000000
-75.898969	0.800000
-73.252230	-4.400000
-70.604061	0.300000
-67.956636	1.100000
-65.312124	-14.100000
-62.666184	-0.100000
-60.025325	2.300000
-57.383037	-13.600000
-54.743657	-7.900000
-52.102849	-10.300000
-49.462781	-5.900000
-46.827785	-9.200000
-44.191360	3.200000
-41.557839	12.300000
-38.922889	13.700000
-36.293004	-16.700000
-33.659527	-6.300000
-31.031112	1.400000
-28.403430	8.800000
-25.774321	0.800000
-23.150268	-17.300000
-20.522626	5.000000
-17.900037	2.000000
-15.278180	42.900000
-12.657053	44.900000
-10.036656	106.900000
-7.419147	371.900000
-4.800210	1199.400000
-2.184159	3126.600000
0.431164	6604.300000
3.045760	3060.200000
5.657473	382.600000
8.270615	57.300000
10.878723	34.100000
13.490413	8.300000
16.097072	6.400000
18.705159	12.500000
21.312522	7.100000
23.914860	13.400000
26.520776	13.900000
29.121670	5.100000
31.723992	10.900000
34.321297	3.100000
36.922177	7.800000
39.518043	3.400000
42.115336	-2.200000
44.711910	1.700000
47.303475	0.500000
49.896468	7.400000
52.486600	-10.900000
55.078160	3.100000
57.666860	-7.200000
60.256987	10.400000
62.842116	-7.800000
65.428671	17.600000
68.014513	3.100000
70.597501	7.500000
73.181915	-1.700000
75.759201	7.800000
78.340053	-1.000000
80.918056	-9.200000
83.495349	-8.200000
86.074068	-4.200000
88.647806	3.300000
91.222970	-21.600000
93.795291	-11.500000
96.366904	-15.100000
98.935677	-9.300000
101.505877	10.300000
104.073239	0.900000
106.642026	6.400000
109.207977	2.600000
111.771093	-4.800000
114.337765	-5.000000
116.895216	10.300000
119.458352	-0.500000
122.016529	4.600000
124.578259	41.300000
127.135034	28.700000
129.693234	36.500000
132.246482	69.700000
134.799031	100.100000
137.355131	159.300000
139.906284	214.000000
142.456738	267.200000
145.006496	300.900000
147.553434	330.000000
150.099676	350.700000
152.647344	400.600000
155.194317	373.500000
157.736353	382.000000
160.277696	344.200000
162.818346	345.900000
165.360422	346.900000
167.899687	345.900000
170.436142	346.400000
172.971907	360.700000
175.509097	350.300000
178.045595	355.600000
180.579288	342.800000
183.110178	364.200000
185.640379	336.900000
188.172005	327.400000
190.700830	372.000000
193.226856	335.200000
195.752197	336.500000
198.278962	358.100000
200.802930	342.200000
203.326214	337.600000
205.848813	335.900000
208.368619	322.700000
210.887742	311.500000
213.406182	321.900000
215.926046	321.600000
218.438909	339.000000
220.955303	340.900000
223.471015	342.500000
225.981838	360.900000
228.494085	382.400000
231.003549	369.000000
233.512335	373.600000
236.020443	362.300000
238.529974	392.900000
241.034625	382.900000
243.538601	387.000000
246.044000	388.800000
248.544524	380.700000
251.048571	377.300000
253.545648	369.100000
256.046247	371.400000
258.544075	377.300000
261.041230	383.800000
263.537712	392.100000
266.029331	384.300000
268.524470	370.200000
271.016843	365.900000
273.508545	388.300000
275.997483	382.800000
278.487846	393.900000
280.975447	375.700000
283.460288	398.300000
285.948643	407.700000
288.430059	393.100000
290.914989	389.700000
293.395074	411.700000
295.878671	410.700000
298.357425	402.100000
300.837603	428.300000
303.315028	462.400000
305.791790	428.500000
308.267889	402.500000
310.741239	401.900000
313.213927	401.000000
315.685954	392.500000
318.157320	395.100000
320.625942	389.600000
323.093904	409.200000
325.563289	386.600000
328.027850	364.000000
330.495916	380.600000
332.959162	361.400000
335.421750	362.200000
337.883682	359.100000
340.344957	350.800000
342.803498	350.200000
345.263461	353.200000
347.720691	338.000000
350.177267	328.200000
352.633189	314.800000
355.086382	318.600000
357.540996	322.300000
359.990809	315.200000
362.444119	311.800000
364.892629	313.300000
367.340489	307.300000
369.789770	315.200000
372.234258	297.600000
374.680168	292.000000
377.125429	295.500000
379.567970	292.900000
382.009864	295.400000
384.451111	288.800000
386.889642	265.600000
389.329595	285.600000
391.766834	279.700000
394.201361	275.200000
396.639376	265.800000
399.072614	281.900000
401.507274	272.600000
403.937160	267.400000
406.370532	270.400000
408.799134	269.000000
411.227095	276.500000
413.656476	261.000000
416.081092	261.600000
418.507130	266.400000
420.932527	263.500000
423.357284	289.200000
425.777283	259.100000
428.198703	248.700000
430.617426	259.900000
433.037570	253.700000
435.455019	261.000000
437.873888	246.500000
440.290064	236.700000
442.701493	232.200000
445.116398	212.700000
447.528613	227.200000
449.940194	222.600000
452.351141	205.000000
454.759402	209.200000
457.167030	205.800000
459.574027	201.300000
461.980391	204.000000
464.384073	208.300000
466.787125	218.200000
469.189547	193.400000
471.591340	209.900000
473.990454	200.100000
476.390988	221.600000
478.790893	224.300000
481.186075	214.200000
483.584724	235.100000
485.978653	230.400000
488.371956	231.700000
490.764633	266.000000
493.156685	259.000000
495.550156	293.200000
497.938914	334.200000
500.325006	400.900000
502.712518	486.000000
505.099406	647.700000
507.483631	903.200000
509.869275	1261.200000
512.252256	1749.900000
514.632577	2329.000000
517.014317	2815.300000
519.393398	2866.900000
521.773898	2580.200000
524.151740	2166.200000
526.526927	1781.700000
528.901496	1493.000000
531.277484	1258.200000
533.650818	1109.500000
536.025570	969.900000
538.395637	848.300000
540.765088	801.700000
543.135957	736.500000
545.502146	660.800000
547.869753	621.300000
550.234714	576.400000
552.599062	569.700000
554.962798	509.400000
557.327951	501.900000
559.688431	462.500000
562.050330	467.200000
564.409589	440.200000
566.766209	419.000000
569.126274	425.300000
571.479649	401.800000
573.836468	384.400000
576.190651	387.100000
578.544227	365.000000
580.897194	352.800000
583.247530	327.000000
585.599282	342.600000
587.944358	339.700000
590.294898	335.300000
592.638765	319.600000
594.988092	301.400000
597.332772	296.900000
599.674826	304.200000
602.018298	305.300000
604.359147	308.500000
606.699394	298.900000
609.037020	310.100000
611.378081	328.400000
613.714504	361.800000
616.052345	347.900000
618.387567	347.700000
620.720174	348.100000
623.054197	324.200000
625.385607	299.400000
627.716418	299.800000
630.046631	304.600000
632.376246	284.600000
634.701239	297.700000
637.031673	282.200000
639.357485	277.900000
641.680691	268.300000
644.005312	287.400000
646.327329	268.500000
648.648751	266.800000
650.967570	284.200000
653.287805	268.700000
655.607447	254.000000
657.924488	253.900000
660.240937	253.600000
662.554788	238.900000
664.870055	249.100000
667.182725	257.000000
669.496810	239.900000
671.806295	261.900000
674.117196	272.300000
676.425504	252.700000
678.733224	240.300000
681.042359	244.400000
683.346901	249.600000
685.650856	231.300000
687.954226	238.400000
690.259010	221.900000
692.559208	239.000000
694.860820	220.800000
697.161848	229.200000
699.458293	217.700000
701.756154	209.200000
704.053431	226.200000
706.350125	203.800000
708.642243	222.100000
710.937772	211.700000
713.228728	219.100000
715.521098	211.600000
717.810892	209.600000
720.100107	204.600000
722.388741	201.600000
724.674804	207.500000
726.962280	216.800000
729.247186	208.200000
731.531513	209.500000
733.813272	218.900000
736.096445	204.800000
738.379041	215.600000
740.657082	209.500000
742.936536	210.500000
745.215415	228.400000
747.493718	206.500000
749.767472	221.900000
752.042640	206.800000
754.317234	187.600000
756.589268	178.900000
758.862716	206.900000
761.133606	209.700000
763.401940	208.100000
765.671687	184.100000
767.938880	198.500000
770.205502	208.900000
772.471555	198.000000
774.735055	194.100000
776.999969	186.200000
779.264313	209.400000
781.524128	200.600000
783.785356	208.900000
786.046015	210.600000
788.304129	199.900000
790.559698	211.200000
792.818658	192.700000
795.071119	205.000000
797.328947	206.200000
799.582255	195.200000
801.833024	187.600000
804.085205	198.700000
806.334848	186.000000
808.585902	203.900000
810.832445	207.100000
813.080400	199.800000
815.325821	219.000000
817.572653	188.600000
819.818924	211.800000
822.060691	207.500000
824.305840	211.400000
826.544517	176.500000
828.786577	195.200000
831.024138	188.500000
833.263110	180.700000
835.499556	172.600000
837.737413	157.900000
839.972745	189.100000
842.205554	195.500000
844.439774	193.900000
846.671472	183.200000
848.902615	183.500000
851.133203	169.800000
853.363236	182.700000
855.592716	175.200000
857.817714	177.300000
860.046087	187.400000
862.269981	203.400000
864.495285	164.700000
866.716114	186.700000
868.940315	183.400000
871.160043	186.300000
873.381182	176.200000
875.601770	189.300000
877.819848	179.500000
880.039337	189.700000
882.254359	178.400000
884.468833	190.800000
886.682760	179.600000
888.896139	175.400000
891.108971	184.100000
893.321257	181.000000
895.531040	186.300000
897.740278	171.200000
899.948971	172.300000
902.155165	187.100000
904.362768	193.900000
906.567874	177.500000
908.772436	187.100000
910.974502	175.000000
913.177978	181.600000
915.378960	193.900000
917.579401	183.000000
919.781249	196.200000
921.976707	220.500000
924.175524	226.700000
926.369902	227.600000
928.567638	280.100000
930.760938	286.300000
932.955647	330.700000
935.147870	364.500000
937.339555	376.800000
939.530702	413.700000
941.719366	437.000000
943.907493	421.500000
946.093140	424.300000
948.282139	423.700000
950.466715	424.200000
952.650756	421.500000
954.838147	429.200000
957.017234	406.800000
959.199672	429.700000
961.381576	415.700000
963.561006	430.000000
965.737963	438.600000
967.916327	421.400000
970.096099	426.800000
972.269522	421.300000
974.446291	433.400000
976.618653	419.000000
978.792423	425.800000
980.961789	425.300000
983.134500	413.400000
985.304744	396.300000
987.474460	343.600000
989.643647	330.500000
991.808437	273.900000
993.976568	262.800000
996.140305	255.300000
998.305448	249.700000
1000.468133	247.000000
1002.630291	222.500000
1004.789993	212.000000
1006.949171	214.800000
1009.109755	222.900000
1011.267884	197.200000
1013.425489	212.300000
1015.582571	224.700000
1017.739130	190.200000
1019.891309	205.500000
1022.044894	199.400000
1024.197958	184.400000
1026.348574	176.500000
1028.500595	184.700000
1030.648243	193.000000
1032.799223	184.300000
1034.945832	184.300000
1037.091923	174.300000
1039.237494	171.600000
1041.384471	182.600000
1043.525159	187.200000
1045.669177	167.800000
1047.810754	191.400000
1049.951815	172.600000
1052.094280	190.100000
1054.230466	166.000000
1056.369978	162.000000
1058.505134	158.200000
1060.643615	183.900000
1062.777742	174.200000
1064.911356	158.000000
1067.046375	175.400000
1069.177044	169.300000
1071.309118	167.400000
1073.438763	164.400000
1075.567896	180.500000
1077.696517	154.000000
1079.824627	163.600000
1081.950311	158.600000
1084.075485	180.300000
1086.202063	159.100000
1088.324304	149.700000
1090.447948	142.700000
1092.567259	151.400000
1094.691798	145.800000
1096.810092	144.800000
1098.929791	150.500000
1101.047071	133.400000
1103.163845	156.000000
1105.280112	161.700000
1107.393964	152.700000
1109.509219	146.400000
1111.620152	155.600000
1113.734396	140.900000
1115.844320	144.700000
1117.955648	146.000000
1120.066471	161.600000
1122.172979	143.800000
1124.282795	146.000000
1126.388297	142.200000
1128.495202	152.100000
1130.595892	165.100000
1132.701794	128.500000
1134.803387	141.500000
1136.906383	152.400000
1139.008878	130.500000
1141.105166	139.900000
1143.206662	140.700000
1145.303855	135.700000
1147.400549	156.200000
1149.496745	136.600000
1151.592444	117.200000
1153.687645	142.100000
1155.780449	136.400000
1157.874655	117.900000
1159.962670	143.200000
1162.055883	138.900000
1164.142908	134.400000
1166.233232	154.500000
1168.319269	147.300000
1170.408603	131.800000
1172.491756	145.600000
1174.576311	131.300000
1176.662268	156.100000
1178.743943	155.500000
1180.827020	146.400000
1182.907711	143.500000
1184.987910	149.600000
1187.067618	133.400000
1189.146835	146.700000
1191.223670	149.000000
1193.298124	139.900000
1195.375870	137.700000
1197.449345	163.300000
1199.524221	140.700000
1201.594830	136.800000
1203.666841	133.500000
1205.736475	130.700000
1207.807510	142.100000
1209.878057	134.100000
1211.944343	146.300000
1214.012030	132.600000
1216.077345	139.600000
1218.144060	133.900000
1220.206519	132.200000
1222.272263	120.500000
1224.333754	119.900000
1226.396644	116.900000
1228.457167	143.000000
1230.517206	130.700000
1232.576763	127.200000
1234.633954	142.800000
1236.690664	136.600000
1238.745011	130.900000
1240.802638	134.800000
1242.857903	129.100000
1244.908927	143.200000
1246.961351	132.300000
1249.013295	122.200000
1251.062881	152.400000
1253.111988	132.100000
1255.160617	160.200000
1257.208767	139.800000
1259.256439	133.700000
1261.299880	156.700000
1263.346596	146.600000
1265.390959	143.600000
1267.434846	135.700000
1269.476382	153.800000
1271.515567	151.100000
1273.558026	145.900000
1275.596262	145.400000
1277.635897	145.900000
1279.675057	136.000000
1281.709998	153.700000
1283.746339	148.300000
1285.780334	126.600000
1287.815728	149.700000
1289.846908	132.700000
1291.879487	125.300000
1293.911593	139.500000
1295.941359	152.400000
1297.972523	139.800000
1299.999479	143.000000
1302.027833	137.400000
1304.051983	125.400000
1306.079397	125.500000
1308.102609	123.800000
1310.127219	158.300000
1312.149495	133.800000
1314.173168	130.600000
1316.194508	132.100000
1318.215380	140.000000
1320.235786	124.400000
1322.251997	135.000000
1324.269606	147.700000
1326.284888	158.900000
1328.303427	140.000000
1330.317778	146.800000
1332.329803	131.400000
1334.345085	144.400000
1336.356182	142.700000
1338.368676	141.400000
1340.376987	145.900000
1342.388554	150.900000
1344.394081	139.900000
1346.402864	159.200000
1348.407469	145.600000
1350.415328	152.300000
1352.422725	152.800000
1354.424091	142.900000
1356.426854	141.300000
1358.429156	133.200000
1360.430999	145.200000
1362.432382	136.200000
1364.431452	125.600000
1366.430063	123.500000
1368.428216	136.500000
1370.425911	139.300000
1372.419442	120.200000
1374.414370	138.100000
1376.408841	129.500000
1378.402855	127.800000
1380.394561	131.700000
1382.385813	129.000000
1384.374759	136.900000
1386.365100	116.400000
1388.354986	130.500000
1390.342569	123.100000
1392.329697	127.700000
1394.314525	132.000000
1396.300746	113.200000
1398.284668	107.500000
1400.268137	143.400000
1402.251154	111.400000
1404.231872	114.300000
1406.213986	118.500000
1408.193802	114.400000
1410.173168	129.300000
1412.148394	133.900000
1414.126860	130.500000
1416.103031	127.500000
1418.078754	114.000000
1420.054027	123.600000
1422.027009	122.000000
1423.999543	128.600000
1425.971630	131.500000
1427.943268	131.700000
1429.910778	123.100000
1431.883363	133.700000
1433.848141	115.200000
1435.817991	129.700000
1437.783718	114.300000
1439.750837	134.700000
1441.715673	128.600000
1443.676390	118.000000
1445.642174	108.200000
1447.602003	127.600000
1449.563225	127.500000
1451.525840	99.800000
1453.484340	129.400000
1455.442398	137.200000
1457.400013	125.100000
1459.357187	129.400000
1461.312085	126.700000
1463.268375	124.100000
1465.222391	126.100000
1467.175967	123.800000
1469.127270	142.300000
1471.079965	134.300000
1473.030389	138.300000
1474.980373	129.200000
1476.929919	121.300000
1478.877196	121.800000
1480.822206	124.400000
1482.768607	119.900000
1484.714572	135.300000
1486.660098	128.300000
1488.603360	123.100000
1490.546185	119.600000
1492.486747	109.100000
1494.428700	132.600000
1496.368392	132.400000
1498.307648	132.500000
1500.246469	99.100000
1502.183031	107.400000
1504.120984	117.100000
1506.056679	140.000000
1507.991939	132.900000
1509.924944	131.300000
1511.857516	127.800000
1513.789656	103.800000
1515.721364	122.300000
1517.650818	126.700000
1519.581663	111.800000
1521.512077	136.300000
1523.438417	120.000000
1525.366149	126.200000
1527.291630	133.500000
1529.216682	136.900000
1531.141305	124.200000
1533.065499	130.100000
1534.987446	125.800000
1536.910782	136.700000
1538.831873	140.400000
1540.750719	133.400000
1542.670955	130.900000
1544.588947	145.600000
1546.506513	150.600000
1548.421837	154.500000
1550.338551	144.100000
1552.251210	177.800000
1554.167073	163.800000
1556.080696	163.300000
1557.992082	155.600000
1559.904856	182.900000
1561.813581	174.800000
1563.723696	189.400000
1565.633387	211.100000
1567.542654	233.400000
1569.449688	257.000000
1571.354489	299.100000
1573.260679	334.200000
1575.164637	418.800000
1577.068175	488.700000
1578.971291	559.900000
1580.872179	587.100000
1582.774454	567.600000
1584.674502	523.200000
1586.575937	455.400000
1588.473339	392.600000
1590.370322	330.000000
1592.266887	253.300000
1594.164840	230.800000
1596.056958	220.500000
1597.952269	202.200000
1599.847163	173.000000
1601.739835	176.700000
1603.632091	163.300000
1605.522126	172.000000
1607.411747	150.800000
1609.300951	166.000000
1611.189741	152.000000
1613.076314	140.000000
1614.964273	152.800000
1616.848216	157.600000
1618.733547	160.200000
1620.618463	163.300000
1622.501166	165.700000
1624.385256	151.700000
1626.265335	139.700000
1628.146800	129.900000
1630.026055	114.000000
1631.906696	117.800000
1633.781533	130.300000
1635.661352	126.200000
1637.537165	145.100000
1639.412568	118.700000
1641.289358	125.200000
1643.160350	120.000000
1645.034524	132.900000
1646.904700	137.400000
1648.778056	125.100000
1650.649209	120.500000
1652.518160	111.800000
1654.388497	107.000000
1656.254840	114.200000
1658.122569	99.200000
1659.988100	111.000000
1661.855015	98.500000
1663.717942	111.300000
1665.582254	81.300000
1667.444370	101.600000
1669.306082	111.400000
1671.169178	114.700000
1673.030080	121.500000
1674.888788	105.200000
1676.747093	105.200000
1678.606783	120.500000
1680.460706	119.200000
1682.317801	87.800000
1684.174494	97.300000
1686.027211	109.800000
1687.883098	94.000000
1689.735012	93.100000
1691.586525	103.600000
1693.437637	104.800000
1695.288349	87.300000
1697.138660	104.100000
1698.986787	99.600000
1700.836297	89.400000
1702.680059	86.300000
1704.528770	83.500000
1706.371736	90.100000
1708.217867	98.300000
1710.060037	97.700000
1711.905371	89.200000
1713.744965	105.500000
1715.585943	82.000000
1717.428304	101.900000
1719.266709	95.000000
1721.106497	102.000000
1722.944110	94.200000
1724.781327	83.600000
1726.616371	90.600000
1728.452798	91.600000
1730.287053	101.600000
1732.120913	109.600000
1733.954380	90.600000
1735.783900	98.200000
1737.616579	77.100000
1739.445314	91.800000
1741.277207	85.100000
1743.105157	88.400000
1744.932715	99.900000
1746.759881	90.900000
1748.586656	109.400000
1750.413040	95.000000
1752.235487	95.100000
1754.061088	88.600000
1755.882755	111.900000
1757.705804	100.500000
1759.526692	81.700000
1761.347190	88.800000
1763.169070	100.500000
1764.985250	88.600000
1766.804582	84.000000
1768.619987	102.800000
1770.438542	87.000000
1772.253172	71.800000
1774.067416	97.800000
1775.881272	82.200000
1777.694742	84.500000
1779.506059	93.000000
1781.318757	103.700000
1783.131068	102.300000
1784.939462	86.900000
1786.749237	113.200000
1788.555096	75.600000
1790.364101	96.300000
1792.169193	104.000000
1793.975666	76.600000
1795.781755	83.900000
1797.583934	84.200000
1799.389256	76.100000
1801.190670	102.100000
1802.993464	94.800000
1804.792352	97.500000
1806.592621	95.600000
1808.392508	87.700000
1810.190254	81.400000
1811.987618	70.800000
1813.784603	89.000000
1815.581207	83.800000
1817.375672	96.100000
1819.171516	76.200000
1820.961706	98.700000
1822.756792	80.400000
1824.546225	89.500000
1826.338795	85.500000
1828.129230	87.500000
1829.917531	85.800000
1831.708967	79.200000
1833.494757	84.600000
1835.281927	116.200000
1837.066965	86.200000
1838.855137	90.900000
1840.639423	87.400000
1842.421580	114.600000
1844.205115	102.800000
1845.986522	100.100000
1847.769308	98.900000
1849.548214	105.100000
1851.328498	94.600000
1853.106656	77.500000
1854.886193	98.200000
1856.663605	101.900000
1858.438893	109.800000
1860.215560	102.500000
1861.990103	92.500000
1863.766025	107.900000
1865.536326	88.800000
1867.309755	113.300000
1869.081064	99.100000
1870.852003	108.500000
1872.624318	94.500000
1874.391020	98.400000
1876.160848	110.600000
1877.926812	113.100000
1879.695900	102.200000
1881.461126	98.400000
1883.225983	99.500000
1884.992218	102.500000
1886.754594	89.100000
1888.516603	107.500000
1890.278244	93.100000
1892.039519	95.000000
1893.800426	99.300000
1895.560967	94.900000
1897.319398	105.100000
1899.077464	106.100000
1900.833421	96.000000
1902.590756	89.300000
1904.347724	104.900000
1906.102587	92.200000
1907.855344	92.000000
1909.607738	80.500000
1911.361507	94.000000
1913.113173	98.900000
1914.862737	86.300000
1916.613677	81.600000
1918.364253	98.600000
1920.110990	98.800000
1921.859104	101.600000
1923.605118	71.300000
1925.352508	82.500000
1927.097799	92.800000
1928.840993	82.200000
1930.585563	63.900000
1932.328036	87.600000
1934.070149	100.200000
1935.811902	69.700000
1937.553296	97.200000
1939.292596	89.500000
1941.031536	83.200000
1942.770119	87.400000
1944.506609	90.400000
1946.242742	88.600000
1947.980249	86.800000
1949.713934	87.600000
1951.448994	82.300000
1953.181966	94.800000
1954.914581	86.800000
1956.646839	87.900000
1958.378741	80.900000
1960.108557	97.600000
1961.836289	87.900000
1963.565394	90.900000
1965.294145	75.800000
1967.020812	99.300000
1968.747125	97.200000
1970.474811	96.800000
1972.196961	96.600000
1973.922212	93.400000
1975.643657	90.200000
1977.368201	91.100000
1979.090666	96.100000
1980.809327	86.200000
1982.531087	82.300000
1984.249045	84.300000
1985.968376	94.000000
1987.683908	75.400000
1989.404261	79.200000
1991.120814	81.200000
1992.833571	82.600000
1994.549425	72.400000
1996.263205	81.100000
1997.976636	96.200000
1999.687996	101.000000
2001.400729	93.800000
2003.109670	81.600000
2004.821705	88.400000
2006.528230	79.700000
2008.237848	86.800000
2009.945398	83.700000
2011.652601	83.400000
2013.357738	92.800000
2015.062528	74.700000
2016.768690	79.100000
2018.471070	91.200000
2020.174822	88.200000
2021.876510	91.200000
2023.577854	85.600000
2025.278852	83.300000
2026.977790	80.100000
2028.678098	85.800000
2030.374632	89.600000
2032.072537	93.200000
2033.768383	85.500000
2035.467315	83.200000
2037.160761	71.000000
2038.855579	84.900000
2040.550053	99.200000
2042.240759	82.000000
2043.934549	81.500000
2045.624572	67.400000
2047.315966	72.500000
2049.005307	87.500000
2050.696018	73.200000
2052.382966	77.600000
2054.069575	75.100000
2055.757554	87.400000
2057.441773	81.500000
2059.127362	67.900000
2060.812612	77.600000
2062.495814	82.500000
2064.180385	80.700000
2065.859494	85.200000
2067.543388	66.500000
2069.221822	74.300000
2070.903332	81.300000
2072.581092	87.800000
2074.258514	84.200000
2075.937306	102.400000
2077.614056	71.200000
2079.288764	78.400000
2080.964841	69.600000
2082.638878	75.800000
2084.312579	62.900000
2085.985945	89.600000
2087.657273	89.400000
2089.328266	59.700000
2090.998925	67.600000
2092.669249	84.400000
2094.339240	84.100000
2096.007195	69.800000
2097.674817	57.800000
2099.340404	77.600000
2101.007361	76.400000
2102.672283	55.000000
2104.336874	101.600000
2105.999433	76.800000
2107.663360	91.700000
2109.325257	66.700000
2110.986822	77.300000
2112.648056	74.700000
2114.307262	79.400000
2115.966137	75.400000
2117.624683	76.600000
2119.282899	95.800000
2120.937391	74.900000
2122.594948	96.600000
2124.252176	71.400000
2125.905682	78.400000
2127.560556	75.000000
2129.211712	74.000000
2130.865929	89.200000
2132.516430	70.400000
2134.168297	82.200000
2135.814756	70.700000
2137.465970	73.600000
2139.113470	79.200000
2140.762337	76.800000
2142.409186	82.600000
2144.055708	74.500000
2145.701905	70.500000
2147.344394	85.900000
2148.989941	72.600000
2150.631781	80.900000
2152.276678	72.900000
2153.917870	77.900000
2155.558738	69.600000
2157.199282	78.500000
2158.837814	87.200000
2160.477712	53.400000
2162.113910	97.100000
2163.751475	88.200000
2165.388716	94.200000
2167.023948	82.400000
2168.658859	85.400000
2170.293448	61.400000
2171.927715	61.500000
2173.558289	87.200000
2175.191915	83.200000
2176.821849	84.700000
2178.453148	78.200000
2180.082442	75.300000
2181.711417	74.500000
2183.340073	79.500000
2184.968409	75.500000
2186.594742	90.400000
2188.220757	83.200000
2189.844771	83.500000
2191.470149	74.500000
2193.093528	85.000000
2194.718270	85.300000
2196.339332	90.400000
2197.960077	79.200000
2199.582187	84.200000
2201.202299	51.400000
2202.820414	83.900000
2204.438214	80.000000
2206.055699	76.000000
2207.672868	79.700000
2209.289722	64.800000
2210.906261	73.400000
2212.520806	71.400000
2214.133359	83.400000
2215.747276	79.300000
2217.359202	83.000000
2218.972491	61.500000
2220.583790	68.000000
2222.193099	75.700000
2223.803772	85.900000
2225.412456	63.800000
2227.020828	71.700000
2228.627212	80.600000
2230.234960	84.000000
2231.840721	79.700000
2233.446171	87.200000
2235.049636	71.900000
2236.654464	77.800000
2238.257309	68.900000
2239.858170	72.800000
2241.460393	66.800000
2243.060635	82.400000
2244.662239	57.800000
2246.260191	80.200000
2247.859505	80.700000
2249.456839	67.800000
2251.053864	79.900000
2252.652252	64.400000
2254.246991	71.500000
2255.839753	76.700000
2257.433878	95.500000
2259.029364	83.000000
2260.621206	87.200000
2262.212741	87.800000
2263.805637	74.900000
2265.393224	88.000000
2266.985508	87.800000
2268.572484	80.600000
2270.162489	80.300000
2271.747189	85.100000
2273.336583	75.300000
2274.920674	76.100000
2276.506127	60.800000
2278.089610	75.700000
2279.676120	88.000000
2281.258996	63.800000
2282.841568	69.300000
2284.423837	78.400000
2286.002477	66.300000
2287.584140	60.500000
2289.162175	81.100000
2290.743233	66.800000
2292.320665	69.050000
2293.896132	71.300000
2295.474622	67.700000
2297.049488	68.300000
2298.624053	71.300000
2300.198318	88.000000
2301.772282	83.000000
2303.345946	77.100000
2304.919309	67.100000
2306.489054	75.300000
2308.058500	78.300000
2309.630965	78.400000
2311.198154	59.100000
2312.768362	69.600000
2314.334955	74.300000
2315.902908	79.200000
2317.468905	72.600000
2319.034605	81.400000
2320.600008	82.700000
2322.163456	76.600000
2323.728264	62.700000
2325.289464	83.300000
2326.853678	99.400000
2328.412631	68.200000
2329.974597	74.900000
2331.534613	71.800000
2333.094333	74.400000
2334.652104	68.300000
2336.209580	84.100000
2337.766762	66.800000
2339.321997	53.500000
2340.876937	52.500000
2342.431584	81.800000
2343.985937	68.500000
2345.539996	57.400000
2347.093761	57.300000
2348.645583	55.700000
2350.195461	88.500000
2351.748347	61.400000
2353.295991	77.500000
2354.846642	84.300000
2356.393702	73.000000
2357.942121	62.500000
2359.490247	73.400000
2361.034785	82.400000
2362.580681	75.500000
2364.124639	79.400000
2365.669954	65.800000
2367.211684	65.200000
2368.754771	68.200000
2370.295923	72.300000
2371.836785	73.000000
2373.377358	67.000000
2374.917641	58.400000
2376.457636	73.600000
2377.994053	66.800000
2379.533471	84.900000
2381.069312	82.500000
2382.606509	50.800000
2384.140131	84.300000
2385.676754	69.300000
2387.211445	69.400000
2388.744207	78.800000
2390.276682	79.400000
2391.807230	60.000000
2393.340775	74.700000
2394.869109	67.200000
2396.398799	87.000000
2397.928204	66.200000
2399.457323	86.600000
2400.986158	79.300000
2402.509787	80.400000
2404.038053	85.900000
2405.561115	79.200000
2407.088811	65.800000
2408.609668	71.900000
2410.135158	80.400000
2411.657087	81.000000
2413.180372	60.500000
2414.701736	72.100000
2416.221180	73.400000
2417.741979	63.000000
2419.260859	75.800000
2420.779457	82.600000
2422.296138	75.700000
2423.814173	73.700000
2425.331927	102.600000
2426.846130	77.700000
2428.360052	86.400000
2429.873694	94.000000
2431.388691	64.100000
2432.900139	85.800000
2434.412942	83.900000
2435.923832	97.600000
2437.434442	78.700000
2438.943141	84.300000
2440.454827	92.600000
2441.962968	112.800000
2443.470832	98.800000
2444.978418	120.200000
2446.482463	92.000000
2447.989494	101.700000
2449.494616	111.200000
2450.999461	94.500000
2452.502399	123.300000
2454.005060	107.400000
2455.507445	104.100000
2457.007925	108.500000
2458.509758	108.000000
2460.009687	95.600000
2461.509340	112.500000
2463.008717	91.600000
2464.506192	100.400000
2466.001765	86.600000
2467.500319	92.900000
2468.995343	104.100000
2470.491721	90.300000
2471.984571	87.000000
2473.478775	76.200000
2474.972705	73.100000
2476.463112	89.500000
2477.956495	98.000000
2479.447981	87.600000
2480.937570	84.100000
2482.426887	98.200000
2483.914309	91.300000
2485.404706	91.200000
2486.891584	67.400000
2488.379814	76.400000
2489.864528	92.600000
2491.348971	88.200000
2492.834766	66.100000
2494.318668	86.400000
2495.803922	74.200000
2497.284042	73.400000
2498.767134	80.500000
2500.248336	88.100000
2501.729269	91.900000
2503.208313	65.100000
2504.687088	63.900000
2506.165595	74.900000
2507.643834	82.000000
2509.121804	69.500000
2510.596270	80.800000
2512.073704	77.500000
2513.547635	78.200000
2515.022916	53.800000
2516.497931	88.900000
2517.969444	83.100000
2519.442307	71.600000
2520.913288	61.900000
2522.385619	74.200000
2523.852837	80.200000
2525.323020	83.900000
2526.791323	82.200000
2528.259361	68.600000
2529.727134	78.700000
2531.194642	59.700000
2532.661885	62.100000
2534.125636	75.900000
2535.590737	71.600000
2537.053961	75.600000
2538.518535	63.600000
2539.979619	72.300000
2541.442053	81.800000
2542.904224	66.100000
2544.362909	77.100000
2545.826166	59.100000
2547.284326	74.200000
2548.743835	88.200000
2550.198251	62.300000
2551.657236	66.800000
2553.114350	83.600000
2554.569593	84.500000
2556.024575	77.200000
2557.477687	86.200000
2558.932148	81.400000
2560.384740	72.800000
2561.837072	68.400000
2563.287536	79.300000
2564.740956	61.700000
2566.189294	87.400000
2567.640588	79.700000
2569.090015	62.700000
2570.535970	67.500000
2571.984881	88.500000
2573.430320	79.400000
2574.877108	58.500000
2576.322032	77.800000
2577.766699	74.100000
2579.212713	70.100000
2580.655260	78.300000
2582.099155	75.400000
2583.539585	81.400000
2584.981362	84.200000
2586.421280	94.600000
2587.862545	73.800000
2589.300349	80.000000
2590.741102	75.500000
2592.176792	83.600000
2593.615432	85.800000
2595.052215	70.300000
2596.487141	75.700000
2597.925016	89.200000
2599.357832	98.200000
2600.791996	72.000000
2602.224306	85.300000
2603.657962	86.000000
2605.089765	99.100000
2606.521315	71.400000
2607.952611	71.300000
2609.382055	89.100000
2610.811248	80.400000
2612.238589	77.700000
2613.667277	85.500000
2615.095712	85.300000
2616.520700	80.900000
2617.947035	99.400000
2619.371521	98.400000
2620.797353	85.800000
2622.219741	97.900000
2623.643475	104.800000
2625.065362	103.200000
2626.487000	86.200000
2627.906792	96.500000
2629.327930	87.800000
2630.748818	124.700000
2632.166268	107.700000
2633.586657	99.700000
2635.003609	132.200000
2636.420313	120.700000
2637.836768	127.500000
2639.252975	129.100000
2640.668933	126.400000
2642.083051	142.200000
2643.496922	144.400000
2644.908953	145.400000
2646.322329	138.100000
2647.732275	176.000000
2649.145156	169.700000
2650.554610	180.900000
2651.963817	193.100000
2653.371187	196.300000
2654.781493	205.000000
2656.189962	221.000000
2657.596596	225.100000
2659.002985	251.100000
2660.407540	269.600000
2661.813439	291.100000
2663.217505	327.800000
2664.621326	351.500000
2666.024904	377.500000
2667.426649	429.200000
2668.829738	465.400000
2670.229409	544.100000
2671.630424	533.900000
2673.028023	638.100000
2674.428552	689.700000
2675.825666	717.400000
2677.224123	779.500000
2678.620752	834.800000
2680.017139	874.100000
2681.413285	898.200000
2682.807604	918.900000
2684.203266	917.000000
2685.595518	890.500000
2686.989114	861.700000
2688.380885	827.600000
2689.773998	793.100000
2691.165288	733.400000
2692.554755	677.600000
2693.943982	617.700000
2695.332970	558.700000
2696.723300	524.200000
2698.108645	465.400000
2699.496914	428.100000
2700.883363	363.200000
2702.269573	347.300000
2703.655545	325.100000
2705.038117	289.000000
2706.422032	260.700000
2707.805709	269.200000
2709.189148	226.500000
2710.569191	206.900000
2711.950576	199.300000
2713.330145	180.700000
2714.711056	177.100000
2716.090151	156.300000
2717.467433	155.400000
2718.846056	146.000000
2720.222866	146.800000
2721.599440	124.900000
2722.975778	137.200000
2724.350304	121.200000
2725.726171	120.300000
2727.098651	115.000000
2728.474047	121.500000
2729.844483	120.200000
2731.216260	94.600000
2732.587802	97.500000
2733.957536	106.400000
2735.328611	102.200000
2736.697877	97.600000
2738.066911	97.900000
2739.434137	99.700000
2740.801131	84.400000
2742.167892	102.500000
2743.534420	90.200000
2744.899143	84.800000
2746.263635	92.000000
2747.627894	82.700000
2748.991921	82.300000
2750.355717	81.900000
2751.716139	69.500000
2753.079472	81.800000
2754.437862	67.400000
2755.799162	74.600000
2757.157091	70.000000
2758.517930	65.700000
2759.876968	60.900000
2761.232638	71.400000
2762.591216	71.000000
2763.946428	55.800000
2765.301410	60.000000
2766.654595	85.300000
2768.010687	65.300000
2769.363415	74.900000
2770.715914	73.600000
2772.068185	74.400000
2773.421795	80.500000
2774.772043	82.000000
2776.120498	77.100000
2777.471857	76.300000
2778.819857	58.700000
2780.169196	77.100000
2781.516742	72.000000
2782.864061	77.500000
2784.211154	74.300000
2785.556456	73.700000
2786.901532	85.400000
2788.246382	68.300000
2789.591005	56.500000
2790.932277	81.000000
2792.274887	68.100000
2793.617271	55.500000
2794.959431	67.000000
2796.298241	65.100000
2797.639950	62.300000
2798.978312	69.100000
2800.318011	67.700000
2801.655924	64.900000
2802.992053	77.800000
2804.327958	54.200000
2805.665201	59.700000
2807.000660	41.000000
2808.335896	58.100000
2809.669349	67.200000
2811.004140	49.100000
2812.335589	72.200000
2813.669934	80.800000
2814.999381	63.900000
2816.330165	69.300000
2817.660727	58.800000
2818.989510	70.200000
2820.319629	55.600000
2821.647970	76.600000
2822.976090	81.000000
2824.302432	71.200000
2825.630111	65.400000
2826.954457	51.600000
2828.280138	51.300000
2829.604044	56.800000
2830.927731	48.400000
2832.252753	65.900000
2833.574445	45.900000
2834.895919	66.400000
2836.217174	66.200000
2837.538210	56.900000
2838.857474	50.500000
2840.178073	57.100000
2841.496900	57.100000
2842.815509	63.000000
2844.132347	35.600000
2845.448968	53.300000
2846.765372	52.000000
2848.080007	60.700000
2849.395976	72.100000
2850.708625	54.800000
2852.022610	69.800000
2853.336377	41.400000
2854.649929	36.200000
2855.961713	52.600000
2857.271731	52.500000
2858.583084	50.200000
2859.891122	51.600000
2861.200495	53.600000
2862.509652	64.900000
2863.818594	56.600000
2865.125773	67.300000
2866.431188	54.800000
2867.737938	54.300000
2869.042925	53.700000
2870.347699	55.800000
2871.650711	63.500000
2872.956605	52.900000
2874.257643	39.600000
2875.560016	47.600000
2876.860629	58.500000
2878.162576	55.000000
2879.464310	53.400000
2880.762739	50.900000
2882.062503	67.100000
2883.360508	37.800000
2884.658302	45.800000
2885.954340	48.300000
2887.251711	56.400000
2888.547326	66.400000
2889.842730	44.700000
2891.137924	54.100000
2892.429819	55.000000
2893.724591	40.900000
2895.016066	39.900000
2896.308874	44.300000
2897.601472	58.000000
2898.890776	67.000000
2900.181412	39.400000
2901.470297	49.800000
2902.760515	33.200000
2904.047440	52.500000
2905.335699	44.800000
2906.622207	54.400000
2907.908508	52.400000
2909.194600	46.600000
2910.478944	46.700000
2911.766160	58.600000
2913.048548	51.700000
2914.332269	52.400000
2915.614244	54.400000
2916.896012	50.400000
2918.176034	58.400000
2919.458926	56.700000
2920.740073	52.400000
2922.017938	42.000000
2923.298672	70.400000
2924.576125	47.300000
2925.853372	66.700000
2927.128878	54.500000
2928.407251	50.700000
2929.680809	44.600000
2930.957235	36.800000
2932.231920	44.100000
2933.504865	48.600000
2934.779140	53.400000
2936.051676	49.700000
2937.324008	48.800000
2938.593066	52.100000
2939.864990	48.400000
2941.135176	49.100000
2942.405159	58.900000
2943.674938	64.800000
2944.942980	59.300000
2946.209287	60.800000
2947.475391	52.500000
2948.742825	57.800000
2950.008525	48.800000
2951.274022	58.900000
2952.539317	50.900000
2953.801347	65.900000
2955.064708	53.500000
2956.327866	44.200000
2957.589293	49.300000
2958.852049	50.300000
2960.113074	45.800000
2961.372367	43.400000
2962.631461	40.400000
2963.890354	46.200000
2965.149047	68.800000
2966.407540	63.300000
2967.664304	52.300000
2968.920868	43.300000
2970.175705	49.000000
2971.431871	51.400000
2972.684781	43.400000
2973.939021	35.700000
2975.193062	37.900000
2976.445377	50.300000
2977.697494	55.000000
2978.947886	52.200000
2980.201133	31.100000
2981.449603	64.500000
2982.700927	53.200000
2983.949003	48.900000
2985.196881	68.000000
2986.444562	46.200000
2987.692047	29.600000
2988.937810	56.300000
2990.183376	57.300000
2991.430270	62.400000
2992.673920	49.200000
2993.918898	40.300000
2995.160633	62.700000
2996.405218	45.500000
2997.648085	46.500000
2998.887711	41.900000
3000.130187	56.300000
3001.369424	35.500000
3002.609988	40.100000
3003.848835	56.300000
3005.087488	43.100000
3006.324425	64.100000
3007.562689	56.200000
3008.799239	41.700000
3010.035594	54.200000
3011.271756	49.800000
3012.506205	41.700000
3013.740460	42.200000
3014.974522	37.100000
3016.206872	41.700000
3017.437510	28.100000
3018.670994	37.800000
3019.902766	43.100000
3021.132828	43.200000
3022.362698	48.100000
3023.590858	35.100000
3024.820344	52.800000
3026.048122	43.000000
3027.275708	41.600000
3028.504620	37.800000
3029.728790	42.400000
3030.955803	46.200000
3032.179592	63.600000
3033.404708	48.200000
3034.628117	45.500000
3035.851337	38.200000
3037.072851	51.700000
3038.297206	45.400000
3039.516826	42.200000
3040.737771	38.200000
3041.958528	37.300000
3043.177581	56.400000
3044.397960	65.100000
3045.615122	45.300000
3046.833609	45.000000
3048.050394	32.900000
3049.266992	58.500000
3050.483401	53.400000
3051.696598	48.800000
3052.912632	50.500000
3054.125454	43.300000
3055.341113	27.600000
3056.552049	27.800000
3057.764310	32.200000
3058.976385	36.400000
3060.188273	53.000000
3061.398463	34.500000
3062.608467	37.600000
3063.818286	44.500000
3065.026408	34.500000
3066.234344	41.400000
3067.440586	24.900000
3068.648151	43.300000
3069.854023	40.200000
3071.059709	37.100000
3072.265210	39.600000
3073.469018	37.800000
3074.674150	37.400000
3075.877590	32.000000
3077.079337	47.800000
3078.280901	38.100000
3079.482281	48.000000
3080.683477	36.100000
3081.882983	48.400000
3083.082305	37.500000
3084.282951	43.100000
3085.481907	33.800000
3086.677669	31.600000
3087.876260	24.500000
3089.071657	38.400000
3090.268377	29.500000
3091.461905	37.200000
3092.658261	51.400000
3093.852931	41.400000
3095.044410	34.800000
3096.240220	37.000000
3097.431337	21.800000
3098.623776	35.700000
3099.813028	56.400000
3101.005106	26.700000
3102.195499	32.800000
3103.382707	35.400000
3104.571238	24.700000
3105.761091	30.400000
3106.947759	47.900000
3108.134248	47.300000
3109.320557	30.300000
3110.508188	55.200000
3111.692638	46.400000
3112.875407	51.900000
3114.061000	24.400000
3115.244912	30.800000
3116.427146	37.500000
3117.609201	47.900000
3118.791079	55.800000
3119.972778	32.900000
3121.152799	43.600000
3122.331144	45.000000
3123.512310	31.600000
3124.690300	33.500000
3125.868113	29.200000
3127.045749	27.500000
3128.221710	38.500000
3129.397494	26.200000
3130.574600	48.600000
3131.750031	31.400000
3132.923789	28.100000
3134.095875	27.800000
3135.269281	23.900000
3136.442512	18.700000
3137.614070	40.700000
3138.786950	56.800000
3139.956662	44.000000
3141.127695	41.000000
3142.297057	36.000000
3143.464750	33.700000
3144.635258	35.400000
3145.801107	32.200000
3146.971266	28.900000
3148.136767	29.600000
3149.302095	34.700000
3150.467249	31.100000
3151.632229	32.400000
3152.798530	39.300000
3153.960177	46.800000
3155.123145	39.000000
3156.285939	36.500000
3157.448561	31.500000
3158.609518	41.500000
3159.770302	48.400000
3160.930914	29.100000
3162.089863	36.600000
3163.248639	36.300000
3164.407244	21.100000
3165.565677	44.900000
3166.723938	30.500000
3167.880537	39.200000
3169.035475	28.700000
3170.191732	34.600000
3171.346329	43.200000
3172.500754	51.400000
3173.653520	33.000000
3174.806116	37.900000
3175.958541	35.400000
3177.110797	25.600000
3178.262883	34.000000
3179.411822	37.700000
3180.563568	36.400000
3181.713656	33.400000
3182.862088	39.300000
3184.010351	39.100000
3185.158444	28.300000
3186.306369	22.000000
3187.452639	27.100000
3188.598740	37.100000
3189.743186	26.200000
3190.887465	38.100000
3192.031576	36.800000
3193.177005	44.900000
3194.319294	33.200000
3195.461417	28.700000
3196.603372	34.200000
3197.745161	21.500000
3198.886782	34.800000
3200.025267	39.500000
3201.165070	56.200000
3202.306191	29.600000
3203.444177	42.900000
3204.580514	29.300000
3205.716685	38.000000
3206.854174	46.800000
3207.990013	33.000000
3209.127170	41.300000
3210.259714	51.300000
3211.396540	35.100000
3212.528754	34.200000
3213.662286	39.400000
3214.795652	36.800000
3215.925891	50.800000
3217.058928	34.900000
3218.188839	26.900000
3219.320067	40.500000
3220.448169	45.100000
3221.579068	35.700000
3222.708324	39.300000
3223.835935	40.300000
3224.960425	47.700000
3226.089190	39.100000
3227.214833	49.000000
3228.340313	25.400000
3229.464152	45.700000
3230.590785	49.200000
3231.712821	43.300000
3232.836173	51.500000
3233.959363	50.900000
3235.082391	46.700000
3236.203779	47.700000
3237.325006	53.300000
3238.444594	68.300000
3239.564021	71.900000
3240.681810	71.000000
3241.802392	49.900000
3242.919859	56.300000
3244.037167	63.300000
3245.154313	68.400000
3246.269824	44.600000
3247.386650	67.000000
3248.500365	56.200000
3249.616870	44.400000
3250.731741	38.000000
3251.843503	44.900000
3252.955106	34.100000
3254.068023	43.200000
3255.180782	44.600000
3256.290434	29.300000
3257.401400	32.000000
3258.512208	38.500000
3259.621385	24.200000
3260.728930	46.400000
3261.837790	27.600000
3262.946491	44.200000
3264.052090	45.600000
3265.159003	41.300000
3266.264288	33.400000
3267.370886	26.800000
3268.474384	39.100000
3269.579196	27.700000
3270.683851	37.500000
3271.785407	46.700000
3272.886808	47.000000
3273.989522	43.000000
3275.092079	19.800000
3276.191540	44.300000
3277.293785	15.900000
3278.392934	29.600000
3279.490459	18.900000
3280.587828	46.200000
3281.687980	43.000000
3282.785038	47.100000
3283.881941	39.900000
3284.978689	29.400000
3286.070879	30.700000
3287.167317	26.800000
3288.262134	49.200000
3289.356795	31.500000
3290.449835	18.600000
3291.542721	30.800000
3292.633986	20.400000
3293.726564	31.700000
3294.817521	25.500000
3295.906859	22.800000
3296.996044	20.300000
3298.086542	19.500000
3299.173955	34.500000
3300.261216	30.900000
3301.349789	25.100000
3302.438209	35.400000
3303.522082	31.000000
3304.610197	26.300000
3305.695231	21.800000
3306.778648	22.000000
3307.863378	32.300000
3308.946493	22.400000
3310.030919	38.400000
3311.112267	32.100000
3312.194927	31.200000
3313.275973	35.200000
3314.356868	42.800000
3315.436150	29.000000
3316.515281	19.100000
3317.595723	24.500000
3318.673092	30.900000
3319.751771	13.600000
3320.828840	25.000000
3321.905758	31.600000
3322.981065	39.700000
3324.056223	47.400000
3325.132692	18.200000
3326.206091	24.900000
3327.279341	37.300000
3328.353902	35.200000
3329.426853	0.800000
3330.498197	29.800000
3331.570851	37.200000
3332.640438	31.600000
3333.711336	37.200000
3334.780627	29.800000
3335.851229	35.200000
3336.920224	17.200000
3337.987613	40.900000
3339.053397	23.600000
3340.123407	19.700000
3341.190354	21.900000
3342.254239	14.500000
3343.320892	20.100000
3344.385940	22.700000
3345.449385	22.900000
3346.512684	32.700000
3347.575836	34.800000
3348.638842	39.200000
3349.701702	26.800000
3350.762960	27.500000
3351.821161	25.000000
3352.883583	32.100000
3353.942948	29.500000
3355.002168	27.800000
3356.062698	26.600000
3357.118718	12.200000
3358.177503	17.400000
3359.231780	30.800000
3360.288820	41.200000
3361.344263	29.100000
3362.401014	34.600000
3363.456168	32.500000
3364.509724	37.200000
3365.561683	36.100000
3366.616404	9.000000
3367.668076	22.400000
3368.719605	33.800000
3369.772443	41.400000
3370.822233	35.100000
3371.873331	22.300000
3372.921384	29.500000
3373.972197	40.900000
3375.019964	32.200000
3376.067589	24.300000
3377.115071	38.400000
3378.160961	33.800000
3379.208159	31.700000
3380.252315	27.300000
3381.299229	30.400000
3382.344551	42.400000
3383.386833	26.400000
3384.428973	42.900000
3385.472421	20.600000
3386.515729	17.700000
3387.557446	16.900000
3388.599022	34.900000
3389.640458	31.500000
3390.680304	30.800000
3391.718563	26.500000
3392.758129	20.600000
3393.797554	40.300000
3394.835392	28.100000
3395.871643	30.300000
3396.907755	15.600000
3397.945174	36.500000
3398.979560	19.400000
3400.015253	34.100000
3401.050807	28.400000
3402.083330	10.200000
3403.118606	27.700000
3404.150851	27.800000
3405.182958	15.700000
3406.213481	28.300000
3407.245312	31.700000
3408.277003	38.800000
3409.305668	31.500000
3410.334194	19.200000
3411.364028	20.100000
3412.393723	35.600000
3413.420393	9.500000
3414.448370	26.400000
3415.473322	21.500000
3416.501024	28.700000
3417.525703	14.400000
3418.551688	23.500000
3419.576093	6.900000
3420.600362	11.800000
3421.623052	21.900000
3422.645606	19.500000
3423.669466	23.300000
3424.690306	21.400000
3425.711011	17.600000
3426.733021	22.800000
3427.752013	24.500000
3428.770870	24.800000
3429.791032	32.100000
3430.808178	16.700000
