-118.448435	11.500000
-115.778835	6.800000
-113.112170	4.200000
-110.446257	2.500000
-107.783276	22.000000
-105.118866	-3.300000
-102.457386	5.700000
-99.794476	5.400000
-97.136674	-3.400000
-94.477441	14.800000
-91.818958	5.200000
-89.163398	-7.900000
-86.506410	18.600000
-83.854519	1.700000
-81.201199	-0.600000
-78.550799	15.300000
-75.898969	17.600000
-73.252230	-11.200000
-70.604061	3.000000
-67.956636	4.700000
-65.312124	12.500000
-62.666184	-6.900000
-60.025325	8.000000
-57.383037	2.400000
-54.743657	18.100000
-52.102849	-1.800000
-49.462781	21.600000
-46.827785	16.100000
-44.191360	11.000000
-41.557839	-2.800000
-38.922889	20.900000
-36.293004	17.900000
-33.659527	2.400000
-31.031112	11.500000
-28.403430	25.400000
-25.774321	14.100000
-23.150268	21.500000
-20.522626	16.900000
-17.900037	47.500000
-15.278180	66.600000
-12.657053	90.100000
-10.036656	254.500000
-7.419147	862.100000
-4.800210	2858.700000
-2.184159	7151.700000
0.431164	15243.900000
3.045760	7710.200000
5.657473	984.200000
8.270615	115.000000
10.878723	65.600000
13.490413	46.800000
16.097072	29.000000
18.705159	36.600000
21.312522	28.900000
23.914860	-0.400000
26.520776	15.600000
29.121670	13.500000
31.723992	18.100000
34.321297	-5.600000
36.922177	3.300000
39.518043	10.400000
42.115336	-2.700000
44.711910	5.000000
47.303475	5.200000
49.896468	12.300000
52.486600	10.600000
55.078160	19.800000
57.666860	-4.200000
60.256987	19.500000
62.842116	0.500000
65.428671	-8.100000
68.014513	8.600000
70.597501	7.800000
73.181915	13.000000
75.759201	-4.600000
78.340053	-16.500000
80.918056	-4.800000
83.495349	-3.800000
86.074068	13.000000
88.647806	15.700000
91.222970	9.400000
93.795291	4.000000
96.366904	12.700000
98.935677	8.900000
101.505877	7.100000
104.073239	9.200000
106.642026	12.800000
109.207977	19.000000
111.771093	14.000000
114.337765	-2.700000
116.895216	16.100000
119.458352	1.900000
122.016529	29.700000
124.578259	52.500000
127.135034	70.500000
129.693234	91.100000
132.246482	155.800000
134.799031	213.900000
137.355131	322.000000
139.906284	419.200000
142.456738	511.900000
145.006496	600.300000
147.553434	664.600000
150.099676	682.600000
152.647344	745.200000
155.194317	720.100000
157.736353	723.900000
160.277696	714.100000
162.818346	731.700000
165.360422	717.300000
167.899687	718.600000
170.436142	675.300000
172.971907	711.100000
175.509097	693.100000
178.045595	684.200000
180.579288	702.000000
183.110178	698.000000
185.640379	693.200000
188.172005	687.700000
190.700830	678.600000
193.226856	699.300000
195.752197	662.400000
198.278962	685.800000
200.802930	678.900000
203.326214	682.200000
205.848813	686.500000
208.368619	680.700000
210.887742	652.500000
213.406182	673.700000
215.926046	676.500000
218.438909	699.600000
220.955303	689.000000
223.471015	695.700000
225.981838	724.200000
228.494085	751.000000
231.003549	745.700000
233.512335	740.300000
236.020443	747.100000
238.529974	750.300000
241.034625	743.200000
243.538601	758.300000
246.044000	733.800000
248.544524	744.300000
251.048571	732.900000
253.545648	748.800000
256.046247	729.800000
258.544075	734.200000
261.041230	712.300000
263.537712	729.200000
266.029331	742.700000
268.524470	732.000000
271.016843	728.800000
273.508545	741.900000
275.997483	739.100000
278.487846	757.600000
280.975447	732.600000
283.460288	726.000000
285.948643	724.800000
288.430059	762.100000
290.914989	773.700000
293.395074	809.000000
295.878671	792.700000
298.357425	827.400000
300.837603	842.100000
303.315028	881.700000
305.791790	860.400000
308.267889	809.800000
310.741239	816.300000
313.213927	791.100000
315.685954	788.300000
318.157320	815.200000
320.625942	845.700000
323.093904	819.100000
325.563289	788.200000
328.027850	766.600000
330.495916	739.700000
332.959162	748.800000
335.421750	702.900000
337.883682	717.900000
340.344957	720.200000
342.803498	693.500000
345.263461	688.300000
347.720691	679.600000
350.177267	654.400000
352.633189	657.300000
355.086382	650.700000
357.540996	666.800000
359.990809	611.200000
362.444119	645.500000
364.892629	637.600000
367.340489	616.300000
369.789770	606.100000
372.234258	582.100000
374.680168	609.000000
377.125429	576.000000
379.567970	564.400000
382.009864	583.100000
384.451111	569.400000
386.889642	557.800000
389.329595	563.700000
391.766834	539.400000
394.201361	570.800000
396.639376	567.800000
399.072614	541.200000
401.507274	541.000000
403.937160	534.100000
406.370532	551.200000
408.799134	551.700000
411.227095	556.800000
413.656476	561.100000
416.081092	559.600000
418.507130	553.600000
420.932527	519.500000
423.357284	533.200000
425.777283	524.900000
428.198703	517.100000
430.617426	513.500000
433.037570	526.500000
435.455019	512.100000
437.873888	502.600000
440.290064	466.600000
442.701493	458.000000
445.116398	457.400000
447.528613	454.600000
449.940194	441.300000
452.351141	417.400000
454.759402	443.400000
457.167030	395.500000
459.574027	405.400000
461.980391	414.100000
464.384073	430.500000
466.787125	407.100000
469.189547	404.700000
471.591340	417.800000
473.990454	414.800000
476.390988	423.200000
478.790893	428.100000
481.186075	425.800000
483.584724	445.700000
485.978653	470.600000
488.371956	498.400000
490.764633	515.700000
493.156685	550.900000
495.550156	586.500000
497.938914	680.200000
500.325006	797.400000
502.712518	981.300000
505.099406	1280.600000
507.483631	1792.400000
509.869275	2498.200000
512.252256	3525.600000
514.632577	4649.500000
517.014317	5619.600000
519.393398	5703.300000
521.773898	5174.400000
524.151740	4336.900000
526.526927	3543.700000
528.901496	2946.700000
531.277484	2481.300000
533.650818	2185.600000
536.025570	1926.700000
538.395637	1724.700000
540.765088	1583.600000
543.135957	1449.000000
545.502146	1348.100000
547.869753	1231.300000
550.234714	1162.700000
552.599062	1092.100000
554.962798	1039.000000
557.327951	984.400000
559.688431	956.400000
562.050330	924.900000
564.409589	876.200000
566.766209	844.100000
569.126274	820.200000
571.479649	806.500000
573.836468	758.700000
576.190651	746.100000
578.544227	738.600000
580.897194	703.100000
583.247530	696.800000
585.599282	685.500000
587.944358	673.800000
590.294898	628.000000
592.638765	641.800000
594.988092	619.100000
597.332772	618.000000
599.674826	598.300000
602.018298	617.900000
604.359147	586.400000
606.699394	612.300000
609.037020	620.700000
611.378081	658.900000
613.714504	682.300000
616.052345	712.600000
618.387567	711.500000
620.720174	676.100000
623.054197	664.100000
625.385607	657.000000
627.716418	596.300000
630.046631	595.300000
632.376246	567.200000
634.701239	563.900000
637.031673	555.900000
639.357485	568.700000
641.680691	585.000000
644.005312	558.300000
646.327329	526.700000
648.648751	542.200000
650.967570	546.100000
653.287805	517.200000
655.607447	520.200000
657.924488	519.800000
660.240937	515.000000
662.554788	506.700000
664.870055	511.000000
667.182725	533.700000
669.496810	490.600000
671.806295	532.000000
674.117196	513.900000
676.425504	512.900000
678.733224	513.000000
681.042359	511.000000
683.346901	490.200000
685.650856	500.800000
687.954226	493.400000
690.259010	483.700000
692.559208	459.100000
694.860820	463.000000
697.161848	430.800000
699.458293	447.000000
701.756154	433.200000
704.053431	432.900000
706.350125	421.000000
708.642243	430.700000
710.937772	416.400000
713.228728	442.700000
715.521098	415.600000
717.810892	434.700000
720.100107	411.700000
722.388741	424.200000
724.674804	440.000000
726.962280	437.500000
729.247186	414.200000
731.531513	432.500000
733.813272	413.500000
736.096445	408.200000
738.379041	407.000000
740.657082	405.700000
742.936536	384.700000
745.215415	417.800000
747.493718	398.100000
749.767472	414.900000
752.042640	404.800000
754.317234	412.900000
756.589268	374.400000
758.862716	403.300000
761.133606	391.700000
763.401940	378.100000
765.671687	390.100000
767.938880	406.700000
770.205502	393.200000
772.471555	379.200000
774.735055	390.500000
776.999969	388.400000
779.264313	404.200000
781.524128	401.700000
783.785356	389.400000
786.046015	393.400000
788.304129	417.100000
790.559698	405.200000
792.818658	407.900000
795.071119	393.600000
797.328947	411.600000
799.582255	422.800000
801.833024	394.000000
804.085205	403.400000
806.334848	399.700000
808.585902	377.700000
810.832445	394.400000
813.080400	392.300000
815.325821	386.600000
817.572653	412.600000
819.818924	379.100000
822.060691	422.700000
824.305840	378.600000
826.544517	375.800000
828.786577	364.400000
831.024138	375.800000
833.263110	363.600000
835.499556	361.600000
837.737413	385.800000
839.972745	386.600000
842.205554	376.100000
844.439774	365.100000
846.671472	358.400000
848.902615	376.700000
851.133203	377.200000
853.363236	371.800000
855.592716	359.900000
857.817714	345.900000
860.046087	375.400000
862.269981	359.400000
864.495285	364.100000
866.716114	371.800000
868.940315	343.600000
871.160043	364.700000
873.381182	351.000000
875.601770	377.500000
877.819848	366.700000
880.039337	373.000000
882.254359	346.000000
884.468833	377.000000
886.682760	368.600000
888.896139	357.200000
891.108971	362.900000
893.321257	357.900000
895.531040	358.200000
897.740278	370.200000
899.948971	367.900000
902.155165	354.400000
904.362768	346.800000
906.567874	368.500000
908.772436	375.800000
910.974502	366.100000
913.177978	372.800000
915.378960	398.800000
917.579401	392.400000
919.781249	404.200000
921.976707	439.400000
924.175524	467.500000
926.369902	490.200000
928.567638	521.400000
930.760938	585.300000
932.955647	646.900000
935.147870	733.600000
937.339555	766.800000
939.530702	817.900000
941.719366	843.500000
943.907493	826.000000
946.093140	828.100000
948.282139	838.000000
950.466715	813.800000
952.650756	821.600000
954.838147	835.400000
957.017234	811.000000
959.199672	824.700000
961.381576	843.900000
963.561006	860.800000
965.737963	866.500000
967.916327	852.800000
970.096099	857.600000
972.269522	838.900000
974.446291	855.200000
976.618653	854.400000
978.792423	841.000000
980.961789	833.900000
983.134500	786.600000
985.304744	762.900000
987.474460	700.200000
989.643647	684.100000
991.808437	572.800000
993.976568	571.000000
996.140305	521.300000
998.305448	488.200000
1000.468133	478.500000
1002.630291	481.200000
1004.789993	469.000000
1006.949171	458.500000
1009.109755	424.100000
1011.267884	436.600000
1013.425489	408.800000
1015.582571	396.300000
1017.739130	388.800000
1019.891309	393.400000
1022.044894	385.000000
1024.197958	391.800000
1026.348574	379.700000
1028.500595	375.500000
1030.648243	352.800000
1032.799223	355.900000
1034.945832	348.500000
1037.091923	348.700000
1039.237494	362.300000
1041.384471	353.600000
1043.525159	354.600000
1045.669177	316.200000
1047.810754	339.900000
1049.951815	337.100000
1052.094280	336.400000
1054.230466	353.600000
1056.369978	335.700000
1058.505134	341.600000
1060.643615	326.300000
1062.777742	337.600000
1064.911356	324.200000
1067.046375	343.000000
1069.177044	326.500000
1071.309118	326.200000
1073.438763	324.900000
1075.567896	329.500000
1077.696517	336.800000
1079.824627	320.000000
1081.950311	317.000000
1084.075485	336.100000
1086.202063	304.400000
1088.324304	321.100000
1090.447948	301.700000
1092.567259	316.700000
1094.691798	312.500000
1096.810092	313.500000
1098.929791	306.400000
1101.047071	304.500000
1103.163845	298.000000
1105.280112	293.400000
1107.393964	298.700000
1109.509219	284.500000
1111.620152	278.800000
1113.734396	287.500000
1115.844320	265.700000
1117.955648	273.000000
1120.066471	266.500000
1122.172979	296.000000
1124.282795	293.600000
1126.388297	288.500000
1128.495202	281.300000
1130.595892	264.700000
1132.701794	284.600000
1134.803387	297.500000
1136.906383	260.400000
1139.008878	276.900000
1141.105166	281.200000
1143.206662	282.200000
1145.303855	277.500000
1147.400549	272.600000
1149.496745	270.100000
1151.592444	293.000000
1153.687645	250.600000
1155.780449	270.700000
1157.874655	272.600000
1159.962670	259.000000
1162.055883	276.600000
1164.142908	286.400000
1166.233232	274.400000
1168.319269	278.900000
1170.408603	267.200000
1172.491756	275.600000
1174.576311	261.100000
1176.662268	286.900000
1178.743943	263.300000
1180.827020	293.400000
1182.907711	278.700000
1184.987910	291.900000
1187.067618	276.700000
1189.146835	284.000000
1191.223670	281.200000
1193.298124	277.000000
1195.375870	265.300000
1197.449345	283.300000
1199.524221	272.400000
1201.594830	264.200000
1203.666841	292.000000
1205.736475	275.000000
1207.807510	268.500000
1209.878057	271.200000
1211.944343	245.200000
1214.012030	256.100000
1216.077345	252.000000
1218.144060	241.400000
1220.206519	264.400000
1222.272263	267.300000
1224.333754	255.900000
1226.396644	259.500000
1228.457167	248.800000
1230.517206	223.000000
1232.576763	250.100000
1234.633954	274.100000
1236.690664	259.700000
1238.745011	260.100000
1240.802638	268.900000
1242.857903	275.900000
1244.908927	285.400000
1246.961351	263.700000
1249.013295	273.900000
1251.062881	273.200000
1253.111988	280.700000
1255.160617	255.600000
1257.208767	254.200000
1259.256439	282.200000
1261.299880	283.600000
1263.346596	271.400000
1265.390959	262.300000
1267.434846	295.100000
1269.476382	278.100000
1271.515567	257.500000
1273.558026	277.300000
1275.596262	264.300000
1277.635897	272.600000
1279.675057	278.900000
1281.709998	256.500000
1283.746339	284.200000
1285.780334	269.000000
1287.815728	276.800000
1289.846908	258.500000
1291.879487	265.800000
1293.911593	276.800000
1295.941359	275.800000
1297.972523	280.200000
1299.999479	259.900000
1302.027833	262.600000
1304.051983	244.300000
1306.079397	258.800000
1308.102609	265.800000
1310.127219	245.700000
1312.149495	270.500000
1314.173168	236.100000
1316.194508	267.800000
1318.215380	252.800000
1320.235786	256.000000
1322.251997	275.700000
1324.269606	284.400000
1326.284888	255.200000
1328.303427	274.600000
1330.317778	276.900000
1332.329803	270.700000
1334.345085	275.100000
1336.356182	275.200000
1338.368676	292.600000
1340.376987	297.300000
1342.388554	289.000000
1344.394081	305.500000
1346.402864	306.400000
1348.407469	275.100000
1350.415328	280.100000
1352.422725	291.800000
1354.424091	285.200000
1356.426854	279.300000
1358.429156	264.900000
1360.430999	280.700000
1362.432382	272.500000
1364.431452	275.500000
1366.430063	273.900000
1368.428216	280.600000
1370.425911	270.600000
1372.419442	275.900000
1374.414370	245.300000
1376.408841	265.700000
1378.402855	270.100000
1380.394561	274.500000
1382.385813	253.500000
1384.374759	269.400000
1386.365100	247.600000
1388.354986	240.500000
1390.342569	248.900000
1392.329697	239.500000
1394.314525	228.800000
1396.300746	225.200000
1398.284668	239.500000
1400.268137	253.400000
1402.251154	252.500000
1404.231872	239.300000
1406.213986	245.200000
1408.193802	237.200000
1410.173168	218.400000
1412.148394	228.900000
1414.126860	240.900000
1416.103031	238.400000
1418.078754	246.900000
1420.054027	260.700000
1422.027009	230.600000
1423.999543	248.000000
1425.971630	222.600000
1427.943268	230.700000
1429.910778	234.900000
1431.883363	249.800000
1433.848141	238.900000
1435.817991	219.500000
1437.783718	223.100000
1439.750837	228.700000
1441.715673	254.400000
1443.676390	229.600000
1445.642174	231.100000
1447.602003	263.000000
1449.563225	236.600000
1451.525840	224.500000
1453.484340	250.500000
1455.442398	229.300000
1457.400013	248.900000
1459.357187	240.200000
1461.312085	233.600000
1463.268375	262.600000
1465.222391	244.000000
1467.175967	263.300000
1469.127270	233.300000
1471.079965	237.700000
1473.030389	251.900000
1474.980373	230.600000
1476.929919	238.000000
1478.877196	245.200000
1480.822206	234.300000
1482.768607	239.600000
1484.714572	224.900000
1486.660098	224.100000
1488.603360	229.000000
1490.546185	239.200000
1492.486747	240.600000
1494.428700	237.800000
1496.368392	234.100000
1498.307648	240.500000
1500.246469	225.800000
1502.183031	212.300000
1504.120984	232.700000
1506.056679	253.100000
1507.991939	219.600000
1509.924944	253.100000
1511.857516	233.300000
1513.789656	238.700000
1515.721364	254.000000
1517.650818	237.700000
1519.581663	239.700000
1521.512077	238.700000
1523.438417	220.900000
1525.366149	257.400000
1527.291630	241.500000
1529.216682	246.400000
1531.141305	229.200000
1533.065499	261.300000
1534.987446	235.900000
1536.910782	268.600000
1538.831873	237.900000
1540.750719	266.700000
1542.670955	272.800000
1544.588947	281.800000
1546.506513	274.600000
1548.421837	274.100000
1550.338551	269.500000
1552.251210	298.400000
1554.167073	316.400000
1556.080696	333.100000
1557.992082	342.700000
1559.904856	345.200000
1561.813581	355.000000
1563.723696	398.700000
1565.633387	425.000000
1567.542654	478.100000
1569.449688	537.200000
1571.354489	628.900000
1573.260679	728.200000
1575.164637	847.600000
1577.068175	951.500000
1578.971291	1072.200000
1580.872179	1107.200000
1582.774454	1082.600000
1584.674502	994.400000
1586.575937	881.100000
1588.473339	724.100000
1590.370322	630.700000
1592.266887	529.300000
1594.164840	477.000000
1596.056958	411.100000
1597.952269	383.000000
1599.847163	353.900000
1601.739835	334.600000
1603.632091	317.700000
1605.522126	314.200000
1607.411747	291.000000
1609.300951	285.100000
1611.189741	283.100000
1613.076314	299.300000
1614.964273	283.100000
1616.848216	285.200000
1618.733547	279.000000
1620.618463	284.800000
1622.501166	279.000000
1624.385256	265.700000
1626.265335	242.200000
1628.146800	264.700000
1630.026055	255.900000
1631.906696	229.700000
1633.781533	227.800000
1635.661352	226.500000
1637.537165	239.400000
1639.412568	233.100000
1641.289358	212.700000
1643.160350	222.700000
1645.034524	216.100000
1646.904700	209.100000
1648.778056	226.000000
1650.649209	214.000000
1652.518160	234.900000
1654.388497	231.700000
1656.254840	211.600000
1658.122569	228.700000
1659.988100	190.900000
1661.855015	204.100000
1663.717942	211.200000
1665.582254	208.100000
1667.444370	218.000000
1669.306082	195.300000
1671.169178	187.200000
1673.030080	193.900000
1674.888788	195.700000
1676.747093	210.600000
1678.606783	215.100000
1680.460706	206.700000
1682.317801	194.800000
1684.174494	208.300000
1686.027211	200.400000
1687.883098	204.400000
1689.735012	179.100000
1691.586525	201.500000
1693.437637	195.000000
1695.288349	176.100000
1697.138660	186.800000
1698.986787	186.600000
1700.836297	184.200000
1702.680059	193.300000
1704.528770	175.900000
1706.371736	176.800000
1708.217867	200.100000
1710.060037	187.900000
1711.905371	182.300000
1713.744965	184.100000
1715.585943	170.400000
1717.428304	190.200000
1719.266709	188.000000
1721.106497	193.400000
1722.944110	180.600000
1724.781327	173.400000
1726.616371	183.700000
1728.452798	181.800000
1730.287053	163.200000
1732.120913	199.500000
1733.954380	172.800000
1735.783900	176.600000
1737.616579	169.500000
1739.445314	188.400000
1741.277207	176.700000
1743.105157	182.900000
1744.932715	148.100000
1746.759881	200.000000
1748.586656	192.600000
1750.413040	185.800000
1752.235487	181.300000
1754.061088	168.000000
1755.882755	186.500000
1757.705804	175.300000
1759.526692	176.100000
1761.347190	192.400000
1763.169070	190.000000
1764.985250	171.000000
1766.804582	180.100000
1768.619987	175.200000
1770.438542	172.000000
1772.253172	172.600000
1774.067416	173.400000
1775.881272	185.600000
1777.694742	158.400000
1779.506059	205.000000
1781.318757	157.500000
1783.131068	191.600000
1784.939462	178.300000
1786.749237	182.100000
1788.555096	182.100000
1790.364101	177.700000
1792.169193	172.100000
1793.975666	169.000000
1795.781755	171.500000
1797.583934	159.800000
1799.389256	173.900000
1801.190670	167.100000
1802.993464	177.700000
1804.792352	178.500000
1806.592621	170.500000
1808.392508	168.200000
1810.190254	162.600000
1811.987618	166.500000
1813.784603	162.000000
1815.581207	169.600000
1817.375672	173.400000
1819.171516	170.600000
1820.961706	196.700000
1822.756792	174.200000
1824.546225	188.700000
1826.338795	160.600000
1828.129230	168.300000
1829.917531	178.600000
1831.708967	174.800000
1833.494757	170.500000
1835.281927	170.800000
1837.066965	178.700000
1838.855137	170.300000
1840.639423	180.200000
1842.421580	188.300000
1844.205115	189.800000
1845.986522	182.400000
1847.769308	206.100000
1849.548214	178.100000
1851.328498	180.600000
1853.106656	182.800000
1854.886193	177.600000
1856.663605	179.300000
1858.438893	192.800000
1860.215560	195.700000
1861.990103	177.000000
1863.766025	186.100000
1865.536326	196.500000
1867.309755	174.900000
1869.081064	195.700000
1870.852003	173.200000
1872.624318	188.200000
1874.391020	198.000000
1876.160848	198.900000
1877.926812	188.400000
1879.695900	195.800000
1881.461126	162.600000
1883.225983	183.500000
1884.992218	159.200000
1886.754594	189.400000
1888.516603	161.900000
1890.278244	184.400000
1892.039519	182.100000
1893.800426	188.500000
1895.560967	163.900000
1897.319398	184.600000
1899.077464	184.700000
1900.833421	175.900000
1902.590756	173.100000
1904.347724	150.800000
1906.102587	159.900000
1907.855344	169.400000
1909.607738	172.700000
1911.361507	160.500000
1913.113173	170.100000
1914.862737	174.300000
1916.613677	149.400000
1918.364253	179.800000
1920.110990	158.700000
1921.859104	177.500000
1923.605118	158.800000
1925.352508	159.400000
1927.097799	154.600000
1928.840993	157.600000
1930.585563	151.700000
1932.328036	167.000000
1934.070149	161.300000
1935.811902	177.100000
1937.553296	170.600000
1939.292596	168.400000
1941.031536	170.900000
1942.770119	178.700000
1944.506609	158.600000
1946.242742	169.550000
1947.980249	180.500000
1949.713934	161.200000
1951.448994	171.300000
1953.181966	171.800000
1954.914581	156.100000
1956.646839	162.700000
1958.378741	166.600000
1960.108557	174.900000
1961.836289	162.400000
1963.565394	167.700000
1965.294145	164.500000
1967.020812	179.800000
1968.747125	158.100000
1970.474811	180.600000
1972.196961	160.900000
1973.922212	165.400000
1975.643657	169.200000
1977.368201	161.900000
1979.090666	157.600000
1980.809327	159.900000
1982.531087	160.400000
1984.249045	165.000000
1985.968376	164.800000
1987.683908	156.600000
1989.404261	144.600000
1991.120814	176.700000
1992.833571	164.300000
1994.549425	177.000000
1996.263205	157.600000
1997.976636	169.000000
1999.687996	157.100000
2001.400729	167.900000
2003.109670	171.000000
2004.821705	179.000000
2006.528230	159.400000
2008.237848	164.100000
2009.945398	181.700000
2011.652601	171.300000
2013.357738	154.000000
2015.062528	156.800000
2016.768690	173.800000
2018.471070	162.300000
2020.174822	162.300000
2021.876510	160.200000
2023.577854	165.300000
2025.278852	177.000000
2026.977790	168.400000
2028.678098	195.300000
2030.374632	156.300000
2032.072537	174.800000
2033.768383	166.500000
2035.467315	157.700000
2037.160761	156.300000
2038.855579	171.900000
2040.550053	170.600000
2042.240759	170.700000
2043.934549	165.900000
2045.624572	164.900000
2047.315966	129.900000
2049.005307	159.900000
2050.696018	152.100000
2052.382966	155.100000
2054.069575	167.900000
2055.757554	150.900000
2057.441773	158.100000
2059.127362	145.200000
2060.812612	153.000000
2062.495814	155.300000
2064.180385	157.000000
2065.859494	168.800000
2067.543388	159.300000
2069.221822	147.800000
2070.903332	145.600000
2072.581092	157.400000
2074.258514	165.500000
2075.937306	160.200000
2077.614056	158.300000
2079.288764	162.200000
2080.964841	152.200000
2082.638878	156.500000
2084.312579	144.200000
2085.985945	158.400000
2087.657273	157.400000
2089.328266	153.400000
2090.998925	142.200000
2092.669249	153.200000
2094.339240	157.000000
2096.007195	159.500000
2097.674817	159.900000
2099.340404	156.800000
2101.007361	136.600000
2102.672283	150.800000
2104.336874	157.200000
2105.999433	146.200000
2107.663360	159.600000
2109.325257	156.500000
2110.986822	154.100000
2112.648056	157.000000
2114.307262	148.100000
2115.966137	157.100000
2117.624683	164.800000
2119.282899	154.400000
2120.937391	149.000000
2122.594948	157.600000
2124.252176	168.300000
2125.905682	146.000000
2127.560556	171.000000
2129.211712	150.800000
2130.865929	146.400000
2132.516430	153.900000
2134.168297	145.500000
2135.814756	138.600000
2137.465970	154.100000
2139.113470	150.300000
2140.762337	132.200000
2142.409186	154.000000
2144.055708	155.200000
2145.701905	153.300000
2147.344394	142.700000
2148.989941	149.000000
2150.631781	148.000000
2152.276678	145.200000
2153.917870	143.400000
2155.558738	140.900000
2157.199282	158.700000
2158.837814	151.600000
2160.477712	141.900000
2162.113910	136.400000
2163.751475	140.200000
2165.388716	162.700000
2167.023948	151.600000
2168.658859	171.700000
2170.293448	128.900000
2171.927715	154.000000
2173.558289	155.200000
2175.191915	150.000000
2176.821849	160.000000
2178.453148	148.700000
2180.082442	142.700000
2181.711417	166.100000
2183.340073	145.100000
2184.968409	148.000000
2186.594742	145.900000
2188.220757	151.100000
2189.844771	132.600000
2191.470149	146.900000
2193.093528	130.500000
2194.718270	156.600000
2196.339332	141.400000
2197.960077	152.100000
2199.582187	147.800000
2201.202299	148.200000
2202.820414	156.200000
2204.438214	153.900000
2206.055699	143.800000
2207.672868	146.600000
2209.289722	138.900000
2210.906261	151.700000
2212.520806	171.400000
2214.133359	164.900000
2215.747276	153.100000
2217.359202	145.700000
2218.972491	148.800000
2220.583790	148.300000
2222.193099	150.800000
2223.803772	135.000000
2225.412456	137.000000
2227.020828	163.600000
2228.627212	131.200000
2230.234960	152.800000
2231.840721	139.100000
2233.446171	147.600000
2235.049636	134.200000
2236.654464	140.600000
2238.257309	158.100000
2239.858170	150.700000
2241.460393	149.400000
2243.060635	139.600000
2244.662239	124.400000
2246.260191	139.500000
2247.859505	150.600000
2249.456839	142.400000
2251.053864	161.400000
2252.652252	140.100000
2254.246991	143.100000
2255.839753	160.800000
2257.433878	156.500000
2259.029364	135.400000
2260.621206	156.900000
2262.212741	151.000000
2263.805637	134.800000
2265.393224	142.800000
2266.985508	147.700000
2268.572484	145.600000
2270.162489	145.800000
2271.747189	136.500000
2273.336583	139.500000
2274.920674	155.900000
2276.506127	141.000000
2278.089610	145.700000
2279.676120	156.700000
2281.258996	147.700000
2282.841568	140.400000
2284.423837	149.600000
2286.002477	146.500000
2287.584140	145.500000
2289.162175	141.700000
2290.743233	136.000000
2292.320665	133.450000
2293.896132	130.900000
2295.474622	137.900000
2297.049488	129.300000
2298.624053	125.200000
2300.198318	140.500000
2301.772282	129.100000
2303.345946	132.800000
2304.919309	136.200000
2306.489054	138.800000
2308.058500	144.900000
2309.630965	141.100000
2311.198154	148.500000
2312.768362	144.400000
2314.334955	142.400000
2315.902908	145.100000
2317.468905	135.700000
2319.034605	150.100000
2320.600008	133.600000
2322.163456	146.300000
2323.728264	147.300000
2325.289464	155.500000
2326.853678	159.500000
2328.412631	156.000000
2329.974597	144.500000
2331.534613	160.500000
2333.094333	136.700000
2334.652104	130.400000
2336.209580	131.200000
2337.766762	148.800000
2339.321997	135.500000
2340.876937	146.900000
2342.431584	124.900000
2343.985937	136.300000
2345.539996	137.700000
2347.093761	141.500000
2348.645583	134.100000
2350.195461	162.600000
2351.748347	138.500000
2353.295991	151.900000
2354.846642	148.700000
2356.393702	139.200000
2357.942121	137.400000
2359.490247	158.300000
2361.034785	135.200000
2362.580681	144.100000
2364.124639	138.400000
2365.669954	143.600000
2367.211684	127.500000
2368.754771	147.100000
2370.295923	135.100000
2371.836785	126.500000
2373.377358	125.700000
2374.917641	145.300000
2376.457636	139.100000
2377.994053	140.600000
2379.533471	137.200000
2381.069312	144.600000
2382.606509	131.400000
2384.140131	143.900000
2385.676754	141.800000
2387.211445	148.200000
2388.744207	133.300000
2390.276682	138.700000
2391.807230	146.100000
2393.340775	144.800000
2394.869109	137.200000
2396.398799	146.700000
2397.928204	134.300000
2399.457323	146.800000
2400.986158	132.600000
2402.509787	137.100000
2404.038053	141.500000
2405.561115	148.600000
2407.088811	141.000000
2408.609668	136.800000
2410.135158	129.200000
2411.657087	158.100000
2413.180372	152.900000
2414.701736	139.900000
2416.221180	154.000000
2417.741979	166.300000
2419.260859	136.600000
2420.779457	163.600000
2422.296138	142.000000
2423.814173	158.900000
2425.331927	173.100000
2426.846130	184.300000
2428.360052	159.500000
2429.873694	178.400000
2431.388691	178.500000
2432.900139	171.800000
2434.412942	176.500000
2435.923832	201.000000
2437.434442	177.700000
2438.943141	179.200000
2440.454827	200.100000
2441.962968	209.900000
2443.470832	205.000000
2444.978418	219.500000
2446.482463	226.100000
2447.989494	203.900000
2449.494616	233.300000
2450.999461	226.000000
2452.502399	227.900000
2454.005060	247.200000
2455.507445	206.900000
2457.007925	222.900000
2458.509758	190.300000
2460.009687	215.100000
2461.509340	213.200000
2463.008717	211.900000
2464.506192	222.800000
2466.001765	210.100000
2467.500319	201.900000
2468.995343	195.900000
2470.491721	189.300000
2471.984571	189.900000
2473.478775	188.700000
2474.972705	182.000000
2476.463112	189.000000
2477.956495	181.000000
2479.447981	160.200000
2480.937570	194.700000
2482.426887	171.800000
2483.914309	172.900000
2485.404706	164.400000
2486.891584	158.100000
2488.379814	169.100000
2489.864528	161.800000
2491.348971	169.700000
2492.834766	164.000000
2494.318668	150.500000
2495.803922	176.200000
2497.284042	169.900000
2498.767134	168.300000
2500.248336	141.800000
2501.729269	174.700000
2503.208313	147.800000
2504.687088	154.000000
2506.165595	157.400000
2507.643834	161.100000
2509.121804	155.900000
2510.596270	142.700000
2512.073704	156.600000
2513.547635	164.700000
2515.022916	164.000000
2516.497931	160.300000
2517.969444	147.100000
2519.442307	176.900000
2520.913288	154.000000
2522.385619	150.000000
2523.852837	143.400000
2525.323020	147.500000
2526.791323	138.700000
2528.259361	145.100000
2529.727134	151.900000
2531.194642	144.600000
2532.661885	132.800000
2534.125636	151.000000
2535.590737	152.700000
2537.053961	137.600000
2538.518535	133.500000
2539.979619	158.700000
2541.442053	131.700000
2542.904224	149.100000
2544.362909	138.500000
2545.826166	158.000000
2547.284326	135.700000
2548.743835	152.500000
2550.198251	150.800000
2551.657236	163.100000
2553.114350	130.700000
2554.569593	139.700000
2556.024575	138.500000
2557.477687	153.700000
2558.932148	154.700000
2560.384740	147.300000
2561.837072	142.800000
2563.287536	145.700000
2564.740956	150.900000
2566.189294	155.500000
2567.640588	138.900000
2569.090015	147.800000
2570.535970	147.900000
2571.984881	173.800000
2573.430320	161.900000
2574.877108	162.400000
2576.322032	142.800000
2577.766699	165.300000
2579.212713	144.600000
2580.655260	143.800000
2582.099155	178.400000
2583.539585	146.000000
2584.981362	158.800000
2586.421280	165.300000
2587.862545	157.000000
2589.300349	180.200000
2590.741102	163.600000
2592.176792	147.600000
2593.615432	162.100000
2595.052215	141.800000
2596.487141	148.800000
2597.925016	162.500000
2599.357832	145.200000
2600.791996	154.700000
2602.224306	133.000000
2603.657962	173.100000
2605.089765	150.700000
2606.521315	161.100000
2607.952611	166.000000
2609.382055	152.400000
2610.811248	153.400000
2612.238589	149.600000
2613.667277	170.100000
2615.095712	182.800000
2616.520700	164.000000
2617.947035	165.100000
2619.371521	173.600000
2620.797353	174.200000
2622.219741	172.700000
2623.643475	188.800000
2625.065362	172.500000
2626.487000	223.200000
2627.906792	198.600000
2629.327930	201.600000
2630.748818	197.000000
2632.166268	230.300000
2633.586657	210.500000
2635.003609	214.900000
2636.420313	244.600000
2637.836768	225.500000
2639.252975	237.900000
2640.668933	279.100000
2642.083051	264.500000
2643.496922	282.400000
2644.908953	281.500000
2646.322329	309.000000
2647.732275	331.000000
2649.145156	351.600000
2650.554610	346.400000
2651.963817	382.200000
2653.371187	402.600000
2654.781493	443.400000
2656.189962	458.100000
2657.596596	496.300000
2659.002985	536.400000
2660.407540	597.900000
2661.813439	640.000000
2663.217505	685.900000
2664.621326	764.700000
2666.024904	864.700000
2667.426649	955.300000
2668.829738	1060.400000
2670.229409	1139.200000
2671.630424	1259.300000
2673.028023	1398.600000
2674.428552	1512.900000
2675.825666	1635.600000
2677.224123	1784.100000
2678.620752	1860.600000
2680.017139	1960.100000
2681.413285	1990.800000
2682.807604	2025.600000
2684.203266	2024.800000
2685.595518	1998.000000
2686.989114	1912.500000
2688.380885	1855.700000
2689.773998	1739.200000
2691.165288	1616.200000
2692.554755	1483.300000
2693.943982	1343.900000
2695.332970	1241.600000
2696.723300	1139.300000
2698.108645	1026.200000
2699.496914	948.500000
2700.883363	828.300000
2702.269573	765.400000
2703.655545	689.200000
2705.038117	632.300000
2706.422032	583.300000
2707.805709	530.500000
2709.189148	501.500000
2710.569191	454.100000
2711.950576	417.900000
2713.330145	422.800000
2714.711056	373.700000
2716.090151	366.200000
2717.467433	342.100000
2718.846056	294.900000
2720.222866	299.600000
2721.599440	293.700000
2722.975778	272.400000
2724.350304	262.300000
2725.726171	259.600000
2727.098651	273.800000
2728.474047	228.100000
2729.844483	232.300000
2731.216260	205.400000
2732.587802	225.800000
2733.957536	221.100000
2735.328611	194.800000
2736.697877	183.300000
2738.066911	195.500000
2739.434137	206.600000
2740.801131	189.800000
2742.167892	194.400000
2743.534420	172.900000
2744.899143	168.400000
2746.263635	173.500000
2747.627894	163.500000
2748.991921	171.600000
2750.355717	187.600000
2751.716139	156.000000
2753.079472	150.700000
2754.437862	164.100000
2755.799162	154.100000
2757.157091	146.600000
2758.517930	140.600000
2759.876968	162.100000
2761.232638	143.800000
2762.591216	161.500000
2763.946428	139.200000
2765.301410	130.800000
2766.654595	154.300000
2768.010687	142.400000
2769.363415	134.200000
2770.715914	155.100000
2772.068185	131.900000
2773.421795	130.100000
2774.772043	134.600000
2776.120498	113.300000
2777.471857	157.000000
2778.819857	151.000000
2780.169196	138.700000
2781.516742	147.100000
2782.864061	123.300000
2784.211154	155.300000
2785.556456	145.900000
2786.901532	141.900000
2788.246382	126.300000
2789.591005	146.200000
2790.932277	144.000000
2792.274887	123.900000
2793.617271	136.300000
2794.959431	115.000000
2796.298241	117.000000
2797.639950	142.400000
2798.978312	133.400000
2800.318011	138.800000
2801.655924	130.700000
2802.992053	126.300000
2804.327958	129.700000
2805.665201	123.600000
2807.000660	112.500000
2808.335896	136.600000
2809.669349	137.000000
2811.004140	139.700000
2812.335589	149.700000
2813.669934	142.600000
2814.999381	142.000000
2816.330165	133.400000
2817.660727	123.800000
2818.989510	137.100000
2820.319629	125.100000
2821.647970	126.400000
2822.976090	122.700000
2824.302432	120.800000
2825.630111	116.300000
2826.954457	119.900000
2828.280138	117.000000
2829.604044	141.800000
2830.927731	108.100000
2832.252753	125.300000
2833.574445	127.700000
2834.895919	111.900000
2836.217174	110.200000
2837.538210	107.700000
2838.857474	120.600000
2840.178073	126.400000
2841.496900	121.300000
2842.815509	127.000000
2844.132347	122.900000
2845.448968	124.300000
2846.765372	110.000000
2848.080007	133.900000
2849.395976	115.300000
2850.708625	118.200000
2852.022610	130.200000
2853.336377	115.500000
2854.649929	105.300000
2855.961713	109.800000
2857.271731	113.600000
2858.583084	111.900000
2859.891122	106.000000
2861.200495	101.900000
2862.509652	110.500000
2863.818594	111.200000
2865.125773	107.900000
2866.431188	115.400000
2867.737938	124.100000
2869.042925	109.800000
2870.347699	117.800000
2871.650711	126.200000
2872.956605	109.700000
2874.257643	125.600000
2875.560016	95.600000
2876.860629	125.600000
2878.162576	117.600000
2879.464310	122.800000
2880.762739	112.500000
2882.062503	124.600000
2883.360508	114.900000
2884.658302	124.400000
2885.954340	128.300000
2887.251711	96.400000
2888.547326	105.000000
2889.842730	126.300000
2891.137924	118.200000
2892.429819	111.800000
2893.724591	113.400000
2895.016066	117.100000
2896.308874	112.100000
2897.601472	120.700000
2898.890776	111.800000
2900.181412	109.100000
2901.470297	101.500000
2902.760515	108.000000
2904.047440	95.400000
2905.335699	124.300000
2906.622207	106.000000
2907.908508	113.400000
2909.194600	94.700000
2910.478944	121.200000
2911.766160	99.100000
2913.048548	116.700000
2914.332269	111.500000
2915.614244	118.700000
2916.896012	105.000000
2918.176034	107.600000
2919.458926	101.000000
2920.740073	111.200000
2922.017938	89.700000
2923.298672	114.100000
2924.576125	103.900000
2925.853372	117.100000
2927.128878	80.500000
2928.407251	97.600000
2929.680809	111.200000
2930.957235	110.600000
2932.231920	111.900000
2933.504865	103.600000
2934.779140	98.800000
2936.051676	99.600000
2937.324008	103.000000
2938.593066	108.800000
2939.864990	104.300000
2941.135176	119.600000
2942.405159	115.900000
2943.674938	105.600000
2944.942980	104.900000
2946.209287	107.900000
2947.475391	114.900000
2948.742825	105.400000
2950.008525	103.700000
2951.274022	106.300000
2952.539317	108.100000
2953.801347	103.600000
2955.064708	102.600000
2956.327866	108.700000
2957.589293	110.500000
2958.852049	107.300000
2960.113074	102.700000
2961.372367	110.200000
2962.631461	100.400000
2963.890354	86.100000
2965.149047	101.800000
2966.407540	102.200000
2967.664304	110.700000
2968.920868	96.000000
2970.175705	83.900000
2971.431871	112.900000
2972.684781	87.100000
2973.939021	120.400000
2975.193062	106.500000
2976.445377	91.700000
2977.697494	102.600000
2978.947886	105.200000
2980.201133	94.900000
2981.449603	101.300000
2982.700927	95.700000
2983.949003	117.200000
2985.196881	64.900000
2986.444562	102.300000
2987.692047	89.200000
2988.937810	105.100000
2990.183376	89.300000
2991.430270	116.400000
2992.673920	105.000000
2993.918898	108.600000
2995.160633	105.600000
2996.405218	89.200000
2997.648085	100.500000
2998.887711	107.400000
3000.130187	104.300000
3001.369424	93.900000
3002.609988	104.200000
3003.848835	105.200000
3005.087488	106.800000
3006.324425	102.900000
3007.562689	92.800000
3008.799239	104.500000
3010.035594	95.500000
3011.271756	96.500000
3012.506205	94.600000
3013.740460	97.400000
3014.974522	93.800000
3016.206872	108.200000
3017.437510	75.200000
3018.670994	98.800000
3019.902766	88.700000
3021.132828	98.100000
3022.362698	85.800000
3023.590858	86.400000
3024.820344	79.500000
3026.048122	103.000000
3027.275708	91.900000
3028.504620	86.000000
3029.728790	86.000000
3030.955803	82.300000
3032.179592	97.300000
3033.404708	109.700000
3034.628117	76.400000
3035.851337	112.700000
3037.072851	83.600000
3038.297206	81.500000
3039.516826	95.700000
3040.737771	96.300000
3041.958528	87.700000
3043.177581	101.400000
3044.397960	85.200000
3045.615122	102.600000
3046.833609	90.100000
3048.050394	80.100000
3049.266992	102.200000
3050.483401	111.900000
3051.696598	95.200000
3052.912632	90.400000
3054.125454	89.500000
3055.341113	96.700000
3056.552049	80.800000
3057.764310	90.000000
3058.976385	93.100000
3060.188273	98.700000
3061.398463	89.300000
3062.608467	76.000000
3063.818286	95.100000
3065.026408	91.900000
3066.234344	74.600000
3067.440586	89.700000
3068.648151	90.800000
3069.854023	89.550000
3071.059709	88.300000
3072.265210	83.100000
3073.469018	75.300000
3074.674150	94.500000
3075.877590	88.400000
3077.079337	99.200000
3078.280901	80.500000
3079.482281	80.600000
3080.683477	81.800000
3081.882983	90.500000
3083.082305	91.800000
3084.282951	91.100000
3085.481907	86.800000
3086.677669	100.700000
3087.876260	80.900000
3089.071657	91.100000
3090.268377	71.800000
3091.461905	83.800000
3092.658261	73.000000
3093.852931	74.800000
3095.044410	67.100000
3096.240220	81.900000
3097.431337	68.400000
3098.623776	79.900000
3099.813028	92.800000
3101.005106	81.000000
3102.195499	81.300000
3103.382707	94.300000
3104.571238	81.000000
3105.761091	100.200000
3106.947759	83.800000
3108.134248	83.400000
3109.320557	91.200000
3110.508188	93.700000
3111.692638	81.700000
3112.875407	84.300000
3114.061000	83.800000
3115.244912	98.300000
3116.427146	89.100000
3117.609201	82.500000
3118.791079	81.300000
3119.972778	76.400000
3121.152799	83.900000
3122.331144	86.700000
3123.512310	76.000000
3124.690300	85.800000
3125.868113	82.500000
3127.045749	101.200000
3128.221710	68.000000
3129.397494	70.700000
3130.574600	88.800000
3131.750031	77.100000
3132.923789	85.700000
3134.095875	90.000000
3135.269281	89.000000
3136.442512	86.500000
3137.614070	70.300000
3138.786950	83.100000
3139.956662	64.900000
3141.127695	96.600000
3142.297057	90.000000
3143.464750	84.500000
3144.635258	65.200000
3145.801107	78.100000
3146.971266	81.400000
3148.136767	92.400000
3149.302095	82.600000
3150.467249	91.900000
3151.632229	76.800000
3152.798530	83.400000
3153.960177	61.800000
3155.123145	91.000000
3156.285939	83.600000
3157.448561	104.300000
3158.609518	67.400000
3159.770302	82.400000
3160.930914	87.300000
3162.089863	90.600000
3163.248639	75.900000
3164.407244	101.300000
3165.565677	71.000000
3166.723938	80.100000
3167.880537	79.100000
3169.035475	87.600000
3170.191732	69.000000
3171.346329	92.100000
3172.500754	69.300000
3173.653520	90.600000
3174.806116	92.500000
3175.958541	72.900000
3177.110797	77.600000
3178.262883	70.800000
3179.411822	94.100000
3180.563568	95.200000
3181.713656	78.600000
3182.862088	103.900000
3184.010351	67.200000
3185.158444	86.000000
3186.306369	74.200000
3187.452639	72.600000
3188.598740	79.300000
3189.743186	75.400000
3190.887465	68.400000
3192.031576	78.400000
3193.177005	83.200000
3194.319294	63.800000
3195.461417	69.300000
3196.603372	77.600000
3197.745161	83.900000
3198.886782	78.000000
3200.025267	71.800000
3201.165070	90.400000
3202.306191	60.400000
3203.444177	94.500000
3204.580514	70.800000
3205.716685	82.400000
3206.854174	74.000000
3207.990013	98.800000
3209.127170	89.600000
3210.259714	91.600000
3211.396540	103.300000
3212.528754	76.800000
3213.662286	75.100000
3214.795652	67.800000
3215.925891	72.800000
3217.058928	81.700000
3218.188839	72.000000
3219.320067	83.400000
3220.448169	67.300000
3221.579068	89.200000
3222.708324	80.500000
3223.835935	87.300000
3224.960425	84.000000
3226.089190	96.100000
3227.214833	75.000000
3228.340313	96.700000
3229.464152	103.400000
3230.590785	97.400000
3231.712821	111.900000
3232.836173	112.800000
3233.959363	129.000000
3235.082391	144.200000
3236.203779	118.300000
3237.325006	127.200000
3238.444594	143.900000
3239.564021	143.300000
3240.681810	129.800000
3241.802392	137.000000
3242.919859	152.400000
3244.037167	130.600000
3245.154313	118.000000
3246.269824	136.400000
3247.386650	114.300000
3248.500365	125.800000
3249.616870	104.000000
3250.731741	115.200000
3251.843503	93.700000
3252.955106	118.300000
3254.068023	99.900000
3255.180782	84.000000
3256.290434	84.600000
3257.401400	89.800000
3258.512208	85.200000
3259.621385	79.700000
3260.728930	67.900000
3261.837790	89.600000
3262.946491	85.100000
3264.052090	87.000000
3265.159003	70.400000
3266.264288	79.500000
3267.370886	70.900000
3268.474384	70.800000
3269.579196	84.800000
3270.683851	72.000000
3271.785407	82.500000
3272.886808	67.400000
3273.989522	72.800000
3275.092079	60.900000
3276.191540	67.100000
3277.293785	62.900000
3278.392934	45.900000
3279.490459	66.900000
3280.587828	78.700000
3281.687980	83.700000
3282.785038	69.800000
3283.881941	85.100000
3284.978689	70.900000
3286.070879	79.000000
3287.167317	81.200000
3288.262134	83.500000
3289.356795	83.600000
3290.449835	88.200000
3291.542721	52.700000
3292.633986	74.000000
3293.726564	62.100000
3294.817521	84.100000
3295.906859	60.500000
3296.996044	78.000000
3298.086542	56.800000
3299.173955	59.600000
3300.261216	74.500000
3301.349789	75.100000
3302.438209	56.400000
3303.522082	67.600000
3304.610197	67.400000
3305.695231	72.600000
3306.778648	63.300000
3307.863378	64.200000
3308.946493	72.800000
3310.030919	71.800000
3311.112267	67.100000
3312.194927	70.600000
3313.275973	53.800000
3314.356868	72.600000
3315.436150	74.600000
3316.515281	58.000000
3317.595723	61.900000
3318.673092	57.200000
3319.751771	74.700000
3320.828840	67.700000
3321.905758	77.300000
3322.981065	74.100000
3324.056223	58.500000
3325.132692	69.300000
3326.206091	62.800000
3327.279341	55.300000
3328.353902	55.300000
3329.426853	83.000000
3330.498197	70.300000
3331.570851	83.600000
3332.640438	78.000000
3333.711336	82.900000
3334.780627	64.700000
3335.851229	61.000000
3336.920224	57.600000
3337.987613	91.900000
3339.053397	74.000000
3340.123407	69.600000
3341.190354	57.900000
3342.254239	80.400000
3343.320892	63.500000
3344.385940	62.600000
3345.449385	79.100000
3346.512684	90.600000
3347.575836	62.600000
3348.638842	82.200000
3349.701702	65.700000
3350.762960	71.200000
3351.821161	69.200000
3352.883583	69.200000
3353.942948	57.000000
3355.002168	64.700000
3356.062698	61.000000
3357.118718	56.600000
3358.177503	65.900000
3359.231780	65.600000
3360.288820	53.100000
3361.344263	66.400000
3362.401014	62.800000
3363.456168	66.200000
3364.509724	67.400000
3365.561683	56.600000
3366.616404	73.700000
3367.668076	64.900000
3368.719605	71.100000
3369.772443	50.100000
3370.822233	70.400000
3371.873331	57.100000
3372.921384	51.100000
3373.972197	61.800000
3375.019964	50.400000
3376.067589	53.900000
3377.115071	49.400000
3378.160961	59.700000
3379.208159	73.400000
3380.252315	72.400000
3381.299229	62.200000
3382.344551	69.200000
3383.386833	47.300000
3384.428973	58.700000
3385.472421	53.000000
3386.515729	53.500000
3387.557446	63.000000
3388.599022	73.800000
3389.640458	76.900000
3390.680304	65.700000
3391.718563	47.300000
3392.758129	73.000000
3393.797554	45.900000
3394.835392	58.800000
3395.871643	66.600000
3396.907755	71.600000
3397.945174	73.300000
3398.979560	62.000000
3400.015253	51.400000
3401.050807	75.100000
3402.083330	60.900000
3403.118606	73.400000
3404.150851	50.700000
3405.182958	69.600000
3406.213481	66.500000
3407.245312	59.500000
3408.277003	58.800000
3409.305668	58.800000
3410.334194	57.900000
3411.364028	58.000000
3412.393723	43.400000
3413.420393	56.900000
3414.448370	54.900000
3415.473322	60.100000
3416.501024	69.000000
3417.525703	73.100000
3418.551688	69.600000
3419.576093	76.500000
3420.600362	64.900000
3421.623052	67.800000
3422.645606	70.400000
3423.669466	60.800000
3424.690306	42.100000
3425.711011	53.000000
3426.733021	54.400000
3427.752013	54.700000
3428.770870	55.300000
3429.791032	50.800000
3430.808178	67.800000
