-118.448435	17.100000
-115.778835	-9.700000
-113.112170	4.000000
-110.446257	14.800000
-107.783276	-7.900000
-105.118866	8.000000
-102.457386	-5.100000
-99.794476	-1.900000
-97.136674	3.200000
-94.477441	9.700000
-91.818958	-14.900000
-89.163398	4.500000
-86.506410	-9.400000
-83.854519	-16.200000
-81.201199	-10.600000
-78.550799	4.800000
-75.898969	-8.200000
-73.252230	6.400000
-70.604061	5.700000
-67.956636	3.600000
-65.312124	17.700000
-62.666184	-12.100000
-60.025325	1.700000
-57.383037	0.900000
-54.743657	2.900000
-52.102849	-3.500000
-49.462781	-0.300000
-46.827785	-1.400000
-44.191360	14.600000
-41.557839	9.600000
-38.922889	-5.100000
-36.293004	16.200000
-33.659527	8.300000
-31.031112	-4.900000
-28.403430	28.000000
-25.774321	23.500000
-23.150268	12.400000
-20.522626	26.200000
-17.900037	24.100000
-15.278180	48.400000
-12.657053	80.400000
-10.036656	194.400000
-7.419147	523.400000
-4.800210	1673.600000
-2.184159	4819.000000
0.431164	10776.400000
3.045760	5331.300000
5.657473	725.800000
8.270615	76.100000
10.878723	51.700000
13.490413	29.400000
16.097072	24.900000
18.705159	31.000000
21.312522	25.800000
23.914860	12.200000
26.520776	14.400000
29.121670	-10.500000
31.723992	9.600000
34.321297	-1.600000
36.922177	5.400000
39.518043	6.300000
42.115336	2.000000
44.711910	9.700000
47.303475	2.100000
49.896468	19.300000
52.486600	13.200000
55.078160	11.900000
57.666860	7.200000
60.256987	3.200000
62.842116	13.400000
65.428671	-10.000000
68.014513	-12.200000
70.597501	2.700000
73.181915	2.800000
75.759201	5.800000
78.340053	9.600000
80.918056	10.000000
83.495349	1.600000
86.074068	-12.000000
88.647806	-3.400000
91.222970	-1.300000
93.795291	-8.500000
96.366904	17.200000
98.935677	18.200000
101.505877	3.800000
104.073239	14.000000
106.642026	7.400000
109.207977	5.300000
111.771093	20.100000
114.337765	0.500000
116.895216	21.300000
119.458352	4.300000
122.016529	24.100000
124.578259	40.400000
127.135034	62.800000
129.693234	69.200000
132.246482	98.500000
134.799031	166.100000
137.355131	242.300000
139.906284	302.800000
142.456738	382.900000
145.006496	450.600000
147.553434	494.400000
150.099676	555.700000
152.647344	541.300000
155.194317	577.300000
157.736353	556.400000
160.277696	550.600000
162.818346	522.500000
165.360422	521.100000
167.899687	532.800000
170.436142	525.700000
172.971907	521.100000
175.509097	538.800000
178.045595	536.900000
180.579288	550.300000
183.110178	543.600000
185.640379	539.500000
188.172005	515.600000
190.700830	512.500000
193.226856	513.600000
195.752197	514.900000
198.278962	499.500000
200.802930	511.700000
203.326214	527.500000
205.848813	504.400000
208.368619	500.600000
210.887742	527.500000
213.406182	493.400000
215.926046	521.500000
218.438909	525.100000
220.955303	522.100000
223.471015	544.900000
225.981838	545.600000
228.494085	579.100000
231.003549	555.000000
233.512335	566.100000
236.020443	571.400000
238.529974	558.500000
241.034625	549.400000
243.538601	564.400000
246.044000	549.300000
248.544524	579.200000
251.048571	554.700000
253.545648	536.700000
256.046247	573.700000
258.544075	559.300000
261.041230	562.900000
263.537712	576.000000
266.029331	555.000000
268.524470	541.500000
271.016843	545.500000
273.508545	560.900000
275.997483	546.300000
278.487846	567.500000
280.975447	548.300000
283.460288	577.300000
285.948643	592.900000
288.430059	578.000000
290.914989	595.900000
293.395074	599.800000
295.878671	605.700000
298.357425	616.700000
300.837603	647.800000
303.315028	675.300000
305.791790	634.100000
308.267889	612.700000
310.741239	613.700000
313.213927	575.900000
315.685954	593.800000
318.157320	602.200000
320.625942	613.100000
323.093904	629.700000
325.563289	597.300000
328.027850	570.000000
330.495916	576.600000
332.959162	548.100000
335.421750	547.200000
337.883682	541.900000
340.344957	512.400000
342.803498	533.400000
345.263461	527.800000
347.720691	493.800000
350.177267	513.300000
352.633189	490.100000
355.086382	486.200000
357.540996	486.900000
359.990809	480.800000
362.444119	477.800000
364.892629	447.000000
367.340489	473.900000
369.789770	478.500000
372.234258	457.800000
374.680168	443.800000
377.125429	438.800000
379.567970	431.100000
382.009864	422.600000
384.451111	429.700000
386.889642	444.300000
389.329595	432.000000
391.766834	407.400000
394.201361	428.300000
396.639376	421.300000
399.072614	415.500000
401.507274	428.900000
403.937160	421.300000
406.370532	423.000000
408.799134	420.200000
411.227095	412.900000
413.656476	431.100000
416.081092	417.100000
418.507130	406.300000
420.932527	402.400000
423.357284	402.300000
425.777283	413.100000
428.198703	383.100000
430.617426	404.200000
433.037570	390.900000
435.455019	390.900000
437.873888	378.300000
440.290064	380.100000
442.701493	360.000000
445.116398	347.000000
447.528613	333.400000
449.940194	317.200000
452.351141	323.300000
454.759402	323.300000
457.167030	301.800000
459.574027	325.400000
461.980391	311.300000
464.384073	300.100000
466.787125	286.500000
469.189547	321.000000
471.591340	310.400000
473.990454	318.200000
476.390988	317.200000
478.790893	308.700000
481.186075	330.300000
483.584724	323.200000
485.978653	359.400000
488.371956	354.500000
490.764633	397.100000
493.156685	397.900000
495.550156	458.700000
497.938914	488.600000
500.325006	589.900000
502.712518	751.300000
505.099406	982.900000
507.483631	1335.000000
509.869275	1888.400000
512.252256	2605.200000
514.632577	3489.600000
517.014317	4179.000000
519.393398	4254.700000
521.773898	3882.400000
524.151740	3243.700000
526.526927	2693.000000
528.901496	2224.200000
531.277484	1875.400000
533.650818	1644.300000
536.025570	1438.700000
538.395637	1295.900000
540.765088	1181.100000
543.135957	1070.100000
545.502146	983.000000
547.869753	935.000000
550.234714	897.800000
552.599062	818.400000
554.962798	775.500000
557.327951	725.300000
559.688431	698.200000
562.050330	677.900000
564.409589	654.600000
566.766209	655.600000
569.126274	647.700000
571.479649	609.900000
573.836468	595.900000
576.190651	582.500000
578.544227	556.200000
580.897194	553.400000
583.247530	527.800000
585.599282	554.900000
587.944358	524.800000
590.294898	491.900000
592.638765	481.900000
594.988092	477.000000
597.332772	470.600000
599.674826	457.100000
602.018298	445.200000
604.359147	467.800000
606.699394	456.600000
609.037020	485.300000
611.378081	483.700000
613.714504	533.600000
616.052345	523.800000
618.387567	535.600000
620.720174	496.700000
623.054197	478.900000
625.385607	475.600000
627.716418	476.000000
630.046631	465.000000
632.376246	419.500000
634.701239	434.600000
637.031673	443.900000
639.357485	414.700000
641.680691	438.100000
644.005312	415.300000
646.327329	406.600000
648.648751	409.000000
650.967570	405.400000
653.287805	417.700000
655.607447	395.200000
657.924488	409.200000
660.240937	390.900000
662.554788	398.200000
664.870055	399.600000
667.182725	405.000000
669.496810	394.700000
671.806295	383.600000
674.117196	398.500000
676.425504	373.700000
678.733224	388.500000
681.042359	413.800000
683.346901	371.900000
685.650856	372.300000
687.954226	375.500000
690.259010	343.500000
692.559208	348.700000
694.860820	340.300000
697.161848	334.100000
699.458293	361.200000
701.756154	315.900000
704.053431	322.200000
706.350125	339.400000
708.642243	339.100000
710.937772	310.000000
713.228728	335.900000
715.521098	322.200000
717.810892	333.800000
720.100107	327.300000
722.388741	327.700000
724.674804	311.900000
726.962280	338.300000
729.247186	333.900000
731.531513	317.200000
733.813272	306.800000
736.096445	305.100000
738.379041	306.300000
740.657082	312.100000
742.936536	298.600000
745.215415	315.700000
747.493718	305.200000
749.767472	303.600000
752.042640	301.400000
754.317234	314.600000
756.589268	306.600000
758.862716	281.900000
761.133606	301.000000
763.401940	305.400000
765.671687	296.100000
767.938880	294.300000
770.205502	295.200000
772.471555	315.600000
774.735055	285.700000
776.999969	291.900000
779.264313	283.200000
781.524128	316.400000
783.785356	299.900000
786.046015	309.300000
788.304129	303.100000
790.559698	292.200000
792.818658	284.100000
795.071119	315.900000
797.328947	282.700000
799.582255	308.300000
801.833024	289.300000
804.085205	290.900000
806.334848	296.600000
808.585902	307.000000
810.832445	291.000000
813.080400	308.300000
815.325821	299.400000
817.572653	297.000000
819.818924	307.200000
822.060691	292.800000
824.305840	295.600000
826.544517	290.000000
828.786577	287.200000
831.024138	285.600000
833.263110	294.800000
835.499556	272.000000
837.737413	273.300000
839.972745	281.400000
842.205554	265.800000
844.439774	300.500000
846.671472	270.900000
848.902615	279.700000
851.133203	275.800000
853.363236	284.900000
855.592716	280.300000
857.817714	264.200000
860.046087	280.300000
862.269981	271.400000
864.495285	268.400000
866.716114	303.500000
868.940315	278.500000
871.160043	263.900000
873.381182	290.800000
875.601770	260.100000
877.819848	276.400000
880.039337	257.900000
882.254359	283.800000
884.468833	274.900000
886.682760	276.100000
888.896139	274.900000
891.108971	265.800000
893.321257	266.700000
895.531040	256.500000
897.740278	280.200000
899.948971	272.900000
902.155165	283.700000
904.362768	269.600000
906.567874	289.300000
908.772436	276.000000
910.974502	289.200000
913.177978	280.600000
915.378960	297.500000
917.579401	301.900000
919.781249	329.000000
921.976707	308.900000
924.175524	329.900000
926.369902	374.100000
928.567638	423.000000
930.760938	469.900000
932.955647	494.000000
935.147870	522.600000
937.339555	575.600000
939.530702	603.700000
941.719366	634.700000
943.907493	627.600000
946.093140	640.700000
948.282139	649.400000
950.466715	634.900000
952.650756	658.000000
954.838147	630.100000
957.017234	637.300000
959.199672	655.500000
961.381576	619.300000
963.561006	652.000000
965.737963	629.700000
967.916327	650.100000
970.096099	634.400000
972.269522	642.900000
974.446291	648.300000
976.618653	655.200000
978.792423	647.200000
980.961789	624.200000
983.134500	626.800000
985.304744	580.400000
987.474460	536.300000
989.643647	496.600000
991.808437	455.200000
993.976568	422.500000
996.140305	385.900000
998.305448	391.200000
1000.468133	342.700000
1002.630291	337.000000
1004.789993	360.200000
1006.949171	333.800000
1009.109755	309.600000
1011.267884	321.200000
1013.425489	341.200000
1015.582571	301.900000
1017.739130	328.800000
1019.891309	311.100000
1022.044894	288.800000
1024.197958	279.100000
1026.348574	270.900000
1028.500595	264.000000
1030.648243	272.800000
1032.799223	266.900000
1034.945832	275.700000
1037.091923	275.300000
1039.237494	257.800000
1041.384471	249.500000
1043.525159	263.900000
1045.669177	237.700000
1047.810754	259.800000
1049.951815	276.400000
1052.094280	250.800000
1054.230466	271.000000
1056.369978	267.400000
1058.505134	278.300000
1060.643615	248.000000
1062.777742	245.800000
1064.911356	248.200000
1067.046375	239.600000
1069.177044	248.300000
1071.309118	260.800000
1073.438763	246.600000
1075.567896	243.100000
1077.696517	238.500000
1079.824627	258.100000
1081.950311	238.900000
1084.075485	253.800000
1086.202063	245.900000
1088.324304	240.100000
1090.447948	213.200000
1092.567259	240.400000
1094.691798	232.500000
1096.810092	225.600000
1098.929791	236.300000
1101.047071	226.500000
1103.163845	232.000000
1105.280112	242.400000
1107.393964	222.600000
1109.509219	215.900000
1111.620152	219.700000
1113.734396	217.500000
1115.844320	207.500000
1117.955648	200.500000
1120.066471	227.400000
1122.172979	202.300000
1124.282795	223.500000
1126.388297	225.200000
1128.495202	208.400000
1130.595892	224.400000
1132.701794	220.000000
1134.803387	205.500000
1136.906383	213.200000
1139.008878	196.000000
1141.105166	214.000000
1143.206662	224.300000
1145.303855	214.100000
1147.400549	213.100000
1149.496745	191.000000
1151.592444	208.800000
1153.687645	213.300000
1155.780449	198.200000
1157.874655	202.500000
1159.962670	197.600000
1162.055883	208.400000
1164.142908	204.500000
1166.233232	197.100000
1168.319269	206.900000
1170.408603	205.600000
1172.491756	204.500000
1174.576311	232.700000
1176.662268	221.600000
1178.743943	225.000000
1180.827020	212.600000
1182.907711	202.400000
1184.987910	238.300000
1187.067618	218.300000
1189.146835	209.800000
1191.223670	206.700000
1193.298124	226.000000
1195.375870	203.900000
1197.449345	218.000000
1199.524221	213.600000
1201.594830	209.700000
1203.666841	204.700000
1205.736475	228.200000
1207.807510	203.800000
1209.878057	219.900000
1211.944343	208.700000
1214.012030	214.600000
1216.077345	196.900000
1218.144060	203.900000
1220.206519	217.800000
1222.272263	188.100000
1224.333754	213.100000
1226.396644	197.400000
1228.457167	192.600000
1230.517206	191.400000
1232.576763	205.900000
1234.633954	212.300000
1236.690664	212.600000
1238.745011	191.400000
1240.802638	191.700000
1242.857903	213.000000
1244.908927	197.200000
1246.961351	203.700000
1249.013295	218.100000
1251.062881	212.700000
1253.111988	194.500000
1255.160617	208.100000
1257.208767	221.900000
1259.256439	216.500000
1261.299880	206.400000
1263.346596	201.900000
1265.390959	219.600000
1267.434846	214.500000
1269.476382	228.400000
1271.515567	220.900000
1273.558026	219.900000
1275.596262	221.000000
1277.635897	222.900000
1279.675057	190.000000
1281.709998	209.800000
1283.746339	213.000000
1285.780334	203.600000
1287.815728	217.900000
1289.846908	229.000000
1291.879487	211.500000
1293.911593	224.900000
1295.941359	212.400000
1297.972523	205.400000
1299.999479	207.300000
1302.027833	220.200000
1304.051983	229.500000
1306.079397	194.500000
1308.102609	195.900000
1310.127219	221.500000
1312.149495	208.600000
1314.173168	223.300000
1316.194508	216.800000
1318.215380	204.600000
1320.235786	225.900000
1322.251997	211.200000
1324.269606	204.000000
1326.284888	199.000000
1328.303427	222.000000
1330.317778	204.800000
1332.329803	220.600000
1334.345085	213.800000
1336.356182	211.800000
1338.368676	228.400000
1340.376987	243.700000
1342.388554	226.100000
1344.394081	227.500000
1346.402864	227.600000
1348.407469	204.000000
1350.415328	228.200000
1352.422725	222.200000
1354.424091	211.400000
1356.426854	222.800000
1358.429156	212.200000
1360.430999	218.000000
1362.432382	200.800000
1364.431452	228.500000
1366.430063	187.600000
1368.428216	208.100000
1370.425911	212.700000
1372.419442	216.700000
1374.414370	178.600000
1376.408841	208.100000
1378.402855	196.000000
1380.394561	205.900000
1382.385813	194.200000
1384.374759	198.000000
1386.365100	198.300000
1388.354986	201.400000
1390.342569	198.500000
1392.329697	199.200000
1394.314525	162.300000
1396.300746	193.100000
1398.284668	193.600000
1400.268137	189.700000
1402.251154	192.800000
1404.231872	184.300000
1406.213986	199.600000
1408.193802	198.200000
1410.173168	192.600000
1412.148394	182.200000
1414.126860	194.200000
1416.103031	193.600000
1418.078754	203.900000
1420.054027	169.700000
1422.027009	182.300000
1423.999543	184.600000
1425.971630	198.100000
1427.943268	177.900000
1429.910778	185.000000
1431.883363	190.700000
1433.848141	171.700000
1435.817991	174.200000
1437.783718	184.700000
1439.750837	165.900000
1441.715673	190.400000
1443.676390	176.900000
1445.642174	198.500000
1447.602003	196.200000
1449.563225	188.900000
1451.525840	187.300000
1453.484340	181.500000
1455.442398	181.100000
1457.400013	186.200000
1459.357187	196.100000
1461.312085	183.100000
1463.268375	197.000000
1465.222391	194.700000
1467.175967	209.000000
1469.127270	194.600000
1471.079965	198.900000
1473.030389	188.600000
1474.980373	177.900000
1476.929919	174.200000
1478.877196	192.900000
1480.822206	186.000000
1482.768607	189.500000
1484.714572	164.400000
1486.660098	191.300000
1488.603360	170.400000
1490.546185	188.100000
1492.486747	177.600000
1494.428700	175.300000
1496.368392	183.100000
1498.307648	175.300000
1500.246469	185.100000
1502.183031	186.700000
1504.120984	182.600000
1506.056679	189.900000
1507.991939	172.800000
1509.924944	198.600000
1511.857516	191.000000
1513.789656	193.300000
1515.721364	163.200000
1517.650818	182.400000
1519.581663	180.100000
1521.512077	198.600000
1523.438417	188.500000
1525.366149	175.200000
1527.291630	200.900000
1529.216682	188.400000
1531.141305	189.500000
1533.065499	186.600000
1534.987446	186.100000
1536.910782	193.200000
1538.831873	195.400000
1540.750719	198.400000
1542.670955	206.600000
1544.588947	222.900000
1546.506513	209.300000
1548.421837	226.300000
1550.338551	227.500000
1552.251210	227.300000
1554.167073	240.100000
1556.080696	247.600000
1557.992082	244.800000
1559.904856	256.900000
1561.813581	235.600000
1563.723696	287.100000
1565.633387	310.500000
1567.542654	329.600000
1569.449688	384.300000
1571.354489	437.400000
1573.260679	530.500000
1575.164637	658.600000
1577.068175	724.100000
1578.971291	829.800000
1580.872179	884.400000
1582.774454	877.600000
1584.674502	761.600000
1586.575937	671.800000
1588.473339	554.300000
1590.370322	489.400000
1592.266887	390.400000
1594.164840	348.500000
1596.056958	321.800000
1597.952269	277.800000
1599.847163	273.900000
1601.739835	248.300000
1603.632091	237.000000
1605.522126	236.000000
1607.411747	222.200000
1609.300951	231.900000
1611.189741	210.400000
1613.076314	242.400000
1614.964273	222.900000
1616.848216	243.200000
1618.733547	248.900000
1620.618463	255.400000
1622.501166	237.400000
1624.385256	237.200000
1626.265335	211.800000
1628.146800	216.300000
1630.026055	181.300000
1631.906696	198.700000
1633.781533	187.000000
1635.661352	189.700000
1637.537165	165.200000
1639.412568	164.300000
1641.289358	181.200000
1643.160350	190.200000
1645.034524	184.200000
1646.904700	163.000000
1648.778056	178.300000
1650.649209	180.200000
1652.518160	168.400000
1654.388497	165.700000
1656.254840	161.200000
1658.122569	178.300000
1659.988100	168.300000
1661.855015	159.200000
1663.717942	172.000000
1665.582254	139.000000
1667.444370	152.600000
1669.306082	161.200000
1671.169178	146.100000
1673.030080	175.600000
1674.888788	148.100000
1676.747093	152.300000
1678.606783	165.500000
1680.460706	122.200000
1682.317801	151.900000
1684.174494	154.300000
1686.027211	168.700000
1687.883098	143.700000
1689.735012	155.300000
1691.586525	160.700000
1693.437637	146.800000
1695.288349	148.700000
1697.138660	128.000000
1698.986787	141.400000
1700.836297	162.800000
1702.680059	164.100000
1704.528770	140.900000
1706.371736	147.000000
1708.217867	173.800000
1710.060037	150.100000
1711.905371	125.700000
1713.744965	153.500000
1715.585943	136.300000
1717.428304	147.500000
1719.266709	151.900000
1721.106497	136.000000
1722.944110	150.600000
1724.781327	156.900000
1726.616371	144.900000
1728.452798	138.500000
1730.287053	139.200000
1732.120913	146.900000
1733.954380	151.900000
1735.783900	133.300000
1737.616579	155.700000
1739.445314	140.900000
1741.277207	146.700000
1743.105157	143.800000
1744.932715	139.700000
1746.759881	139.100000
1748.586656	135.300000
1750.413040	136.900000
1752.235487	149.300000
1754.061088	146.000000
1755.882755	127.200000
1757.705804	142.500000
1759.526692	144.600000
1761.347190	125.600000
1763.169070	145.700000
1764.985250	143.100000
1766.804582	147.100000
1768.619987	153.800000
1770.438542	152.300000
1772.253172	128.700000
1774.067416	138.600000
1775.881272	147.800000
1777.694742	133.200000
1779.506059	136.700000
1781.318757	133.000000
1783.131068	142.800000
1784.939462	145.600000
1786.749237	150.900000
1788.555096	125.300000
1790.364101	125.300000
1792.169193	147.600000
1793.975666	145.400000
1795.781755	139.100000
1797.583934	128.100000
1799.389256	127.200000
1801.190670	137.500000
1802.993464	128.000000
1804.792352	130.000000
1806.592621	129.700000
1808.392508	145.600000
1810.190254	138.800000
1811.987618	137.300000
1813.784603	112.800000
1815.581207	137.400000
1817.375672	126.300000
1819.171516	135.600000
1820.961706	139.200000
1822.756792	132.700000
1824.546225	114.700000
1826.338795	132.600000
1828.129230	132.300000
1829.917531	134.600000
1831.708967	139.500000
1833.494757	156.600000
1835.281927	150.600000
1837.066965	142.600000
1838.855137	148.000000
1840.639423	149.100000
1842.421580	138.100000
1844.205115	161.100000
1845.986522	144.400000
1847.769308	142.700000
1849.548214	169.200000
1851.328498	136.300000
1853.106656	156.400000
1854.886193	159.900000
1856.663605	156.000000
1858.438893	146.100000
1860.215560	166.800000
1861.990103	158.700000
1863.766025	144.700000
1865.536326	139.100000
1867.309755	145.200000
1869.081064	144.400000
1870.852003	151.300000
1872.624318	176.200000
1874.391020	156.600000
1876.160848	150.400000
1877.926812	151.000000
1879.695900	155.600000
1881.461126	150.500000
1883.225983	147.200000
1884.992218	138.500000
1886.754594	153.900000
1888.516603	155.700000
1890.278244	148.400000
1892.039519	157.500000
1893.800426	148.600000
1895.560967	160.700000
1897.319398	133.200000
1899.077464	135.900000
1900.833421	145.600000
1902.590756	129.600000
1904.347724	135.800000
1906.102587	138.900000
1907.855344	141.200000
1909.607738	147.400000
1911.361507	134.700000
1913.113173	126.800000
1914.862737	134.400000
1916.613677	137.600000
1918.364253	126.100000
1920.110990	149.100000
1921.859104	128.900000
1923.605118	133.100000
1925.352508	128.700000
1927.097799	147.500000
1928.840993	107.000000
1930.585563	144.600000
1932.328036	126.800000
1934.070149	133.300000
1935.811902	144.000000
1937.553296	132.900000
1939.292596	121.200000
1941.031536	145.600000
1942.770119	116.400000
1944.506609	135.700000
1946.242742	132.050000
1947.980249	128.400000
1949.713934	121.700000
1951.448994	140.000000
1953.181966	124.300000
1954.914581	133.100000
1956.646839	139.400000
1958.378741	136.900000
1960.108557	140.000000
1961.836289	113.800000
1963.565394	119.500000
1965.294145	139.000000
1967.020812	144.800000
1968.747125	134.900000
1970.474811	139.400000
1972.196961	126.900000
1973.922212	130.700000
1975.643657	116.500000
1977.368201	128.600000
1979.090666	116.600000
1980.809327	130.600000
1982.531087	131.100000
1984.249045	136.600000
1985.968376	126.600000
1987.683908	134.300000
1989.404261	134.100000
1991.120814	126.200000
1992.833571	125.000000
1994.549425	122.700000
1996.263205	139.600000
1997.976636	126.400000
1999.687996	130.200000
2001.400729	143.100000
2003.109670	143.200000
2004.821705	131.700000
2006.528230	125.800000
2008.237848	114.500000
2009.945398	133.300000
2011.652601	134.100000
2013.357738	127.900000
2015.062528	135.000000
2016.768690	122.100000
2018.471070	137.600000
2020.174822	136.700000
2021.876510	120.900000
2023.577854	116.600000
2025.278852	140.300000
2026.977790	118.700000
2028.678098	123.700000
2030.374632	125.100000
2032.072537	129.500000
2033.768383	121.000000
2035.467315	115.500000
2037.160761	107.300000
2038.855579	126.600000
2040.550053	113.000000
2042.240759	130.800000
2043.934549	119.100000
2045.624572	112.400000
2047.315966	110.000000
2049.005307	128.600000
2050.696018	116.200000
2052.382966	128.000000
2054.069575	118.800000
2055.757554	120.200000
2057.441773	118.300000
2059.127362	128.900000
2060.812612	116.600000
2062.495814	142.700000
2064.180385	123.600000
2065.859494	117.200000
2067.543388	119.000000
2069.221822	105.300000
2070.903332	117.100000
2072.581092	123.700000
2074.258514	131.400000
2075.937306	106.500000
2077.614056	123.100000
2079.288764	135.000000
2080.964841	122.100000
2082.638878	122.500000
2084.312579	120.200000
2085.985945	114.400000
2087.657273	126.600000
2089.328266	118.300000
2090.998925	119.400000
2092.669249	112.100000
2094.339240	123.100000
2096.007195	120.200000
2097.674817	123.800000
2099.340404	130.300000
2101.007361	109.300000
2102.672283	121.900000
2104.336874	126.300000
2105.999433	112.200000
2107.663360	128.500000
2109.325257	143.600000
2110.986822	123.500000
2112.648056	139.100000
2114.307262	127.600000
2115.966137	97.500000
2117.624683	124.400000
2119.282899	105.700000
2120.937391	97.400000
2122.594948	111.600000
2124.252176	114.500000
2125.905682	133.200000
2127.560556	118.200000
2129.211712	104.400000
2130.865929	103.200000
2132.516430	117.300000
2134.168297	112.700000
2135.814756	130.500000
2137.465970	129.500000
2139.113470	115.200000
2140.762337	119.800000
2142.409186	107.800000
2144.055708	117.800000
2145.701905	112.200000
2147.344394	111.100000
2148.989941	114.500000
2150.631781	111.800000
2152.276678	140.500000
2153.917870	113.900000
2155.558738	124.000000
2157.199282	91.700000
2158.837814	113.900000
2160.477712	122.600000
2162.113910	122.500000
2163.751475	124.400000
2165.388716	98.400000
2167.023948	107.600000
2168.658859	128.000000
2170.293448	109.700000
2171.927715	126.200000
2173.558289	116.400000
2175.191915	122.600000
2176.821849	134.900000
2178.453148	107.200000
2180.082442	115.200000
2181.711417	126.300000
2183.340073	96.700000
2184.968409	113.800000
2186.594742	112.600000
2188.220757	108.700000
2189.844771	109.600000
2191.470149	104.900000
2193.093528	101.400000
2194.718270	146.700000
2196.339332	101.200000
2197.960077	95.900000
2199.582187	102.500000
2201.202299	118.700000
2202.820414	107.900000
2204.438214	140.100000
2206.055699	117.900000
2207.672868	116.100000
2209.289722	112.600000
2210.906261	122.000000
2212.520806	125.700000
2214.133359	156.700000
2215.747276	109.600000
2217.359202	115.500000
2218.972491	103.700000
2220.583790	119.700000
2222.193099	112.500000
2223.803772	107.300000
2225.412456	120.400000
2227.020828	123.200000
2228.627212	130.900000
2230.234960	117.600000
2231.840721	125.900000
2233.446171	122.000000
2235.049636	101.000000
2236.654464	96.400000
2238.257309	103.400000
2239.858170	114.500000
2241.460393	112.800000
2243.060635	102.900000
2244.662239	98.700000
2246.260191	111.400000
2247.859505	105.400000
2249.456839	119.000000
2251.053864	130.600000
2252.652252	125.300000
2254.246991	113.000000
2255.839753	118.400000
2257.433878	117.000000
2259.029364	122.500000
2260.621206	111.900000
2262.212741	115.600000
2263.805637	117.000000
2265.393224	119.900000
2266.985508	121.100000
2268.572484	120.200000
2270.162489	107.400000
2271.747189	130.400000
2273.336583	118.400000
2274.920674	123.600000
2276.506127	105.200000
2278.089610	113.800000
2279.676120	106.800000
2281.258996	135.300000
2282.841568	125.300000
2284.423837	125.200000
2286.002477	114.400000
2287.584140	123.800000
2289.162175	103.400000
2290.743233	120.700000
2292.320665	117.950000
2293.896132	115.200000
2295.474622	119.100000
2297.049488	112.100000
2298.624053	122.900000
2300.198318	106.900000
2301.772282	104.900000
2303.345946	110.900000
2304.919309	111.700000
2306.489054	106.200000
2308.058500	122.200000
2309.630965	107.100000
2311.198154	107.600000
2312.768362	112.100000
2314.334955	103.800000
2315.902908	113.400000
2317.468905	124.700000
2319.034605	117.900000
2320.600008	116.900000
2322.163456	101.400000
2323.728264	116.600000
2325.289464	121.800000
2326.853678	108.300000
2328.412631	123.700000
2329.974597	134.800000
2331.534613	119.700000
2333.094333	113.500000
2334.652104	116.500000
2336.209580	110.200000
2337.766762	110.500000
2339.321997	108.000000
2340.876937	113.400000
2342.431584	129.900000
2343.985937	123.700000
2345.539996	102.800000
2347.093761	97.200000
2348.645583	108.300000
2350.195461	90.300000
2351.748347	115.800000
2353.295991	123.400000
2354.846642	102.100000
2356.393702	120.000000
2357.942121	129.300000
2359.490247	106.800000
2361.034785	95.900000
2362.580681	113.000000
2364.124639	115.800000
2365.669954	114.100000
2367.211684	110.600000
2368.754771	112.000000
2370.295923	108.700000
2371.836785	127.900000
2373.377358	125.100000
2374.917641	114.500000
2376.457636	115.000000
2377.994053	114.600000
2379.533471	81.800000
2381.069312	117.000000
2382.606509	106.200000
2384.140131	99.400000
2385.676754	113.600000
2387.211445	121.200000
2388.744207	114.800000
2390.276682	105.700000
2391.807230	112.100000
2393.340775	98.200000
2394.869109	117.500000
2396.398799	101.000000
2397.928204	116.400000
2399.457323	105.900000
2400.986158	117.800000
2402.509787	108.500000
2404.038053	106.600000
2405.561115	104.000000
2407.088811	119.900000
2408.609668	119.700000
2410.135158	115.700000
2411.657087	117.000000
2413.180372	99.500000
2414.701736	118.500000
2416.221180	104.000000
2417.741979	128.100000
2419.260859	126.400000
2420.779457	115.500000
2422.296138	120.400000
2423.814173	139.200000
2425.331927	117.500000
2426.846130	134.300000
2428.360052	136.800000
2429.873694	149.600000
2431.388691	135.800000
2432.900139	132.300000
2434.412942	125.000000
2435.923832	129.200000
2437.434442	148.300000
2438.943141	132.500000
2440.454827	148.400000
2441.962968	151.800000
2443.470832	150.300000
2444.978418	154.000000
2446.482463	157.600000
2447.989494	154.300000
2449.494616	152.000000
2450.999461	173.900000
2452.502399	174.300000
2454.005060	158.800000
2455.507445	166.900000
2457.007925	190.900000
2458.509758	154.600000
2460.009687	159.000000
2461.509340	169.600000
2463.008717	161.800000
2464.506192	138.500000
2466.001765	152.600000
2467.500319	138.400000
2468.995343	151.300000
2470.491721	132.400000
2471.984571	149.800000
2473.478775	147.600000
2474.972705	133.800000
2476.463112	129.800000
2477.956495	141.100000
2479.447981	143.200000
2480.937570	139.100000
2482.426887	136.400000
2483.914309	130.000000
2485.404706	128.000000
2486.891584	127.900000
2488.379814	131.800000
2489.864528	117.700000
2491.348971	121.800000
2492.834766	127.600000
2494.318668	137.300000
2495.803922	131.700000
2497.284042	124.300000
2498.767134	122.700000
2500.248336	117.800000
2501.729269	119.300000
2503.208313	113.800000
2504.687088	113.900000
2506.165595	103.300000
2507.643834	122.900000
2509.121804	118.800000
2510.596270	118.000000
2512.073704	111.800000
2513.547635	111.800000
2515.022916	94.100000
2516.497931	115.700000
2517.969444	98.100000
2519.442307	129.400000
2520.913288	120.200000
2522.385619	114.800000
2523.852837	118.300000
2525.323020	113.100000
2526.791323	85.000000
2528.259361	114.800000
2529.727134	121.100000
2531.194642	120.500000
2532.661885	121.900000
2534.125636	108.900000
2535.590737	111.500000
2537.053961	117.600000
2538.518535	104.600000
2539.979619	108.400000
2541.442053	110.900000
2542.904224	121.800000
2544.362909	103.500000
2545.826166	98.700000
2547.284326	100.900000
2548.743835	121.200000
2550.198251	112.100000
2551.657236	106.400000
2553.114350	112.300000
2554.569593	112.200000
2556.024575	111.300000
2557.477687	112.200000
2558.932148	111.000000
2560.384740	137.000000
2561.837072	112.600000
2563.287536	122.600000
2564.740956	112.900000
2566.189294	111.500000
2567.640588	117.200000
2569.090015	110.200000
2570.535970	130.700000
2571.984881	117.600000
2573.430320	105.900000
2574.877108	141.300000
2576.322032	119.100000
2577.766699	119.900000
2579.212713	121.700000
2580.655260	124.200000
2582.099155	127.800000
2583.539585	119.800000
2584.981362	121.700000
2586.421280	116.400000
2587.862545	119.700000
2589.300349	128.800000
2590.741102	131.200000
2592.176792	145.800000
2593.615432	126.400000
2595.052215	112.300000
2596.487141	118.500000
2597.925016	129.400000
2599.357832	125.200000
2600.791996	111.200000
2602.224306	113.000000
2603.657962	112.900000
2605.089765	124.100000
2606.521315	115.500000
2607.952611	113.100000
2609.382055	116.900000
2610.811248	123.200000
2612.238589	123.200000
2613.667277	132.100000
2615.095712	135.000000
2616.520700	142.100000
2617.947035	115.300000
2619.371521	144.300000
2620.797353	134.600000
2622.219741	132.800000
2623.643475	129.000000
2625.065362	149.800000
2626.487000	142.000000
2627.906792	139.700000
2629.327930	168.100000
2630.748818	170.900000
2632.166268	161.200000
2633.586657	169.000000
2635.003609	181.000000
2636.420313	182.300000
2637.836768	179.800000
2639.252975	204.000000
2640.668933	201.900000
2642.083051	194.900000
2643.496922	223.400000
2644.908953	210.200000
2646.322329	229.700000
2647.732275	240.900000
2649.145156	265.100000
2650.554610	265.300000
2651.963817	280.200000
2653.371187	289.100000
2654.781493	332.200000
2656.189962	342.600000
2657.596596	348.900000
2659.002985	376.500000
2660.407540	436.000000
2661.813439	443.500000
2663.217505	492.400000
2664.621326	550.500000
2666.024904	572.000000
2667.426649	668.900000
2668.829738	716.900000
2670.229409	778.000000
2671.630424	861.500000
2673.028023	950.700000
2674.428552	1049.500000
2675.825666	1108.900000
2677.224123	1226.100000
2678.620752	1255.700000
2680.017139	1334.200000
2681.413285	1354.200000
2682.807604	1377.400000
2684.203266	1388.400000
2685.595518	1385.200000
2686.989114	1336.800000
2688.380885	1242.500000
2689.773998	1184.500000
2691.165288	1088.500000
2692.554755	1042.800000
2693.943982	928.000000
2695.332970	820.900000
2696.723300	769.600000
2698.108645	721.300000
2699.496914	660.500000
2700.883363	560.800000
2702.269573	532.900000
2703.655545	495.000000
2705.038117	437.400000
2706.422032	406.000000
2707.805709	367.100000
2709.189148	339.200000
2710.569191	347.800000
2711.950576	312.100000
2713.330145	295.000000
2714.711056	267.800000
2716.090151	257.500000
2717.467433	232.600000
2718.846056	232.800000
2720.222866	243.700000
2721.599440	219.200000
2722.975778	196.500000
2724.350304	193.200000
2725.726171	185.600000
2727.098651	183.700000
2728.474047	189.700000
2729.844483	176.300000
2731.216260	172.800000
2732.587802	167.700000
2733.957536	151.900000
2735.328611	159.300000
2736.697877	151.300000
2738.066911	157.800000
2739.434137	150.600000
2740.801131	140.300000
2742.167892	146.000000
2743.534420	140.100000
2744.899143	147.200000
2746.263635	130.900000
2747.627894	116.200000
2748.991921	123.700000
2750.355717	122.400000
2751.716139	112.900000
2753.079472	115.500000
2754.437862	124.200000
2755.799162	130.400000
2757.157091	109.700000
2758.517930	123.100000
2759.876968	113.800000
2761.232638	110.100000
2762.591216	115.900000
2763.946428	109.600000
2765.301410	106.000000
2766.654595	110.400000
2768.010687	108.200000
2769.363415	110.900000
2770.715914	98.500000
2772.068185	92.400000
2773.421795	108.200000
2774.772043	93.700000
2776.120498	99.800000
2777.471857	108.100000
2778.819857	112.000000
2780.169196	119.100000
2781.516742	109.200000
2782.864061	107.000000
2784.211154	101.100000
2785.556456	125.300000
2786.901532	87.500000
2788.246382	92.500000
2789.591005	114.700000
2790.932277	100.800000
2792.274887	112.900000
2793.617271	109.000000
2794.959431	97.600000
2796.298241	104.700000
2797.639950	111.700000
2798.978312	88.300000
2800.318011	98.000000
2801.655924	100.600000
2802.992053	103.600000
2804.327958	111.800000
2805.665201	94.700000
2807.000660	97.700000
2808.335896	106.200000
2809.669349	94.500000
2811.004140	97.800000
2812.335589	109.800000
2813.669934	99.100000
2814.999381	94.100000
2816.330165	96.400000
2817.660727	112.000000
2818.989510	92.500000
2820.319629	82.900000
2821.647970	112.700000
2822.976090	104.100000
2824.302432	100.500000
2825.630111	103.200000
2826.954457	93.600000
2828.280138	89.900000
2829.604044	96.000000
2830.927731	82.900000
2832.252753	82.800000
2833.574445	87.600000
2834.895919	96.400000
2836.217174	96.100000
2837.538210	101.500000
2838.857474	82.400000
2840.178073	95.200000
2841.496900	71.200000
2842.815509	110.100000
2844.132347	82.300000
2845.448968	83.500000
2846.765372	88.100000
2848.080007	94.900000
2849.395976	102.900000
2850.708625	94.400000
2852.022610	88.600000
2853.336377	98.900000
2854.649929	95.300000
2855.961713	89.400000
2857.271731	96.200000
2858.583084	103.700000
2859.891122	76.100000
2861.200495	83.600000
2862.509652	88.800000
2863.818594	96.800000
2865.125773	77.700000
2866.431188	78.000000
2867.737938	99.200000
2869.042925	91.400000
2870.347699	93.700000
2871.650711	87.800000
2872.956605	90.500000
2874.257643	79.000000
2875.560016	89.000000
2876.860629	76.900000
2878.162576	80.200000
2879.464310	97.000000
2880.762739	82.500000
2882.062503	85.700000
2883.360508	98.100000
2884.658302	83.900000
2885.954340	90.500000
2887.251711	90.900000
2888.547326	84.700000
2889.842730	96.700000
2891.137924	78.900000
2892.429819	63.600000
2893.724591	88.500000
2895.016066	72.700000
2896.308874	82.000000
2897.601472	94.800000
2898.890776	90.900000
2900.181412	79.700000
2901.470297	93.900000
2902.760515	99.200000
2904.047440	90.800000
2905.335699	86.500000
2906.622207	99.200000
2907.908508	80.300000
2909.194600	84.600000
2910.478944	102.200000
2911.766160	91.500000
2913.048548	76.300000
2914.332269	84.200000
2915.614244	84.900000
2916.896012	76.000000
2918.176034	74.500000
2919.458926	78.600000
2920.740073	71.000000
2922.017938	87.600000
2923.298672	92.500000
2924.576125	89.400000
2925.853372	82.400000
2927.128878	99.200000
2928.407251	97.400000
2929.680809	96.300000
2930.957235	85.400000
2932.231920	79.300000
2933.504865	82.100000
2934.779140	79.000000
2936.051676	76.600000
2937.324008	109.500000
2938.593066	79.700000
2939.864990	79.800000
2941.135176	75.200000
2942.405159	94.400000
2943.674938	74.700000
2944.942980	84.900000
2946.209287	74.200000
2947.475391	92.300000
2948.742825	78.900000
2950.008525	66.900000
2951.274022	74.600000
2952.539317	85.200000
2953.801347	88.100000
2955.064708	82.700000
2956.327866	83.700000
2957.589293	81.100000
2958.852049	83.300000
2960.113074	69.100000
2961.372367	77.100000
2962.631461	80.600000
2963.890354	59.200000
2965.149047	69.600000
2966.407540	80.000000
2967.664304	72.600000
2968.920868	82.800000
2970.175705	77.700000
2971.431871	71.800000
2972.684781	82.100000
2973.939021	80.300000
2975.193062	73.000000
2976.445377	90.900000
2977.697494	79.500000
2978.947886	68.800000
2980.201133	69.300000
2981.449603	83.900000
2982.700927	61.100000
2983.949003	90.000000
2985.196881	80.600000
2986.444562	77.700000
2987.692047	82.400000
2988.937810	74.100000
2990.183376	97.500000
2991.430270	81.200000
2992.673920	63.300000
2993.918898	80.900000
2995.160633	80.400000
2996.405218	81.100000
2997.648085	63.900000
2998.887711	63.700000
3000.130187	80.300000
3001.369424	75.100000
3002.609988	77.800000
3003.848835	80.300000
3005.087488	79.000000
3006.324425	55.900000
3007.562689	77.800000
3008.799239	76.500000
3010.035594	59.300000
3011.271756	79.600000
3012.506205	73.500000
3013.740460	65.900000
3014.974522	72.200000
3016.206872	83.800000
3017.437510	60.200000
3018.670994	69.100000
3019.902766	67.200000
3021.132828	87.700000
3022.362698	79.400000
3023.590858	90.300000
3024.820344	63.200000
3026.048122	71.800000
3027.275708	89.800000
3028.504620	67.900000
3029.728790	64.100000
3030.955803	59.900000
3032.179592	77.500000
3033.404708	63.800000
3034.628117	70.300000
3035.851337	72.000000
3037.072851	55.400000
3038.297206	78.700000
3039.516826	49.800000
3040.737771	71.300000
3041.958528	59.600000
3043.177581	64.600000
3044.397960	61.500000
3045.615122	87.000000
3046.833609	67.400000
3048.050394	70.200000
3049.266992	78.500000
3050.483401	68.000000
3051.696598	73.700000
3052.912632	83.900000
3054.125454	75.300000
3055.341113	87.600000
3056.552049	63.100000
3057.764310	90.000000
3058.976385	62.600000
3060.188273	64.400000
3061.398463	63.400000
3062.608467	78.600000
3063.818286	47.800000
3065.026408	63.500000
3066.234344	87.600000
3067.440586	59.600000
3068.648151	69.100000
3069.854023	72.450000
3071.059709	75.800000
3072.265210	79.500000
3073.469018	56.000000
3074.674150	75.200000
3075.877590	65.100000
3077.079337	52.900000
3078.280901	36.100000
3079.482281	64.100000
3080.683477	74.700000
3081.882983	80.200000
3083.082305	60.400000
3084.282951	65.800000
3085.481907	77.800000
3086.677669	58.000000
3087.876260	70.800000
3089.071657	67.100000
3090.268377	59.400000
3091.461905	71.600000
3092.658261	49.600000
3093.852931	68.900000
3095.044410	65.600000
3096.240220	46.000000
3097.431337	62.600000
3098.623776	79.500000
3099.813028	51.500000
3101.005106	48.100000
3102.195499	65.000000
3103.382707	62.400000
3104.571238	69.100000
3105.761091	59.700000
3106.947759	54.000000
3108.134248	69.000000
3109.320557	59.500000
3110.508188	53.800000
3111.692638	66.000000
3112.875407	43.700000
3114.061000	55.200000
3115.244912	60.400000
3116.427146	67.200000
3117.609201	62.700000
3118.791079	66.900000
3119.972778	66.400000
3121.152799	76.600000
3122.331144	72.100000
3123.512310	55.700000
3124.690300	68.400000
3125.868113	71.300000
3127.045749	73.800000
3128.221710	64.300000
3129.397494	57.200000
3130.574600	74.200000
3131.750031	40.600000
3132.923789	66.400000
3134.095875	51.000000
3135.269281	59.600000
3136.442512	66.500000
3137.614070	56.000000
3138.786950	66.100000
3139.956662	68.000000
3141.127695	66.500000
3142.297057	68.300000
3143.464750	50.400000
3144.635258	64.300000
3145.801107	77.300000
3146.971266	65.900000
3148.136767	63.100000
3149.302095	69.300000
3150.467249	60.700000
3151.632229	41.400000
3152.798530	52.400000
3153.960177	66.300000
3155.123145	62.800000
3156.285939	47.800000
3157.448561	68.800000
3158.609518	76.400000
3159.770302	61.500000
3160.930914	63.200000
3162.089863	60.600000
3163.248639	72.000000
3164.407244	64.400000
3165.565677	62.300000
3166.723938	48.000000
3167.880537	77.200000
3169.035475	45.700000
3170.191732	65.600000
3171.346329	49.100000
3172.500754	41.100000
3173.653520	62.500000
3174.806116	49.800000
3175.958541	52.900000
3177.110797	50.300000
3178.262883	70.800000
3179.411822	53.400000
3180.563568	59.300000
3181.713656	51.000000
3182.862088	61.000000
3184.010351	70.800000
3185.158444	50.800000
3186.306369	53.000000
3187.452639	74.100000
3188.598740	55.900000
3189.743186	57.100000
3190.887465	55.700000
3192.031576	48.900000
3193.177005	58.000000
3194.319294	54.900000
3195.461417	54.600000
3196.603372	44.600000
3197.745161	50.200000
3198.886782	67.800000
3200.025267	51.300000
3201.165070	61.500000
3202.306191	69.200000
3203.444177	62.100000
3204.580514	56.100000
3205.716685	75.100000
3206.854174	43.600000
3207.990013	62.900000
3209.127170	66.700000
3210.259714	75.100000
3211.396540	58.800000
3212.528754	54.200000
3213.662286	58.100000
3214.795652	63.600000
3215.925891	60.600000
3217.058928	54.900000
3218.188839	53.900000
3219.320067	68.300000
3220.448169	33.700000
3221.579068	68.700000
3222.708324	77.700000
3223.835935	56.900000
3224.960425	77.500000
3226.089190	82.400000
3227.214833	53.000000
3228.340313	82.500000
3229.464152	77.200000
3230.590785	62.600000
3231.712821	76.900000
3232.836173	78.700000
3233.959363	80.400000
3235.082391	101.400000
3236.203779	102.900000
3237.325006	98.400000
3238.444594	95.000000
3239.564021	87.100000
3240.681810	99.000000
3241.802392	95.900000
3242.919859	113.500000
3244.037167	98.800000
3245.154313	96.600000
3246.269824	106.100000
3247.386650	89.600000
3248.500365	84.500000
3249.616870	79.800000
3250.731741	79.400000
3251.843503	67.500000
3252.955106	61.900000
3254.068023	71.000000
3255.180782	68.900000
3256.290434	51.000000
3257.401400	44.800000
3258.512208	64.000000
3259.621385	48.600000
3260.728930	60.400000
3261.837790	64.300000
3262.946491	59.200000
3264.052090	66.700000
3265.159003	49.600000
3266.264288	58.000000
3267.370886	53.000000
3268.474384	59.300000
3269.579196	62.900000
3270.683851	61.500000
3271.785407	49.400000
3272.886808	47.800000
3273.989522	69.500000
3275.092079	48.700000
3276.191540	53.200000
3277.293785	59.200000
3278.392934	55.400000
3279.490459	65.500000
3280.587828	51.900000
3281.687980	55.500000
3282.785038	57.500000
3283.881941	73.300000
3284.978689	45.800000
3286.070879	51.800000
3287.167317	64.200000
3288.262134	52.600000
3289.356795	53.700000
3290.449835	46.100000
3291.542721	45.500000
3292.633986	48.200000
3293.726564	57.900000
3294.817521	50.400000
3295.906859	59.300000
3296.996044	47.000000
3298.086542	49.800000
3299.173955	56.200000
3300.261216	55.000000
3301.349789	43.600000
3302.438209	46.700000
3303.522082	56.800000
3304.610197	49.700000
3305.695231	41.800000
3306.778648	52.800000
3307.863378	63.900000
3308.946493	44.900000
3310.030919	54.200000
3311.112267	55.900000
3312.194927	39.100000
3313.275973	48.500000
3314.356868	40.400000
3315.436150	55.700000
3316.515281	46.200000
3317.595723	42.200000
3318.673092	62.400000
3319.751771	46.500000
3320.828840	53.000000
3321.905758	47.600000
3322.981065	37.000000
3324.056223	67.000000
3325.132692	37.500000
3326.206091	41.700000
3327.279341	42.100000
3328.353902	36.700000
3329.426853	50.000000
3330.498197	40.000000
3331.570851	43.700000
3332.640438	60.500000
3333.711336	50.100000
3334.780627	57.000000
3335.851229	63.900000
3336.920224	56.900000
3337.987613	59.400000
3339.053397	61.000000
3340.123407	51.400000
3341.190354	43.000000
3342.254239	40.000000
3343.320892	48.900000
3344.385940	39.900000
3345.449385	54.000000
3346.512684	42.000000
3347.575836	40.200000
3348.638842	42.400000
3349.701702	59.900000
3350.762960	43.600000
3351.821161	45.600000
3352.883583	38.800000
3353.942948	44.700000
3355.002168	53.300000
3356.062698	34.100000
3357.118718	51.800000
3358.177503	49.100000
3359.231780	54.300000
3360.288820	47.000000
3361.344263	41.700000
3362.401014	44.900000
3363.456168	44.400000
3364.509724	41.000000
3365.561683	48.900000
3366.616404	40.700000
3367.668076	46.200000
3368.719605	39.000000
3369.772443	50.800000
3370.822233	44.100000
3371.873331	52.300000
3372.921384	29.300000
3373.972197	43.900000
3375.019964	32.000000
3376.067589	51.000000
3377.115071	53.900000
3378.160961	42.000000
3379.208159	56.700000
3380.252315	53.800000
3381.299229	43.200000
3382.344551	36.900000
3383.386833	51.000000
3384.428973	39.700000
3385.472421	35.800000
3386.515729	45.300000
3387.557446	27.500000
3388.599022	44.300000
3389.640458	55.500000
3390.680304	34.900000
3391.718563	42.500000
3392.758129	48.800000
3393.797554	46.300000
3394.835392	44.600000
3395.871643	42.500000
3396.907755	61.500000
3397.945174	48.300000
3398.979560	42.000000
3400.015253	29.800000
3401.050807	58.100000
3402.083330	64.100000
3403.118606	36.400000
3404.150851	56.200000
3405.182958	61.500000
3406.213481	41.200000
3407.245312	43.200000
3408.277003	51.100000
3409.305668	44.600000
3410.334194	41.200000
3411.364028	22.800000
3412.393723	44.800000
3413.420393	46.300000
3414.448370	46.600000
3415.473322	54.000000
3416.501024	41.600000
3417.525703	37.000000
3418.551688	43.700000
3419.576093	57.900000
3420.600362	51.300000
3421.623052	55.000000
3422.645606	42.900000
3423.669466	39.100000
3424.690306	53.900000
3425.711011	38.100000
3426.733021	48.700000
3427.752013	50.500000
3428.770870	43.000000
3429.791032	37.100000
3430.808178	40.800000
