-118.448435	-6.400000
-115.778835	13.500000
-113.112170	11.100000
-110.446257	-6.500000
-107.783276	-2.500000
-105.118866	3.600000
-102.457386	3.000000
-99.794476	6.000000
-97.136674	-1.900000
-94.477441	10.100000
-91.818958	2.900000
-89.163398	5.800000
-86.506410	7.300000
-83.854519	13.800000
-81.201199	8.800000
-78.550799	10.600000
-75.898969	2.100000
-73.252230	5.400000
-70.604061	6.500000
-67.956636	11.900000
-65.312124	13.400000
-62.666184	6.600000
-60.025325	26.100000
-57.383037	-6.500000
-54.743657	10.000000
-52.102849	21.300000
-49.462781	-18.000000
-46.827785	8.100000
-44.191360	9.700000
-41.557839	-0.100000
-38.922889	2.700000
-36.293004	5.900000
-33.659527	4.900000
-31.031112	5.100000
-28.403430	18.600000
-25.774321	10.900000
-23.150268	19.200000
-20.522626	5.500000
-17.900037	19.500000
-15.278180	38.800000
-12.657053	48.900000
-10.036656	91.800000
-7.419147	274.600000
-4.800210	816.500000
-2.184159	2159.800000
0.431164	4417.300000
3.045760	2248.400000
5.657473	339.200000
8.270615	50.300000
10.878723	31.300000
13.490413	12.200000
16.097072	13.700000
18.705159	3.800000
21.312522	11.200000
23.914860	1.800000
26.520776	14.200000
29.121670	14.900000
31.723992	-8.800000
34.321297	5.700000
36.922177	3.700000
39.518043	16.000000
42.115336	9.200000
44.711910	12.600000
47.303475	6.700000
49.896468	9.600000
52.486600	-6.800000
55.078160	-5.000000
57.666860	13.500000
60.256987	1.100000
62.842116	10.400000
65.428671	11.000000
68.014513	11.300000
70.597501	14.200000
73.181915	16.200000
75.759201	-4.700000
78.340053	16.000000
80.918056	-4.700000
83.495349	19.600000
86.074068	4.900000
88.647806	3.800000
91.222970	12.500000
93.795291	11.400000
96.366904	-11.200000
98.935677	17.700000
101.505877	11.500000
104.073239	6.300000
106.642026	6.200000
109.207977	-0.400000
111.771093	15.100000
114.337765	30.300000
116.895216	10.500000
119.458352	23.400000
122.016529	12.500000
124.578259	39.200000
127.135034	50.600000
129.693234	58.400000
132.246482	93.000000
134.799031	127.000000
137.355131	178.900000
139.906284	241.100000
142.456738	303.900000
145.006496	353.700000
147.553434	394.500000
150.099676	418.100000
152.647344	427.400000
155.194317	423.400000
157.736353	410.500000
160.277696	415.900000
162.818346	395.900000
165.360422	418.900000
167.899687	396.400000
170.436142	421.900000
172.971907	401.700000
175.509097	395.300000
178.045595	407.800000
180.579288	407.500000
183.110178	397.200000
185.640379	398.300000
188.172005	412.800000
190.700830	402.600000
193.226856	381.100000
195.752197	402.300000
198.278962	390.900000
200.802930	391.200000
203.326214	392.600000
205.848813	394.600000
208.368619	383.100000
210.887742	392.900000
213.406182	386.400000
215.926046	379.500000
218.438909	399.500000
220.955303	399.000000
223.471015	393.900000
225.981838	411.000000
228.494085	407.200000
231.003549	415.300000
233.512335	416.700000
236.020443	434.800000
238.529974	438.700000
241.034625	428.900000
243.538601	438.500000
246.044000	434.600000
248.544524	440.200000
251.048571	418.700000
253.545648	433.100000
256.046247	423.700000
258.544075	431.100000
261.041230	431.900000
263.537712	432.500000
266.029331	415.900000
268.524470	399.200000
271.016843	425.000000
273.508545	415.000000
275.997483	425.000000
278.487846	433.400000
280.975447	397.500000
283.460288	429.800000
285.948643	412.200000
288.430059	440.700000
290.914989	438.800000
293.395074	423.600000
295.878671	466.000000
298.357425	448.300000
300.837603	474.300000
303.315028	496.300000
305.791790	486.200000
308.267889	447.500000
310.741239	452.700000
313.213927	443.200000
315.685954	457.200000
318.157320	420.000000
320.625942	463.000000
323.093904	433.100000
325.563289	430.700000
328.027850	414.100000
330.495916	408.600000
332.959162	407.200000
335.421750	406.100000
337.883682	401.000000
340.344957	385.800000
342.803498	383.800000
345.263461	365.400000
347.720691	374.600000
350.177267	387.100000
352.633189	384.700000
355.086382	383.100000
357.540996	352.500000
359.990809	344.500000
362.444119	359.400000
364.892629	358.400000
367.340489	333.600000
369.789770	347.100000
372.234258	332.300000
374.680168	336.000000
377.125429	332.300000
379.567970	335.700000
382.009864	333.100000
384.451111	324.300000
386.889642	303.300000
389.329595	322.800000
391.766834	335.600000
394.201361	319.200000
396.639376	312.900000
399.072614	341.000000
401.507274	319.400000
403.937160	302.700000
406.370532	311.900000
408.799134	327.700000
411.227095	324.000000
413.656476	312.600000
416.081092	300.100000
418.507130	307.500000
420.932527	299.100000
423.357284	303.500000
425.777283	305.700000
428.198703	299.600000
430.617426	304.800000
433.037570	299.400000
435.455019	283.700000
437.873888	286.800000
440.290064	259.200000
442.701493	276.100000
445.116398	255.500000
447.528613	249.700000
449.940194	250.100000
452.351141	230.800000
454.759402	237.600000
457.167030	244.600000
459.574027	225.900000
461.980391	230.100000
464.384073	235.900000
466.787125	227.900000
469.189547	244.000000
471.591340	230.100000
473.990454	240.300000
476.390988	226.600000
478.790893	231.800000
481.186075	235.700000
483.584724	255.300000
485.978653	251.900000
488.371956	260.100000
490.764633	271.800000
493.156685	325.600000
495.550156	333.200000
497.938914	368.100000
500.325006	439.300000
502.712518	530.400000
505.099406	717.500000
507.483631	983.700000
509.869275	1378.700000
512.252256	1914.500000
514.632577	2649.700000
517.014317	3276.700000
519.393398	3404.600000
521.773898	3182.300000
524.151740	2653.800000
526.526927	2209.400000
528.901496	1825.800000
531.277484	1520.500000
533.650818	1332.800000
536.025570	1169.700000
538.395637	1082.100000
540.765088	962.400000
543.135957	894.700000
545.502146	815.300000
547.869753	725.100000
550.234714	707.100000
552.599062	684.900000
554.962798	633.400000
557.327951	606.800000
559.688431	578.600000
562.050330	578.100000
564.409589	538.800000
566.766209	520.200000
569.126274	500.000000
571.479649	482.500000
573.836468	474.800000
576.190651	467.300000
578.544227	431.800000
580.897194	435.900000
583.247530	413.500000
585.599282	412.600000
587.944358	410.300000
590.294898	407.000000
592.638765	393.000000
594.988092	378.600000
597.332772	372.800000
599.674826	389.700000
602.018298	376.200000
604.359147	345.400000
606.699394	370.300000
609.037020	363.900000
611.378081	403.700000
613.714504	413.900000
616.052345	420.000000
618.387567	428.600000
620.720174	419.500000
623.054197	402.300000
625.385607	382.200000
627.716418	365.700000
630.046631	357.100000
632.376246	349.900000
634.701239	344.800000
637.031673	347.800000
639.357485	348.600000
641.680691	344.700000
644.005312	346.400000
646.327329	340.100000
648.648751	332.800000
650.967570	328.700000
653.287805	327.200000
655.607447	327.600000
657.924488	327.800000
660.240937	301.900000
662.554788	308.300000
664.870055	312.800000
667.182725	308.300000
669.496810	308.500000
671.806295	317.000000
674.117196	338.700000
676.425504	309.200000
678.733224	302.000000
681.042359	311.400000
683.346901	311.900000
685.650856	309.900000
687.954226	298.900000
690.259010	272.900000
692.559208	291.500000
694.860820	277.600000
697.161848	296.100000
699.458293	261.100000
701.756154	270.100000
704.053431	250.100000
706.350125	267.200000
708.642243	275.700000
710.937772	275.700000
713.228728	273.900000
715.521098	260.800000
717.810892	246.200000
720.100107	256.400000
722.388741	271.400000
724.674804	263.200000
726.962280	279.700000
729.247186	271.000000
731.531513	281.700000
733.813272	267.500000
736.096445	252.700000
738.379041	263.500000
740.657082	260.600000
742.936536	260.400000
745.215415	255.900000
747.493718	249.400000
749.767472	250.000000
752.042640	250.100000
754.317234	245.600000
756.589268	249.100000
758.862716	264.000000
761.133606	250.000000
763.401940	249.700000
765.671687	233.900000
767.938880	261.700000
770.205502	240.100000
772.471555	263.000000
774.735055	242.400000
776.999969	235.100000
779.264313	261.200000
781.524128	231.500000
783.785356	262.000000
786.046015	229.700000
788.304129	242.000000
790.559698	250.700000
792.818658	240.700000
795.071119	261.200000
797.328947	238.000000
799.582255	252.200000
801.833024	266.400000
804.085205	240.000000
806.334848	266.300000
808.585902	241.100000
810.832445	249.600000
813.080400	246.600000
815.325821	240.900000
817.572653	256.900000
819.818924	254.800000
822.060691	251.900000
824.305840	211.500000
826.544517	227.000000
828.786577	219.400000
831.024138	225.100000
833.263110	233.700000
835.499556	230.100000
837.737413	240.100000
839.972745	215.500000
842.205554	205.000000
844.439774	227.000000
846.671472	229.900000
848.902615	224.100000
851.133203	229.000000
853.363236	225.800000
855.592716	222.500000
857.817714	224.300000
860.046087	222.600000
862.269981	229.500000
864.495285	234.800000
866.716114	221.700000
868.940315	240.200000
871.160043	233.000000
873.381182	220.600000
875.601770	219.800000
877.819848	210.500000
880.039337	219.800000
882.254359	218.700000
884.468833	223.300000
886.682760	229.200000
888.896139	229.600000
891.108971	206.500000
893.321257	224.700000
895.531040	225.400000
897.740278	229.300000
899.948971	228.800000
902.155165	224.900000
904.362768	231.600000
906.567874	233.100000
908.772436	223.000000
910.974502	232.600000
913.177978	242.900000
915.378960	236.700000
917.579401	245.500000
919.781249	225.600000
921.976707	253.100000
924.175524	263.200000
926.369902	277.700000
928.567638	310.800000
930.760938	346.300000
932.955647	375.200000
935.147870	418.200000
937.339555	448.100000
939.530702	475.400000
941.719366	470.900000
943.907493	491.400000
946.093140	471.400000
948.282139	494.100000
950.466715	494.100000
952.650756	483.700000
954.838147	462.100000
957.017234	463.100000
959.199672	476.800000
961.381576	487.000000
963.561006	496.100000
965.737963	491.300000
967.916327	489.300000
970.096099	510.400000
972.269522	520.100000
974.446291	504.500000
976.618653	500.500000
978.792423	484.700000
980.961789	487.500000
983.134500	491.000000
985.304744	468.400000
987.474460	418.400000
989.643647	383.700000
991.808437	358.500000
993.976568	329.200000
996.140305	306.800000
998.305448	296.500000
1000.468133	290.100000
1002.630291	281.000000
1004.789993	272.400000
1006.949171	280.900000
1009.109755	279.900000
1011.267884	242.000000
1013.425489	253.300000
1015.582571	236.900000
1017.739130	243.700000
1019.891309	238.000000
1022.044894	248.600000
1024.197958	216.700000
1026.348574	214.000000
1028.500595	204.800000
1030.648243	223.100000
1032.799223	205.300000
1034.945832	220.100000
1037.091923	210.300000
1039.237494	189.700000
1041.384471	200.000000
1043.525159	182.100000
1045.669177	186.800000
1047.810754	210.500000
1049.951815	186.800000
1052.094280	200.500000
1054.230466	207.000000
1056.369978	179.900000
1058.505134	191.200000
1060.643615	209.200000
1062.777742	195.600000
1064.911356	202.700000
1067.046375	194.700000
1069.177044	209.700000
1071.309118	208.800000
1073.438763	200.000000
1075.567896	202.800000
1077.696517	192.600000
1079.824627	207.500000
1081.950311	194.500000
1084.075485	196.600000
1086.202063	201.800000
1088.324304	194.900000
1090.447948	202.600000
1092.567259	192.100000
1094.691798	188.500000
1096.810092	192.900000
1098.929791	187.300000
1101.047071	182.900000
1103.163845	202.900000
1105.280112	192.900000
1107.393964	179.200000
1109.509219	176.700000
1111.620152	182.900000
1113.734396	178.900000
1115.844320	202.300000
1117.955648	182.900000
1120.066471	186.300000
1122.172979	184.500000
1124.282795	191.800000
1126.388297	183.300000
1128.495202	187.900000
1130.595892	160.200000
1132.701794	184.100000
1134.803387	178.200000
1136.906383	190.000000
1139.008878	177.500000
1141.105166	164.400000
1143.206662	168.300000
1145.303855	157.000000
1147.400549	168.000000
1149.496745	168.400000
1151.592444	171.400000
1153.687645	158.100000
1155.780449	161.800000
1157.874655	174.400000
1159.962670	166.700000
1162.055883	176.800000
1164.142908	174.200000
1166.233232	176.400000
1168.319269	180.400000
1170.408603	177.700000
1172.491756	178.400000
1174.576311	183.200000
1176.662268	182.200000
1178.743943	193.600000
1180.827020	186.700000
1182.907711	190.600000
1184.987910	182.000000
1187.067618	184.600000
1189.146835	186.900000
1191.223670	177.100000
1193.298124	191.600000
1195.375870	208.700000
1197.449345	174.800000
1199.524221	182.100000
1201.594830	179.400000
1203.666841	198.000000
1205.736475	196.000000
1207.807510	166.800000
1209.878057	175.000000
1211.944343	163.900000
1214.012030	169.400000
1216.077345	168.700000
1218.144060	171.200000
1220.206519	183.400000
1222.272263	158.500000
1224.333754	158.200000
1226.396644	163.500000
1228.457167	162.000000
1230.517206	170.000000
1232.576763	169.300000
1234.633954	174.900000
1236.690664	167.500000
1238.745011	168.800000
1240.802638	193.800000
1242.857903	181.900000
1244.908927	170.900000
1246.961351	176.900000
1249.013295	194.800000
1251.062881	173.700000
1253.111988	175.600000
1255.160617	183.200000
1257.208767	182.900000
1259.256439	168.800000
1261.299880	182.300000
1263.346596	188.700000
1265.390959	194.600000
1267.434846	177.400000
1269.476382	194.400000
1271.515567	178.300000
1273.558026	203.500000
1275.596262	191.000000
1277.635897	177.200000
1279.675057	180.700000
1281.709998	197.300000
1283.746339	179.700000
1285.780334	207.300000
1287.815728	180.400000
1289.846908	192.100000
1291.879487	191.100000
1293.911593	188.500000
1295.941359	163.400000
1297.972523	181.500000
1299.999479	191.600000
1302.027833	188.400000
1304.051983	175.200000
1306.079397	166.100000
1308.102609	175.200000
1310.127219	191.600000
1312.149495	185.900000
1314.173168	167.900000
1316.194508	171.100000
1318.215380	165.900000
1320.235786	180.200000
1322.251997	173.900000
1324.269606	168.800000
1326.284888	167.100000
1328.303427	194.500000
1330.317778	165.000000
1332.329803	164.300000
1334.345085	174.200000
1336.356182	179.400000
1338.368676	159.300000
1340.376987	181.100000
1342.388554	204.000000
1344.394081	171.100000
1346.402864	176.600000
1348.407469	157.300000
1350.415328	184.300000
1352.422725	172.800000
1354.424091	173.400000
1356.426854	157.400000
1358.429156	161.700000
1360.430999	168.700000
1362.432382	158.400000
1364.431452	164.300000
1366.430063	174.000000
1368.428216	162.700000
1370.425911	164.300000
1372.419442	144.800000
1374.414370	177.600000
1376.408841	173.400000
1378.402855	168.100000
1380.394561	178.400000
1382.385813	156.200000
1384.374759	164.500000
1386.365100	170.800000
1388.354986	163.200000
1390.342569	171.700000
1392.329697	164.500000
1394.314525	170.600000
1396.300746	170.200000
1398.284668	155.500000
1400.268137	146.900000
1402.251154	157.500000
1404.231872	155.300000
1406.213986	172.000000
1408.193802	151.800000
1410.173168	160.900000
1412.148394	169.100000
1414.126860	168.800000
1416.103031	154.200000
1418.078754	149.300000
1420.054027	144.700000
1422.027009	163.700000
1423.999543	145.000000
1425.971630	150.600000
1427.943268	151.200000
1429.910778	176.800000
1431.883363	145.800000
1433.848141	159.600000
1435.817991	146.300000
1437.783718	152.400000
1439.750837	140.900000
1441.715673	170.800000
1443.676390	163.300000
1445.642174	167.700000
1447.602003	163.000000
1449.563225	160.900000
1451.525840	162.900000
1453.484340	162.400000
1455.442398	156.500000
1457.400013	179.000000
1459.357187	187.300000
1461.312085	188.600000
1463.268375	172.100000
1465.222391	165.100000
1467.175967	174.300000
1469.127270	146.900000
1471.079965	177.300000
1473.030389	163.600000
1474.980373	149.200000
1476.929919	164.600000
1478.877196	180.900000
1480.822206	163.400000
1482.768607	161.500000
1484.714572	162.100000
1486.660098	166.700000
1488.603360	162.200000
1490.546185	146.000000
1492.486747	141.200000
1494.428700	163.200000
1496.368392	160.600000
1498.307648	158.200000
1500.246469	155.900000
1502.183031	154.500000
1504.120984	127.900000
1506.056679	141.100000
1507.991939	159.000000
1509.924944	139.700000
1511.857516	171.600000
1513.789656	171.400000
1515.721364	166.500000
1517.650818	170.900000
1519.581663	166.700000
1521.512077	171.500000
1523.438417	138.800000
1525.366149	148.500000
1527.291630	166.800000
1529.216682	157.100000
1531.141305	178.300000
1533.065499	152.900000
1534.987446	171.300000
1536.910782	165.600000
1538.831873	171.000000
1540.750719	183.000000
1542.670955	178.900000
1544.588947	177.500000
1546.506513	163.300000
1548.421837	162.200000
1550.338551	193.300000
1552.251210	175.200000
1554.167073	175.300000
1556.080696	191.000000
1557.992082	183.400000
1559.904856	174.700000
1561.813581	185.700000
1563.723696	187.400000
1565.633387	198.300000
1567.542654	207.600000
1569.449688	216.300000
1571.354489	234.300000
1573.260679	255.200000
1575.164637	262.700000
1577.068175	311.000000
1578.971291	339.500000
1580.872179	385.500000
1582.774454	423.100000
1584.674502	483.700000
1586.575937	500.700000
1588.473339	490.900000
1590.370322	412.700000
1592.266887	352.000000
1594.164840	291.900000
1596.056958	248.700000
1597.952269	205.500000
1599.847163	222.000000
1601.739835	187.600000
1603.632091	191.900000
1605.522126	184.000000
1607.411747	178.800000
1609.300951	186.500000
1611.189741	169.900000
1613.076314	175.600000
1614.964273	160.600000
1616.848216	180.200000
1618.733547	168.700000
1620.618463	167.700000
1622.501166	166.800000
1624.385256	162.100000
1626.265335	142.400000
1628.146800	154.400000
1630.026055	147.000000
1631.906696	155.000000
1633.781533	151.900000
1635.661352	161.600000
1637.537165	152.000000
1639.412568	150.500000
1641.289358	139.100000
1643.160350	145.700000
1645.034524	148.600000
1646.904700	145.000000
1648.778056	152.800000
1650.649209	132.400000
1652.518160	156.300000
1654.388497	152.200000
1656.254840	149.900000
1658.122569	137.500000
1659.988100	151.500000
1661.855015	137.100000
1663.717942	142.600000
1665.582254	134.200000
1667.444370	151.900000
1669.306082	128.800000
1671.169178	159.700000
1673.030080	150.000000
1674.888788	139.700000
1676.747093	136.600000
1678.606783	139.800000
1680.460706	143.200000
1682.317801	144.100000
1684.174494	129.500000
1686.027211	126.900000
1687.883098	130.300000
1689.735012	148.100000
1691.586525	115.800000
1693.437637	129.300000
1695.288349	141.400000
1697.138660	142.500000
1698.986787	121.000000
1700.836297	121.300000
1702.680059	134.000000
1704.528770	124.100000
1706.371736	132.100000
1708.217867	126.200000
1710.060037	125.400000
1711.905371	135.500000
1713.744965	135.500000
1715.585943	119.500000
1717.428304	142.700000
1719.266709	108.600000
1721.106497	123.300000
1722.944110	130.300000
1724.781327	124.900000
1726.616371	119.900000
1728.452798	131.400000
1730.287053	130.400000
1732.120913	111.700000
1733.954380	132.400000
1735.783900	110.300000
1737.616579	118.100000
1739.445314	141.900000
1741.277207	125.500000
1743.105157	134.300000
1744.932715	126.700000
1746.759881	115.800000
1748.586656	111.000000
1750.413040	106.700000
1752.235487	131.600000
1754.061088	126.500000
1755.882755	126.500000
1757.705804	114.400000
1759.526692	106.900000
1761.347190	126.400000
1763.169070	119.000000
1764.985250	117.900000
1766.804582	115.200000
1768.619987	109.300000
1770.438542	108.100000
1772.253172	115.400000
1774.067416	114.200000
1775.881272	124.700000
1777.694742	105.800000
1779.506059	113.900000
1781.318757	117.800000
1783.131068	120.800000
1784.939462	109.400000
1786.749237	114.100000
1788.555096	128.300000
1790.364101	122.000000
1792.169193	119.800000
1793.975666	132.300000
1795.781755	109.400000
1797.583934	114.200000
1799.389256	115.600000
1801.190670	98.100000
1802.993464	100.600000
1804.792352	123.400000
1806.592621	130.800000
1808.392508	111.700000
1810.190254	92.400000
1811.987618	120.000000
1813.784603	131.500000
1815.581207	116.600000
1817.375672	117.800000
1819.171516	105.700000
1820.961706	105.300000
1822.756792	136.400000
1824.546225	122.100000
1826.338795	102.100000
1828.129230	112.700000
1829.917531	116.400000
1831.708967	123.300000
1833.494757	132.600000
1835.281927	121.200000
1837.066965	115.200000
1838.855137	108.100000
1840.639423	122.100000
1842.421580	114.400000
1844.205115	115.200000
1845.986522	134.900000
1847.769308	127.700000
1849.548214	107.800000
1851.328498	126.600000
1853.106656	110.000000
1854.886193	106.000000
1856.663605	128.200000
1858.438893	117.400000
1860.215560	130.500000
1861.990103	122.000000
1863.766025	119.000000
1865.536326	110.200000
1867.309755	111.500000
1869.081064	127.300000
1870.852003	116.600000
1872.624318	127.300000
1874.391020	122.600000
1876.160848	129.300000
1877.926812	142.700000
1879.695900	138.500000
1881.461126	130.600000
1883.225983	120.100000
1884.992218	131.800000
1886.754594	128.300000
1888.516603	125.200000
1890.278244	108.100000
1892.039519	136.100000
1893.800426	137.000000
1895.560967	132.200000
1897.319398	124.200000
1899.077464	123.500000
1900.833421	122.000000
1902.590756	123.000000
1904.347724	120.500000
1906.102587	130.700000
1907.855344	117.500000
1909.607738	112.800000
1911.361507	115.600000
1913.113173	111.300000
1914.862737	117.900000
1916.613677	119.600000
1918.364253	110.100000
1920.110990	122.300000
1921.859104	91.800000
1923.605118	112.500000
1925.352508	105.100000
1927.097799	103.100000
1928.840993	127.900000
1930.585563	103.400000
1932.328036	100.600000
1934.070149	103.300000
1935.811902	115.300000
1937.553296	111.500000
1939.292596	100.600000
1941.031536	91.800000
1942.770119	118.600000
1944.506609	109.100000
1946.242742	116.200000
1947.980249	123.300000
1949.713934	113.100000
1951.448994	98.600000
1953.181966	110.900000
1954.914581	117.400000
1956.646839	84.200000
1958.378741	110.600000
1960.108557	101.600000
1961.836289	103.800000
1963.565394	115.400000
1965.294145	118.300000
1967.020812	120.000000
1968.747125	97.500000
1970.474811	102.300000
1972.196961	121.600000
1973.922212	107.700000
1975.643657	100.500000
1977.368201	106.300000
1979.090666	108.100000
1980.809327	124.100000
1982.531087	106.700000
1984.249045	110.500000
1985.968376	105.500000
1987.683908	105.400000
1989.404261	123.500000
1991.120814	109.600000
1992.833571	111.300000
1994.549425	118.800000
1996.263205	120.500000
1997.976636	117.400000
1999.687996	106.600000
2001.400729	98.200000
2003.109670	111.500000
2004.821705	98.800000
2006.528230	117.700000
2008.237848	97.600000
2009.945398	103.000000
2011.652601	107.400000
2013.357738	99.400000
2015.062528	99.700000
2016.768690	122.800000
2018.471070	107.800000
2020.174822	109.200000
2021.876510	89.200000
2023.577854	94.800000
2025.278852	107.900000
2026.977790	107.800000
2028.678098	98.900000
2030.374632	89.500000
2032.072537	94.700000
2033.768383	93.100000
2035.467315	103.900000
2037.160761	98.800000
2038.855579	90.100000
2040.550053	108.700000
2042.240759	88.000000
2043.934549	96.300000
2045.624572	98.300000
2047.315966	101.400000
2049.005307	104.700000
2050.696018	100.800000
2052.382966	89.100000
2054.069575	113.600000
2055.757554	97.800000
2057.441773	113.700000
2059.127362	102.000000
2060.812612	95.400000
2062.495814	107.900000
2064.180385	101.600000
2065.859494	90.300000
2067.543388	94.200000
2069.221822	93.500000
2070.903332	77.800000
2072.581092	101.000000
2074.258514	119.900000
2075.937306	98.600000
2077.614056	105.400000
2079.288764	98.800000
2080.964841	105.400000
2082.638878	83.200000
2084.312579	108.000000
2085.985945	99.000000
2087.657273	85.900000
2089.328266	102.700000
2090.998925	105.500000
2092.669249	100.200000
2094.339240	94.000000
2096.007195	104.400000
2097.674817	105.200000
2099.340404	99.000000
2101.007361	102.000000
2102.672283	102.100000
2104.336874	103.100000
2105.999433	104.900000
2107.663360	120.100000
2109.325257	85.400000
2110.986822	111.400000
2112.648056	81.600000
2114.307262	120.600000
2115.966137	97.100000
2117.624683	100.000000
2119.282899	109.000000
2120.937391	90.600000
2122.594948	113.200000
2124.252176	93.100000
2125.905682	106.300000
2127.560556	109.700000
2129.211712	118.500000
2130.865929	90.900000
2132.516430	72.500000
2134.168297	100.600000
2135.814756	85.400000
2137.465970	100.400000
2139.113470	101.500000
2140.762337	108.500000
2142.409186	89.900000
2144.055708	90.800000
2145.701905	105.100000
2147.344394	115.900000
2148.989941	95.500000
2150.631781	102.800000
2152.276678	103.300000
2153.917870	89.600000
2155.558738	78.600000
2157.199282	93.700000
2158.837814	87.800000
2160.477712	91.500000
2162.113910	78.100000
2163.751475	75.500000
2165.388716	122.000000
2167.023948	89.000000
2168.658859	100.800000
2170.293448	98.700000
2171.927715	95.900000
2173.558289	99.300000
2175.191915	100.100000
2176.821849	113.300000
2178.453148	99.700000
2180.082442	99.300000
2181.711417	83.800000
2183.340073	117.200000
2184.968409	103.100000
2186.594742	90.500000
2188.220757	98.800000
2189.844771	101.100000
2191.470149	95.400000
2193.093528	93.000000
2194.718270	102.400000
2196.339332	96.300000
2197.960077	94.600000
2199.582187	87.700000
2201.202299	92.700000
2202.820414	103.100000
2204.438214	106.100000
2206.055699	121.300000
2207.672868	99.700000
2209.289722	106.900000
2210.906261	96.400000
2212.520806	99.800000
2214.133359	89.000000
2215.747276	101.200000
2217.359202	104.700000
2218.972491	100.500000
2220.583790	101.400000
2222.193099	90.100000
2223.803772	101.400000
2225.412456	104.400000
2227.020828	104.700000
2228.627212	89.000000
2230.234960	95.500000
2231.840721	96.500000
2233.446171	75.600000
2235.049636	92.100000
2236.654464	85.600000
2238.257309	70.500000
2239.858170	75.600000
2241.460393	97.000000
2243.060635	84.000000
2244.662239	90.800000
2246.260191	107.700000
2247.859505	101.300000
2249.456839	90.700000
2251.053864	106.400000
2252.652252	84.500000
2254.246991	110.100000
2255.839753	99.600000
2257.433878	111.800000
2259.029364	93.500000
2260.621206	81.200000
2262.212741	103.200000
2263.805637	111.400000
2265.393224	104.100000
2266.985508	101.400000
2268.572484	86.400000
2270.162489	98.800000
2271.747189	116.900000
2273.336583	104.300000
2274.920674	99.100000
2276.506127	98.800000
2278.089610	101.900000
2279.676120	76.400000
2281.258996	103.500000
2282.841568	81.100000
2284.423837	102.300000
2286.002477	98.100000
2287.584140	92.600000
2289.162175	92.800000
2290.743233	90.000000
2292.320665	83.300000
2293.896132	76.600000
2295.474622	104.000000
2297.049488	92.400000
2298.624053	70.100000
2300.198318	82.100000
2301.772282	98.200000
2303.345946	86.200000
2304.919309	76.700000
2306.489054	94.700000
2308.058500	69.900000
2309.630965	93.900000
2311.198154	87.100000
2312.768362	83.000000
2314.334955	93.900000
2315.902908	91.300000
2317.468905	83.200000
2319.034605	75.100000
2320.600008	81.400000
2322.163456	90.100000
2323.728264	108.300000
2325.289464	87.100000
2326.853678	97.100000
2328.412631	107.600000
2329.974597	103.400000
2331.534613	89.300000
2333.094333	75.100000
2334.652104	73.100000
2336.209580	84.400000
2337.766762	97.300000
2339.321997	90.200000
2340.876937	85.100000
2342.431584	100.300000
2343.985937	102.400000
2345.539996	102.400000
2347.093761	87.700000
2348.645583	93.200000
2350.195461	76.400000
2351.748347	92.000000
2353.295991	89.000000
2354.846642	106.300000
2356.393702	80.300000
2357.942121	73.400000
2359.490247	110.900000
2361.034785	78.000000
2362.580681	95.900000
2364.124639	109.500000
2365.669954	91.200000
2367.211684	96.100000
2368.754771	91.700000
2370.295923	108.300000
2371.836785	91.600000
2373.377358	86.300000
2374.917641	90.900000
2376.457636	78.400000
2377.994053	71.600000
2379.533471	98.100000
2381.069312	109.600000
2382.606509	97.600000
2384.140131	88.000000
2385.676754	68.700000
2387.211445	87.200000
2388.744207	113.700000
2390.276682	98.100000
2391.807230	77.800000
2393.340775	87.000000
2394.869109	94.500000
2396.398799	67.700000
2397.928204	91.400000
2399.457323	85.400000
2400.986158	96.600000
2402.509787	70.800000
2404.038053	89.900000
2405.561115	79.900000
2407.088811	96.200000
2408.609668	85.600000
2410.135158	91.600000
2411.657087	76.500000
2413.180372	109.200000
2414.701736	100.400000
2416.221180	77.200000
2417.741979	105.900000
2419.260859	98.700000
2420.779457	93.800000
2422.296138	106.700000
2423.814173	103.200000
2425.331927	99.600000
2426.846130	102.500000
2428.360052	88.000000
2429.873694	102.300000
2431.388691	93.800000
2432.900139	108.100000
2434.412942	96.900000
2435.923832	94.800000
2437.434442	90.500000
2438.943141	87.700000
2440.454827	96.200000
2441.962968	80.100000
2443.470832	100.500000
2444.978418	79.500000
2446.482463	107.600000
2447.989494	99.000000
2449.494616	94.700000
2450.999461	122.700000
2452.502399	120.900000
2454.005060	116.800000
2455.507445	127.400000
2457.007925	104.700000
2458.509758	118.000000
2460.009687	122.000000
2461.509340	121.800000
2463.008717	92.500000
2464.506192	99.900000
2466.001765	94.500000
2467.500319	111.400000
2468.995343	112.200000
2470.491721	95.600000
2471.984571	102.800000
2473.478775	98.600000
2474.972705	96.200000
2476.463112	95.200000
2477.956495	88.100000
2479.447981	84.900000
2480.937570	86.700000
2482.426887	79.200000
2483.914309	99.700000
2485.404706	91.100000
2486.891584	90.300000
2488.379814	100.700000
2489.864528	94.400000
2491.348971	81.800000
2492.834766	96.000000
2494.318668	93.300000
2495.803922	101.700000
2497.284042	100.700000
2498.767134	89.300000
2500.248336	90.700000
2501.729269	97.300000
2503.208313	99.900000
2504.687088	106.600000
2506.165595	88.000000
2507.643834	100.800000
2509.121804	78.200000
2510.596270	84.900000
2512.073704	103.900000
2513.547635	74.300000
2515.022916	77.700000
2516.497931	68.000000
2517.969444	114.600000
2519.442307	87.500000
2520.913288	87.800000
2522.385619	75.300000
2523.852837	91.300000
2525.323020	78.900000
2526.791323	99.500000
2528.259361	81.500000
2529.727134	93.300000
2531.194642	68.600000
2532.661885	88.400000
2534.125636	84.200000
2535.590737	98.200000
2537.053961	85.900000
2538.518535	67.900000
2539.979619	66.700000
2541.442053	75.200000
2542.904224	87.900000
2544.362909	81.300000
2545.826166	76.100000
2547.284326	88.200000
2548.743835	72.100000
2550.198251	72.300000
2551.657236	87.800000
2553.114350	94.600000
2554.569593	83.700000
2556.024575	79.600000
2557.477687	91.900000
2558.932148	83.000000
2560.384740	83.000000
2561.837072	85.400000
2563.287536	74.300000
2564.740956	96.100000
2566.189294	90.100000
2567.640588	93.600000
2569.090015	72.500000
2570.535970	71.700000
2571.984881	73.900000
2573.430320	85.700000
2574.877108	104.000000
2576.322032	88.400000
2577.766699	83.100000
2579.212713	91.500000
2580.655260	91.800000
2582.099155	82.800000
2583.539585	71.600000
2584.981362	86.500000
2586.421280	79.600000
2587.862545	97.400000
2589.300349	83.700000
2590.741102	91.100000
2592.176792	75.400000
2593.615432	95.300000
2595.052215	75.900000
2596.487141	91.700000
2597.925016	83.900000
2599.357832	82.300000
2600.791996	80.400000
2602.224306	84.600000
2603.657962	76.900000
2605.089765	63.600000
2606.521315	100.300000
2607.952611	86.900000
2609.382055	85.200000
2610.811248	78.900000
2612.238589	74.000000
2613.667277	75.900000
2615.095712	73.900000
2616.520700	86.100000
2617.947035	84.600000
2619.371521	103.200000
2620.797353	91.200000
2622.219741	90.300000
2623.643475	77.400000
2625.065362	105.800000
2626.487000	99.200000
2627.906792	100.900000
2629.327930	84.600000
2630.748818	80.600000
2632.166268	101.900000
2633.586657	107.900000
2635.003609	108.000000
2636.420313	105.200000
2637.836768	114.700000
2639.252975	117.200000
2640.668933	116.600000
2642.083051	117.200000
2643.496922	111.300000
2644.908953	134.100000
2646.322329	134.000000
2647.732275	140.900000
2649.145156	142.300000
2650.554610	146.100000
2651.963817	162.500000
2653.371187	181.700000
2654.781493	183.000000
2656.189962	190.000000
2657.596596	209.300000
2659.002985	212.700000
2660.407540	238.400000
2661.813439	272.200000
2663.217505	268.600000
2664.621326	290.100000
2666.024904	316.600000
2667.426649	341.100000
2668.829738	356.800000
2670.229409	375.600000
2671.630424	407.000000
2673.028023	425.300000
2674.428552	449.300000
2675.825666	453.900000
2677.224123	466.400000
2678.620752	478.400000
2680.017139	464.800000
2681.413285	446.500000
2682.807604	424.000000
2684.203266	433.200000
2685.595518	409.500000
2686.989114	385.500000
2688.380885	361.200000
2689.773998	359.100000
2691.165288	295.600000
2692.554755	280.300000
2693.943982	264.700000
2695.332970	227.300000
2696.723300	239.400000
2698.108645	228.500000
2699.496914	199.500000
2700.883363	188.000000
2702.269573	166.700000
2703.655545	153.300000
2705.038117	143.500000
2706.422032	130.900000
2707.805709	130.900000
2709.189148	142.300000
2710.569191	126.100000
2711.950576	119.900000
2713.330145	107.000000
2714.711056	107.800000
2716.090151	107.800000
2717.467433	89.900000
2718.846056	104.400000
2720.222866	120.400000
2721.599440	101.300000
2722.975778	87.300000
2724.350304	88.000000
2725.726171	92.900000
2727.098651	93.700000
2728.474047	95.800000
2729.844483	91.800000
2731.216260	76.800000
2732.587802	86.600000
2733.957536	74.000000
2735.328611	83.900000
2736.697877	94.000000
2738.066911	83.400000
2739.434137	95.400000
2740.801131	81.000000
2742.167892	88.200000
2743.534420	74.700000
2744.899143	97.100000
2746.263635	62.500000
2747.627894	78.900000
2748.991921	79.000000
2750.355717	76.200000
2751.716139	84.400000
2753.079472	77.700000
2754.437862	75.200000
2755.799162	70.000000
2757.157091	61.200000
2758.517930	55.800000
2759.876968	80.900000
2761.232638	62.500000
2762.591216	72.600000
2763.946428	96.200000
2765.301410	70.300000
2766.654595	62.200000
2768.010687	60.800000
2769.363415	82.900000
2770.715914	66.000000
2772.068185	91.800000
2773.421795	84.700000
2774.772043	76.900000
2776.120498	76.900000
2777.471857	83.600000
2778.819857	72.700000
2780.169196	79.900000
2781.516742	59.100000
2782.864061	67.100000
2784.211154	73.600000
2785.556456	71.400000
2786.901532	85.700000
2788.246382	91.800000
2789.591005	79.300000
2790.932277	95.100000
2792.274887	61.600000
2793.617271	97.700000
2794.959431	69.600000
2796.298241	70.600000
2797.639950	73.000000
2798.978312	70.400000
2800.318011	64.600000
2801.655924	55.800000
2802.992053	73.200000
2804.327958	62.500000
2805.665201	71.300000
2807.000660	68.700000
2808.335896	62.000000
2809.669349	70.600000
2811.004140	63.700000
2812.335589	60.200000
2813.669934	52.500000
2814.999381	84.500000
2816.330165	67.000000
2817.660727	74.600000
2818.989510	62.500000
2820.319629	88.800000
2821.647970	61.000000
2822.976090	86.000000
2824.302432	55.300000
2825.630111	50.200000
2826.954457	62.700000
2828.280138	72.400000
2829.604044	56.600000
2830.927731	70.200000
2832.252753	82.400000
2833.574445	65.100000
2834.895919	76.100000
2836.217174	73.700000
2837.538210	44.500000
2838.857474	71.500000
2840.178073	71.800000
2841.496900	71.400000
2842.815509	75.500000
2844.132347	75.800000
2845.448968	73.400000
2846.765372	68.300000
2848.080007	65.400000
2849.395976	64.000000
2850.708625	62.000000
2852.022610	58.300000
2853.336377	57.900000
2854.649929	64.000000
2855.961713	55.100000
2857.271731	70.900000
2858.583084	73.200000
2859.891122	70.100000
2861.200495	59.800000
2862.509652	68.500000
2863.818594	64.100000
2865.125773	65.100000
2866.431188	40.800000
2867.737938	69.600000
2869.042925	55.100000
2870.347699	48.900000
2871.650711	75.400000
2872.956605	63.600000
2874.257643	51.800000
2875.560016	80.000000
2876.860629	64.400000
2878.162576	87.400000
2879.464310	80.100000
2880.762739	56.500000
2882.062503	55.900000
2883.360508	71.000000
2884.658302	50.600000
2885.954340	62.200000
2887.251711	61.200000
2888.547326	55.000000
2889.842730	41.500000
2891.137924	65.900000
2892.429819	64.800000
2893.724591	56.500000
2895.016066	59.100000
2896.308874	66.700000
2897.601472	58.800000
2898.890776	52.300000
2900.181412	53.000000
2901.470297	53.500000
2902.760515	65.100000
2904.047440	72.200000
2905.335699	60.000000
2906.622207	49.600000
2907.908508	89.500000
2909.194600	65.500000
2910.478944	68.700000
2911.766160	36.500000
2913.048548	51.100000
2914.332269	52.900000
2915.614244	76.600000
2916.896012	61.200000
2918.176034	69.500000
2919.458926	59.300000
2920.740073	45.400000
2922.017938	72.000000
2923.298672	63.800000
2924.576125	62.900000
2925.853372	45.500000
2927.128878	53.000000
2928.407251	59.500000
2929.680809	64.300000
2930.957235	48.200000
2932.231920	53.000000
2933.504865	53.100000
2934.779140	60.300000
2936.051676	60.100000
2937.324008	51.900000
2938.593066	45.300000
2939.864990	54.000000
2941.135176	56.000000
2942.405159	87.000000
2943.674938	67.100000
2944.942980	76.500000
2946.209287	67.800000
2947.475391	58.300000
2948.742825	82.800000
2950.008525	65.100000
2951.274022	59.700000
2952.539317	55.500000
2953.801347	77.700000
2955.064708	54.000000
2956.327866	59.400000
2957.589293	61.000000
2958.852049	57.800000
2960.113074	60.500000
2961.372367	48.000000
2962.631461	68.900000
2963.890354	38.900000
2965.149047	53.800000
2966.407540	49.200000
2967.664304	67.100000
2968.920868	45.100000
2970.175705	51.900000
2971.431871	48.100000
2972.684781	53.900000
2973.939021	57.800000
2975.193062	43.800000
2976.445377	54.300000
2977.697494	69.500000
2978.947886	53.800000
2980.201133	56.300000
2981.449603	53.200000
2982.700927	56.500000
2983.949003	47.900000
2985.196881	55.900000
2986.444562	66.400000
2987.692047	56.900000
2988.937810	44.800000
2990.183376	51.500000
2991.430270	41.800000
2992.673920	54.400000
2993.918898	48.700000
2995.160633	52.200000
2996.405218	39.100000
2997.648085	63.100000
2998.887711	43.800000
3000.130187	69.400000
3001.369424	66.500000
3002.609988	54.500000
3003.848835	52.200000
3005.087488	46.100000
3006.324425	62.000000
3007.562689	54.800000
3008.799239	50.500000
3010.035594	39.300000
3011.271756	53.200000
3012.506205	40.100000
3013.740460	35.500000
3014.974522	47.000000
3016.206872	35.700000
3017.437510	72.700000
3018.670994	46.300000
3019.902766	51.400000
3021.132828	59.800000
3022.362698	64.400000
3023.590858	53.300000
3024.820344	55.800000
3026.048122	49.400000
3027.275708	62.100000
3028.504620	50.600000
3029.728790	60.100000
3030.955803	56.400000
3032.179592	47.400000
3033.404708	62.300000
3034.628117	45.600000
3035.851337	64.200000
3037.072851	65.900000
3038.297206	42.000000
3039.516826	46.800000
3040.737771	59.600000
3041.958528	55.000000
3043.177581	47.800000
3044.397960	43.200000
3045.615122	58.500000
3046.833609	55.700000
3048.050394	29.500000
3049.266992	55.300000
3050.483401	42.100000
3051.696598	57.400000
3052.912632	52.000000
3054.125454	63.000000
3055.341113	57.400000
3056.552049	48.900000
3057.764310	48.500000
3058.976385	73.000000
3060.188273	49.200000
3061.398463	61.800000
3062.608467	51.000000
3063.818286	50.600000
3065.026408	56.600000
3066.234344	59.400000
3067.440586	60.900000
3068.648151	42.800000
3069.854023	48.000000
3071.059709	53.200000
3072.265210	32.700000
3073.469018	60.900000
3074.674150	60.500000
3075.877590	64.800000
3077.079337	54.400000
3078.280901	47.500000
3079.482281	49.300000
3080.683477	51.500000
3081.882983	60.600000
3083.082305	52.900000
3084.282951	38.700000
3085.481907	31.200000
3086.677669	52.700000
3087.876260	68.100000
3089.071657	55.600000
3090.268377	58.200000
3091.461905	51.600000
3092.658261	44.200000
3093.852931	66.700000
3095.044410	49.200000
3096.240220	42.600000
3097.431337	49.300000
3098.623776	50.500000
3099.813028	41.500000
3101.005106	64.900000
3102.195499	56.700000
3103.382707	52.500000
3104.571238	65.600000
3105.761091	49.700000
3106.947759	41.900000
3108.134248	51.900000
3109.320557	61.400000
3110.508188	45.400000
3111.692638	58.200000
3112.875407	62.800000
3114.061000	45.800000
3115.244912	42.400000
3116.427146	39.900000
3117.609201	61.900000
3118.791079	43.800000
3119.972778	50.500000
3121.152799	41.600000
3122.331144	39.200000
3123.512310	55.600000
3124.690300	56.300000
3125.868113	54.700000
3127.045749	39.600000
3128.221710	40.000000
3129.397494	53.000000
3130.574600	64.900000
3131.750031	54.400000
3132.923789	62.600000
3134.095875	33.500000
3135.269281	50.900000
3136.442512	39.300000
3137.614070	35.500000
3138.786950	60.400000
3139.956662	51.800000
3141.127695	50.800000
3142.297057	72.900000
3143.464750	33.100000
3144.635258	49.800000
3145.801107	44.600000
3146.971266	49.700000
3148.136767	56.000000
3149.302095	64.500000
3150.467249	44.700000
3151.632229	56.900000
3152.798530	43.800000
3153.960177	52.900000
3155.123145	31.300000
3156.285939	45.500000
3157.448561	59.000000
3158.609518	43.000000
3159.770302	24.200000
3160.930914	49.100000
3162.089863	39.700000
3163.248639	60.000000
3164.407244	30.700000
3165.565677	55.700000
3166.723938	49.300000
3167.880537	49.700000
3169.035475	44.700000
3170.191732	47.600000
3171.346329	28.900000
3172.500754	68.000000
3173.653520	40.600000
3174.806116	53.700000
3175.958541	37.200000
3177.110797	47.500000
3178.262883	36.300000
3179.411822	43.600000
3180.563568	56.200000
3181.713656	71.500000
3182.862088	50.700000
3184.010351	48.500000
3185.158444	42.300000
3186.306369	54.300000
3187.452639	50.100000
3188.598740	57.200000
3189.743186	45.200000
3190.887465	48.000000
3192.031576	59.100000
3193.177005	62.200000
3194.319294	43.400000
3195.461417	47.300000
3196.603372	52.400000
3197.745161	53.500000
3198.886782	24.400000
3200.025267	22.400000
3201.165070	39.200000
3202.306191	26.300000
3203.444177	25.000000
3204.580514	51.600000
3205.716685	44.500000
3206.854174	36.600000
3207.990013	39.900000
3209.127170	42.300000
3210.259714	34.000000
3211.396540	41.400000
3212.528754	39.600000
3213.662286	52.300000
3214.795652	53.300000
3215.925891	49.700000
3217.058928	34.700000
3218.188839	60.600000
3219.320067	62.800000
3220.448169	41.000000
3221.579068	54.000000
3222.708324	54.900000
3223.835935	61.100000
3224.960425	41.400000
3226.089190	44.100000
3227.214833	50.700000
3228.340313	52.200000
3229.464152	43.200000
3230.590785	21.000000
3231.712821	52.200000
3232.836173	53.700000
3233.959363	58.000000
3235.082391	41.800000
3236.203779	49.100000
3237.325006	59.300000
3238.444594	44.300000
3239.564021	55.500000
3240.681810	58.500000
3241.802392	72.800000
3242.919859	58.700000
3244.037167	70.100000
3245.154313	36.100000
3246.269824	58.200000
3247.386650	51.500000
3248.500365	53.300000
3249.616870	60.400000
3250.731741	40.600000
3251.843503	49.200000
3252.955106	49.800000
3254.068023	68.700000
3255.180782	44.700000
3256.290434	39.400000
3257.401400	38.700000
3258.512208	51.600000
3259.621385	51.400000
3260.728930	57.600000
3261.837790	37.700000
3262.946491	47.500000
3264.052090	49.600000
3265.159003	47.800000
3266.264288	52.700000
3267.370886	43.800000
3268.474384	35.800000
3269.579196	44.700000
3270.683851	29.900000
3271.785407	42.200000
3272.886808	32.800000
3273.989522	49.200000
3275.092079	17.700000
3276.191540	49.500000
3277.293785	43.400000
3278.392934	53.500000
3279.490459	37.900000
3280.587828	32.600000
3281.687980	54.800000
3282.785038	44.300000
3283.881941	36.400000
3284.978689	44.300000
3286.070879	33.300000
3287.167317	40.100000
3288.262134	35.000000
3289.356795	44.900000
3290.449835	31.600000
3291.542721	35.600000
3292.633986	31.400000
3293.726564	41.400000
3294.817521	45.100000
3295.906859	43.000000
3296.996044	42.300000
3298.086542	44.300000
3299.173955	38.300000
3300.261216	30.300000
3301.349789	23.400000
3302.438209	50.200000
3303.522082	46.200000
3304.610197	24.400000
3305.695231	44.900000
3306.778648	45.000000
3307.863378	28.200000
3308.946493	62.700000
3310.030919	45.600000
3311.112267	36.300000
3312.194927	46.300000
3313.275973	43.000000
3314.356868	58.700000
3315.436150	38.200000
3316.515281	33.500000
3317.595723	42.200000
3318.673092	51.500000
3319.751771	49.400000
3320.828840	32.500000
3321.905758	40.400000
3322.981065	41.700000
3324.056223	50.600000
3325.132692	50.500000
3326.206091	26.300000
3327.279341	44.500000
3328.353902	35.400000
3329.426853	40.100000
3330.498197	19.600000
3331.570851	47.600000
3332.640438	40.000000
3333.711336	38.800000
3334.780627	35.900000
3335.851229	39.600000
3336.920224	47.200000
3337.987613	30.600000
3339.053397	39.100000
3340.123407	35.500000
3341.190354	25.300000
3342.254239	21.900000
3343.320892	46.100000
3344.385940	32.300000
3345.449385	32.500000
3346.512684	24.900000
3347.575836	51.900000
3348.638842	43.300000
3349.701702	37.200000
3350.762960	35.900000
3351.821161	41.100000
3352.883583	43.000000
3353.942948	43.100000
3355.002168	19.200000
3356.062698	43.300000
3357.118718	47.600000
3358.177503	48.700000
3359.231780	45.400000
3360.288820	28.200000
3361.344263	38.900000
3362.401014	43.700000
3363.456168	46.300000
3364.509724	45.500000
3365.561683	40.000000
3366.616404	45.600000
3367.668076	49.600000
3368.719605	54.000000
3369.772443	32.400000
3370.822233	34.000000
3371.873331	33.800000
3372.921384	36.900000
3373.972197	30.200000
3375.019964	27.800000
3376.067589	24.600000
3377.115071	36.800000
3378.160961	27.700000
3379.208159	38.100000
3380.252315	24.700000
3381.299229	34.100000
3382.344551	50.500000
3383.386833	25.600000
3384.428973	41.000000
3385.472421	37.700000
3386.515729	29.300000
3387.557446	19.200000
3388.599022	41.900000
3389.640458	40.900000
3390.680304	46.100000
3391.718563	43.000000
3392.758129	27.600000
3393.797554	57.200000
3394.835392	26.000000
3395.871643	50.700000
3396.907755	57.000000
3397.945174	31.400000
3398.979560	42.300000
3400.015253	33.600000
3401.050807	34.500000
3402.083330	37.900000
3403.118606	39.900000
3404.150851	46.000000
3405.182958	15.000000
3406.213481	39.300000
3407.245312	39.500000
3408.277003	36.800000
3409.305668	47.500000
3410.334194	32.200000
3411.364028	44.800000
3412.393723	43.200000
3413.420393	25.900000
3414.448370	25.700000
3415.473322	46.300000
3416.501024	47.700000
3417.525703	17.400000
3418.551688	45.100000
3419.576093	34.400000
3420.600362	43.600000
3421.623052	45.800000
3422.645606	41.600000
3423.669466	51.900000
3424.690306	51.000000
3425.711011	33.100000
3426.733021	29.700000
3427.752013	44.700000
3428.770870	51.200000
3429.791032	33.900000
3430.808178	30.200000
