-118.448435	12.200000
-115.778835	1.800000
-113.112170	-6.100000
-110.446257	6.900000
-107.783276	17.100000
-105.118866	21.200000
-102.457386	30.400000
-99.794476	13.100000
-97.136674	-4.400000
-94.477441	19.700000
-91.818958	11.400000
-89.163398	31.000000
-86.506410	-1.900000
-83.854519	6.000000
-81.201199	0.800000
-78.550799	27.100000
-75.898969	11.100000
-73.252230	14.000000
-70.604061	-0.100000
-67.956636	3.100000
-65.312124	9.900000
-62.666184	13.300000
-60.025325	12.500000
-57.383037	14.700000
-54.743657	-4.400000
-52.102849	17.900000
-49.462781	-4.400000
-46.827785	33.700000
-44.191360	25.400000
-41.557839	24.000000
-38.922889	3.700000
-36.293004	14.700000
-33.659527	7.600000
-31.031112	28.000000
-28.403430	5.100000
-25.774321	38.200000
-23.150268	20.900000
-20.522626	43.800000
-17.900037	45.400000
-15.278180	66.400000
-12.657053	83.500000
-10.036656	244.600000
-7.419147	826.200000
-4.800210	2884.000000
-2.184159	7061.100000
0.431164	11898.600000
3.045760	8782.400000
5.657473	1202.400000
8.270615	108.200000
10.878723	76.900000
13.490413	40.400000
16.097072	47.200000
18.705159	29.900000
21.312522	36.300000
23.914860	6.100000
26.520776	29.700000
29.121670	27.100000
31.723992	26.200000
34.321297	19.600000
36.922177	22.300000
39.518043	8.300000
42.115336	5.900000
44.711910	4.000000
47.303475	20.000000
49.896468	20.700000
52.486600	18.500000
55.078160	-0.600000
57.666860	18.800000
60.256987	-0.700000
62.842116	3.500000
65.428671	4.500000
68.014513	6.900000
70.597501	9.500000
73.181915	17.000000
75.759201	9.100000
78.340053	14.700000
80.918056	8.000000
83.495349	15.600000
86.074068	14.300000
88.647806	0.300000
91.222970	-2.600000
93.795291	10.400000
96.366904	-5.400000
98.935677	21.300000
101.505877	-0.400000
104.073239	18.700000
106.642026	17.500000
109.207977	4.700000
111.771093	7.100000
114.337765	19.100000
116.895216	-0.300000
119.458352	25.500000
122.016529	17.000000
124.578259	37.000000
127.135034	34.700000
129.693234	72.100000
132.246482	88.900000
134.799031	178.200000
137.355131	221.100000
139.906284	300.700000
142.456738	351.300000
145.006496	397.500000
147.553434	438.700000
150.099676	489.100000
152.647344	494.600000
155.194317	482.900000
157.736353	482.900000
160.277696	476.900000
162.818346	473.700000
165.360422	480.900000
167.899687	456.500000
170.436142	495.400000
172.971907	492.100000
175.509097	482.400000
178.045595	445.800000
180.579288	456.100000
183.110178	458.700000
185.640379	446.700000
188.172005	442.000000
190.700830	447.100000
193.226856	451.300000
195.752197	455.000000
198.278962	435.200000
200.802930	437.400000
203.326214	454.500000
205.848813	431.200000
208.368619	443.000000
210.887742	470.800000
213.406182	469.300000
215.926046	462.700000
218.438909	462.500000
220.955303	477.800000
223.471015	470.500000
225.981838	504.900000
228.494085	472.900000
231.003549	504.500000
233.512335	477.700000
236.020443	500.400000
238.529974	485.000000
241.034625	496.100000
243.538601	495.400000
246.044000	492.600000
248.544524	487.300000
251.048571	493.200000
253.545648	460.800000
256.046247	479.700000
258.544075	501.400000
261.041230	491.000000
263.537712	483.700000
266.029331	500.500000
268.524470	503.400000
271.016843	497.900000
273.508545	498.600000
275.997483	516.100000
278.487846	506.300000
280.975447	509.400000
283.460288	527.400000
285.948643	558.600000
288.430059	546.900000
290.914989	540.300000
293.395074	541.200000
295.878671	579.600000
298.357425	553.500000
300.837603	584.800000
303.315028	572.100000
305.791790	565.000000
308.267889	555.100000
310.741239	537.400000
313.213927	542.500000
315.685954	552.800000
318.157320	566.700000
320.625942	582.700000
323.093904	576.300000
325.563289	549.800000
328.027850	521.200000
330.495916	536.500000
332.959162	502.700000
335.421750	504.400000
337.883682	484.800000
340.344957	474.500000
342.803498	461.200000
345.263461	509.300000
347.720691	459.900000
350.177267	496.900000
352.633189	458.700000
355.086382	451.200000
357.540996	458.800000
359.990809	475.900000
362.444119	433.800000
364.892629	450.300000
367.340489	408.400000
369.789770	422.500000
372.234258	422.400000
374.680168	425.400000
377.125429	397.400000
379.567970	410.700000
382.009864	398.800000
384.451111	410.600000
386.889642	401.600000
389.329595	403.600000
391.766834	416.000000
394.201361	414.400000
396.639376	392.900000
399.072614	422.900000
401.507274	393.500000
403.937160	436.100000
406.370532	409.300000
408.799134	402.500000
411.227095	394.000000
413.656476	424.400000
416.081092	393.300000
418.507130	410.300000
420.932527	368.600000
423.357284	385.500000
425.777283	369.800000
428.198703	386.800000
430.617426	399.000000
433.037570	379.100000
435.455019	383.500000
437.873888	360.200000
440.290064	363.800000
442.701493	366.200000
445.116398	350.300000
447.528613	342.000000
449.940194	336.800000
452.351141	307.500000
454.759402	325.600000
457.167030	325.600000
459.574027	318.300000
461.980391	304.200000
464.384073	300.000000
466.787125	330.700000
469.189547	305.100000
471.591340	317.300000
473.990454	325.300000
476.390988	310.400000
478.790893	308.800000
481.186075	340.400000
483.584724	337.000000
485.978653	331.500000
488.371956	341.600000
490.764633	384.800000
493.156685	389.200000
495.550156	406.700000
497.938914	440.800000
500.325006	513.600000
502.712518	607.500000
505.099406	810.600000
507.483631	1081.900000
509.869275	1526.400000
512.252256	2184.500000
514.632577	3052.600000
517.014317	3695.700000
519.393398	3992.000000
521.773898	3715.000000
524.151740	3042.300000
526.526927	2481.100000
528.901496	1996.300000
531.277484	1688.200000
533.650818	1446.500000
536.025570	1297.700000
538.395637	1157.100000
540.765088	1037.500000
543.135957	938.200000
545.502146	886.200000
547.869753	833.700000
550.234714	756.900000
552.599062	731.200000
554.962798	670.100000
557.327951	673.000000
559.688431	643.800000
562.050330	618.500000
564.409589	603.000000
566.766209	573.300000
569.126274	536.400000
571.479649	541.700000
573.836468	506.100000
576.190651	519.200000
578.544227	481.400000
580.897194	486.300000
583.247530	478.800000
585.599282	475.200000
587.944358	447.500000
590.294898	428.500000
592.638765	404.500000
594.988092	425.900000
597.332772	403.800000
599.674826	410.400000
602.018298	414.200000
604.359147	400.400000
606.699394	393.500000
609.037020	405.700000
611.378081	428.900000
613.714504	464.400000
616.052345	473.900000
618.387567	486.700000
620.720174	438.000000
623.054197	432.500000
625.385607	413.500000
627.716418	418.600000
630.046631	388.200000
632.376246	377.800000
634.701239	379.100000
637.031673	364.800000
639.357485	376.100000
641.680691	370.700000
644.005312	376.400000
646.327329	390.400000
648.648751	363.600000
650.967570	361.700000
653.287805	368.600000
655.607447	363.000000
657.924488	353.000000
660.240937	351.300000
662.554788	359.800000
664.870055	351.900000
667.182725	374.100000
669.496810	361.600000
671.806295	355.300000
674.117196	357.000000
676.425504	336.300000
678.733224	363.800000
681.042359	335.200000
683.346901	353.300000
685.650856	332.400000
687.954226	321.800000
690.259010	284.800000
692.559208	329.000000
694.860820	306.700000
697.161848	312.300000
699.458293	311.400000
701.756154	313.500000
704.053431	291.700000
706.350125	313.800000
708.642243	282.000000
710.937772	299.700000
713.228728	278.700000
715.521098	291.900000
717.810892	284.900000
720.100107	313.600000
722.388741	262.100000
724.674804	288.700000
726.962280	289.400000
729.247186	268.700000
731.531513	294.100000
733.813272	295.600000
736.096445	290.100000
738.379041	280.400000
740.657082	277.000000
742.936536	289.800000
745.215415	255.200000
747.493718	259.900000
749.767472	257.100000
752.042640	283.000000
754.317234	284.900000
756.589268	261.600000
758.862716	271.000000
761.133606	247.600000
763.401940	244.800000
765.671687	262.300000
767.938880	260.100000
770.205502	254.300000
772.471555	286.900000
774.735055	269.400000
776.999969	247.900000
779.264313	287.000000
781.524128	275.100000
783.785356	295.200000
786.046015	265.500000
788.304129	270.500000
790.559698	266.500000
792.818658	278.300000
795.071119	263.700000
797.328947	254.900000
799.582255	275.200000
801.833024	254.000000
804.085205	262.900000
806.334848	265.900000
808.585902	271.500000
810.832445	270.300000
813.080400	269.500000
815.325821	271.100000
817.572653	257.200000
819.818924	273.300000
822.060691	255.900000
824.305840	262.300000
826.544517	270.300000
828.786577	251.500000
831.024138	253.400000
833.263110	280.100000
835.499556	237.800000
837.737413	252.400000
839.972745	267.200000
842.205554	271.000000
844.439774	271.500000
846.671472	260.600000
848.902615	241.200000
851.133203	253.500000
853.363236	256.100000
855.592716	235.300000
857.817714	253.000000
860.046087	231.400000
862.269981	243.100000
864.495285	252.400000
866.716114	246.200000
868.940315	256.800000
871.160043	218.300000
873.381182	247.900000
875.601770	249.900000
877.819848	261.800000
880.039337	213.200000
882.254359	258.200000
884.468833	229.200000
886.682760	258.200000
888.896139	233.800000
891.108971	241.200000
893.321257	233.800000
895.531040	231.600000
897.740278	243.700000
899.948971	248.600000
902.155165	253.800000
904.362768	254.100000
906.567874	235.600000
908.772436	261.700000
910.974502	251.700000
913.177978	263.800000
915.378960	241.300000
917.579401	278.500000
919.781249	254.800000
921.976707	289.700000
924.175524	311.000000
926.369902	343.100000
928.567638	361.000000
930.760938	404.300000
932.955647	437.900000
935.147870	472.000000
937.339555	486.700000
939.530702	529.600000
941.719366	530.500000
943.907493	562.800000
946.093140	521.600000
948.282139	538.800000
950.466715	565.100000
952.650756	526.200000
954.838147	547.100000
957.017234	562.300000
959.199672	597.300000
961.381576	558.800000
963.561006	555.700000
965.737963	581.800000
967.916327	598.300000
970.096099	576.000000
972.269522	580.600000
974.446291	568.300000
976.618653	602.800000
978.792423	581.900000
980.961789	558.500000
983.134500	563.400000
985.304744	542.500000
987.474460	518.500000
989.643647	473.400000
991.808437	399.700000
993.976568	370.300000
996.140305	384.100000
998.305448	371.000000
1000.468133	361.600000
1002.630291	350.800000
1004.789993	345.000000
1006.949171	337.600000
1009.109755	325.500000
1011.267884	316.900000
1013.425489	313.900000
1015.582571	298.800000
1017.739130	301.300000
1019.891309	269.700000
1022.044894	281.600000
1024.197958	273.700000
1026.348574	269.700000
1028.500595	254.100000
1030.648243	279.600000
1032.799223	264.100000
1034.945832	254.000000
1037.091923	230.900000
1039.237494	252.200000
1041.384471	255.300000
1043.525159	256.900000
1045.669177	238.600000
1047.810754	256.700000
1049.951815	247.400000
1052.094280	250.600000
1054.230466	243.900000
1056.369978	253.700000
1058.505134	236.600000
1060.643615	245.300000
1062.777742	225.800000
1064.911356	260.200000
1067.046375	242.300000
1069.177044	236.600000
1071.309118	260.700000
1073.438763	244.000000
1075.567896	243.800000
1077.696517	226.500000
1079.824627	255.700000
1081.950311	240.900000
1084.075485	245.800000
1086.202063	244.500000
1088.324304	223.800000
1090.447948	249.800000
1092.567259	242.100000
1094.691798	229.800000
1096.810092	223.000000
1098.929791	228.800000
1101.047071	223.500000
1103.163845	235.100000
1105.280112	237.100000
1107.393964	223.200000
1109.509219	206.200000
1111.620152	244.200000
1113.734396	233.100000
1115.844320	231.200000
1117.955648	214.200000
1120.066471	219.500000
1122.172979	216.100000
1124.282795	235.800000
1126.388297	215.600000
1128.495202	237.500000
1130.595892	216.800000
1132.701794	226.400000
1134.803387	229.200000
1136.906383	246.200000
1139.008878	197.500000
1141.105166	232.200000
1143.206662	201.100000
1145.303855	219.100000
1147.400549	211.000000
1149.496745	237.100000
1151.592444	207.000000
1153.687645	235.300000
1155.780449	209.000000
1157.874655	235.300000
1159.962670	206.200000
1162.055883	225.800000
1164.142908	208.300000
1166.233232	206.800000
1168.319269	205.000000
1170.408603	202.200000
1172.491756	211.200000
1174.576311	219.000000
1176.662268	209.900000
1178.743943	211.400000
1180.827020	200.800000
1182.907711	229.800000
1184.987910	206.800000
1187.067618	208.600000
1189.146835	204.000000
1191.223670	220.400000
1193.298124	206.900000
1195.375870	225.000000
1197.449345	208.000000
1199.524221	222.900000
1201.594830	218.000000
1203.666841	216.300000
1205.736475	198.800000
1207.807510	197.200000
1209.878057	218.300000
1211.944343	219.400000
1214.012030	210.900000
1216.077345	207.300000
1218.144060	202.100000
1220.206519	221.400000
1222.272263	197.400000
1224.333754	197.600000
1226.396644	187.300000
1228.457167	210.900000
1230.517206	191.700000
1232.576763	209.000000
1234.633954	210.900000
1236.690664	224.800000
1238.745011	222.800000
1240.802638	219.800000
1242.857903	212.700000
1244.908927	204.000000
1246.961351	211.100000
1249.013295	196.900000
1251.062881	210.800000
1253.111988	225.600000
1255.160617	206.700000
1257.208767	236.000000
1259.256439	219.800000
1261.299880	215.800000
1263.346596	228.400000
1265.390959	231.500000
1267.434846	213.000000
1269.476382	201.900000
1271.515567	199.000000
1273.558026	214.700000
1275.596262	218.800000
1277.635897	223.300000
1279.675057	229.700000
1281.709998	221.100000
1283.746339	192.500000
1285.780334	218.700000
1287.815728	192.600000
1289.846908	225.200000
1291.879487	212.400000
1293.911593	231.800000
1295.941359	219.500000
1297.972523	229.100000
1299.999479	224.700000
1302.027833	222.200000
1304.051983	215.500000
1306.079397	218.100000
1308.102609	212.300000
1310.127219	215.700000
1312.149495	197.100000
1314.173168	202.700000
1316.194508	210.400000
1318.215380	226.100000
1320.235786	212.200000
1322.251997	235.900000
1324.269606	215.500000
1326.284888	236.500000
1328.303427	211.700000
1330.317778	222.800000
1332.329803	215.400000
1334.345085	218.900000
1336.356182	201.600000
1338.368676	225.400000
1340.376987	223.000000
1342.388554	232.100000
1344.394081	226.600000
1346.402864	226.700000
1348.407469	227.900000
1350.415328	241.000000
1352.422725	227.000000
1354.424091	215.200000
1356.426854	210.300000
1358.429156	240.400000
1360.430999	223.200000
1362.432382	218.400000
1364.431452	225.200000
1366.430063	216.300000
1368.428216	233.300000
1370.425911	220.300000
1372.419442	210.500000
1374.414370	209.100000
1376.408841	215.400000
1378.402855	212.200000
1380.394561	188.900000
1382.385813	221.800000
1384.374759	214.200000
1386.365100	205.300000
1388.354986	202.700000
1390.342569	215.900000
1392.329697	181.700000
1394.314525	214.600000
1396.300746	208.200000
1398.284668	204.300000
1400.268137	203.000000
1402.251154	200.000000
1404.231872	199.900000
1406.213986	211.100000
1408.193802	183.500000
1410.173168	216.100000
1412.148394	223.600000
1414.126860	205.300000
1416.103031	201.300000
1418.078754	187.000000
1420.054027	215.800000
1422.027009	214.700000
1423.999543	191.500000
1425.971630	223.600000
1427.943268	207.900000
1429.910778	208.200000
1431.883363	194.800000
1433.848141	202.100000
1435.817991	188.700000
1437.783718	203.300000
1439.750837	214.400000
1441.715673	219.600000
1443.676390	173.700000
1445.642174	210.800000
1447.602003	186.500000
1449.563225	208.300000
1451.525840	210.200000
1453.484340	209.000000
1455.442398	204.400000
1457.400013	225.600000
1459.357187	232.900000
1461.312085	217.600000
1463.268375	209.800000
1465.222391	198.200000
1467.175967	197.200000
1469.127270	218.400000
1471.079965	204.500000
1473.030389	217.900000
1474.980373	211.700000
1476.929919	203.000000
1478.877196	191.400000
1480.822206	188.100000
1482.768607	205.800000
1484.714572	193.900000
1486.660098	201.700000
1488.603360	222.600000
1490.546185	184.000000
1492.486747	193.200000
1494.428700	197.100000
1496.368392	211.300000
1498.307648	186.200000
1500.246469	224.800000
1502.183031	192.400000
1504.120984	215.000000
1506.056679	222.300000
1507.991939	203.700000
1509.924944	206.100000
1511.857516	228.200000
1513.789656	232.400000
1515.721364	203.300000
1517.650818	207.200000
1519.581663	228.700000
1521.512077	206.200000
1523.438417	231.000000
1525.366149	242.100000
1527.291630	224.700000
1529.216682	236.100000
1531.141305	258.200000
1533.065499	219.800000
1534.987446	213.700000
1536.910782	229.600000
1538.831873	237.300000
1540.750719	235.900000
1542.670955	251.300000
1544.588947	244.000000
1546.506513	255.600000
1548.421837	252.000000
1550.338551	275.300000
1552.251210	272.400000
1554.167073	288.900000
1556.080696	289.200000
1557.992082	300.200000
1559.904856	303.500000
1561.813581	318.300000
1563.723696	346.600000
1565.633387	359.200000
1567.542654	400.300000
1569.449688	457.900000
1571.354489	472.800000
1573.260679	570.900000
1575.164637	618.000000
1577.068175	695.200000
1578.971291	759.500000
1580.872179	844.500000
1582.774454	813.500000
1584.674502	803.700000
1586.575937	761.800000
1588.473339	720.900000
1590.370322	657.800000
1592.266887	605.500000
1594.164840	534.700000
1596.056958	492.300000
1597.952269	425.400000
1599.847163	401.600000
1601.739835	348.500000
1603.632091	345.900000
1605.522126	296.500000
1607.411747	302.700000
1609.300951	273.100000
1611.189741	258.100000
1613.076314	285.500000
1614.964273	286.200000
1616.848216	252.400000
1618.733547	256.400000
1620.618463	248.900000
1622.501166	220.900000
1624.385256	230.400000
1626.265335	246.600000
1628.146800	206.400000
1630.026055	222.600000
1631.906696	207.800000
1633.781533	204.900000
1635.661352	198.100000
1637.537165	197.900000
1639.412568	177.000000
1641.289358	205.500000
1643.160350	167.100000
1645.034524	184.700000
1646.904700	168.200000
1648.778056	182.800000
1650.649209	180.100000
1652.518160	167.800000
1654.388497	185.100000
1656.254840	195.300000
1658.122569	141.400000
1659.988100	173.900000
1661.855015	182.200000
1663.717942	177.500000
1665.582254	162.100000
1667.444370	174.100000
1669.306082	160.600000
1671.169178	158.200000
1673.030080	155.900000
1674.888788	168.300000
1676.747093	153.800000
1678.606783	165.100000
1680.460706	159.800000
1682.317801	158.200000
1684.174494	156.100000
1686.027211	162.500000
1687.883098	146.600000
1689.735012	141.100000
1691.586525	121.700000
1693.437637	156.000000
1695.288349	143.800000
1697.138660	151.400000
1698.986787	144.300000
1700.836297	152.200000
1702.680059	131.400000
1704.528770	142.500000
1706.371736	145.900000
1708.217867	159.700000
1710.060037	145.000000
1711.905371	157.700000
1713.744965	145.900000
1715.585943	135.900000
1717.428304	141.300000
1719.266709	142.800000
1721.106497	139.200000
1722.944110	156.200000
1724.781327	151.300000
1726.616371	165.300000
1728.452798	152.300000
1730.287053	126.200000
1732.120913	137.700000
1733.954380	155.600000
1735.783900	132.000000
1737.616579	139.500000
1739.445314	137.200000
1741.277207	146.200000
1743.105157	161.500000
1744.932715	142.000000
1746.759881	125.200000
1748.586656	137.700000
1750.413040	130.800000
1752.235487	147.600000
1754.061088	142.300000
1755.882755	165.900000
1757.705804	143.500000
1759.526692	133.500000
1761.347190	150.600000
1763.169070	135.700000
1764.985250	141.400000
1766.804582	137.700000
1768.619987	127.800000
1770.438542	140.700000
1772.253172	135.300000
1774.067416	143.500000
1775.881272	142.300000
1777.694742	162.200000
1779.506059	135.300000
1781.318757	135.800000
1783.131068	146.300000
1784.939462	140.800000
1786.749237	150.900000
1788.555096	120.400000
1790.364101	142.900000
1792.169193	143.000000
1793.975666	135.500000
1795.781755	152.100000
1797.583934	130.200000
1799.389256	150.200000
1801.190670	137.800000
1802.993464	141.600000
1804.792352	139.000000
1806.592621	136.900000
1808.392508	141.400000
1810.190254	154.700000
1811.987618	122.700000
1813.784603	145.900000
1815.581207	114.100000
1817.375672	128.300000
1819.171516	138.300000
1820.961706	142.700000
1822.756792	144.200000
1824.546225	137.500000
1826.338795	135.400000
1828.129230	141.100000
1829.917531	133.800000
1831.708967	134.700000
1833.494757	147.800000
1835.281927	139.200000
1837.066965	139.700000
1838.855137	153.300000
1840.639423	152.400000
1842.421580	128.600000
1844.205115	153.900000
1845.986522	134.300000
1847.769308	144.300000
1849.548214	150.300000
1851.328498	143.900000
1853.106656	142.300000
1854.886193	151.300000
1856.663605	142.400000
1858.438893	145.100000
1860.215560	165.800000
1861.990103	143.600000
1863.766025	138.400000
1865.536326	137.600000
1867.309755	144.300000
1869.081064	134.400000
1870.852003	158.500000
1872.624318	158.600000
1874.391020	157.400000
1876.160848	135.700000
1877.926812	157.700000
1879.695900	150.500000
1881.461126	169.100000
1883.225983	162.700000
1884.992218	149.700000
1886.754594	139.400000
1888.516603	152.600000
1890.278244	137.100000
1892.039519	141.800000
1893.800426	128.100000
1895.560967	148.900000
1897.319398	135.300000
1899.077464	145.900000
1900.833421	134.700000
1902.590756	150.900000
1904.347724	122.900000
1906.102587	139.900000
1907.855344	125.300000
1909.607738	126.100000
1911.361507	138.000000
1913.113173	140.000000
1914.862737	111.900000
1916.613677	142.100000
1918.364253	120.200000
1920.110990	139.800000
1921.859104	133.300000
1923.605118	144.600000
1925.352508	131.000000
1927.097799	128.300000
1928.840993	121.100000
1930.585563	120.800000
1932.328036	115.000000
1934.070149	136.400000
1935.811902	134.000000
1937.553296	138.600000
1939.292596	144.900000
1941.031536	148.600000
1942.770119	135.100000
1944.506609	128.800000
1946.242742	125.200000
1947.980249	121.600000
1949.713934	116.600000
1951.448994	142.300000
1953.181966	141.700000
1954.914581	122.700000
1956.646839	126.500000
1958.378741	133.100000
1960.108557	127.900000
1961.836289	119.800000
1963.565394	142.900000
1965.294145	143.800000
1967.020812	149.200000
1968.747125	141.600000
1970.474811	140.000000
1972.196961	119.500000
1973.922212	122.700000
1975.643657	133.200000
1977.368201	129.000000
1979.090666	134.400000
1980.809327	134.400000
1982.531087	132.900000
1984.249045	116.000000
1985.968376	142.700000
1987.683908	149.900000
1989.404261	132.400000
1991.120814	130.200000
1992.833571	141.500000
1994.549425	125.100000
1996.263205	139.600000
1997.976636	123.700000
1999.687996	150.300000
2001.400729	131.900000
2003.109670	116.700000
2004.821705	144.100000
2006.528230	139.100000
2008.237848	140.500000
2009.945398	139.700000
2011.652601	121.600000
2013.357738	135.000000
2015.062528	130.600000
2016.768690	137.300000
2018.471070	125.500000
2020.174822	129.900000
2021.876510	130.700000
2023.577854	130.100000
2025.278852	121.100000
2026.977790	143.800000
2028.678098	125.200000
2030.374632	143.800000
2032.072537	124.400000
2033.768383	133.800000
2035.467315	131.700000
2037.160761	145.600000
2038.855579	116.600000
2040.550053	119.200000
2042.240759	125.700000
2043.934549	124.600000
2045.624572	107.700000
2047.315966	129.600000
2049.005307	126.800000
2050.696018	117.300000
2052.382966	124.800000
2054.069575	141.300000
2055.757554	119.800000
2057.441773	138.700000
2059.127362	124.500000
2060.812612	132.000000
2062.495814	124.900000
2064.180385	124.900000
2065.859494	125.400000
2067.543388	130.500000
2069.221822	136.300000
2070.903332	118.000000
2072.581092	118.200000
2074.258514	129.000000
2075.937306	126.700000
2077.614056	126.900000
2079.288764	123.600000
2080.964841	111.600000
2082.638878	118.200000
2084.312579	126.300000
2085.985945	114.300000
2087.657273	137.600000
2089.328266	111.700000
2090.998925	128.500000
2092.669249	122.400000
2094.339240	137.900000
2096.007195	119.500000
2097.674817	119.600000
2099.340404	109.100000
2101.007361	125.000000
2102.672283	128.300000
2104.336874	129.000000
2105.999433	127.700000
2107.663360	147.200000
2109.325257	132.600000
2110.986822	133.100000
2112.648056	124.000000
2114.307262	117.500000
2115.966137	130.100000
2117.624683	118.300000
2119.282899	102.400000
2120.937391	123.100000
2122.594948	111.800000
2124.252176	139.000000
2125.905682	108.500000
2127.560556	130.200000
2129.211712	109.100000
2130.865929	120.600000
2132.516430	119.700000
2134.168297	144.600000
2135.814756	113.100000
2137.465970	127.100000
2139.113470	130.000000
2140.762337	132.500000
2142.409186	121.400000
2144.055708	127.100000
2145.701905	116.100000
2147.344394	126.200000
2148.989941	120.500000
2150.631781	118.300000
2152.276678	127.300000
2153.917870	117.700000
2155.558738	120.400000
2157.199282	114.000000
2158.837814	116.600000
2160.477712	136.000000
2162.113910	114.300000
2163.751475	133.400000
2165.388716	125.400000
2167.023948	130.900000
2168.658859	133.600000
2170.293448	156.100000
2171.927715	107.400000
2173.558289	121.000000
2175.191915	118.100000
2176.821849	126.800000
2178.453148	103.600000
2180.082442	115.700000
2181.711417	118.500000
2183.340073	131.800000
2184.968409	123.100000
2186.594742	125.200000
2188.220757	110.600000
2189.844771	117.600000
2191.470149	102.800000
2193.093528	139.500000
2194.718270	107.800000
2196.339332	125.000000
2197.960077	107.600000
2199.582187	134.400000
2201.202299	110.100000
2202.820414	127.400000
2204.438214	120.900000
2206.055699	141.500000
2207.672868	135.000000
2209.289722	137.600000
2210.906261	100.900000
2212.520806	117.600000
2214.133359	133.700000
2215.747276	121.000000
2217.359202	128.200000
2218.972491	137.200000
2220.583790	103.900000
2222.193099	131.300000
2223.803772	134.500000
2225.412456	121.100000
2227.020828	122.500000
2228.627212	126.700000
2230.234960	113.300000
2231.840721	116.400000
2233.446171	122.600000
2235.049636	103.400000
2236.654464	117.600000
2238.257309	121.200000
2239.858170	125.400000
2241.460393	128.000000
2243.060635	103.700000
2244.662239	116.100000
2246.260191	111.300000
2247.859505	135.000000
2249.456839	101.000000
2251.053864	126.300000
2252.652252	135.100000
2254.246991	130.500000
2255.839753	115.600000
2257.433878	136.500000
2259.029364	146.000000
2260.621206	124.200000
2262.212741	108.500000
2263.805637	148.200000
2265.393224	130.500000
2266.985508	127.700000
2268.572484	122.200000
2270.162489	117.500000
2271.747189	122.100000
2273.336583	137.800000
2274.920674	119.900000
2276.506127	129.200000
2278.089610	125.000000
2279.676120	130.100000
2281.258996	117.800000
2282.841568	117.700000
2284.423837	100.400000
2286.002477	138.800000
2287.584140	107.200000
2289.162175	123.300000
2290.743233	122.000000
2292.320665	122.600000
2293.896132	123.200000
2295.474622	136.400000
2297.049488	105.700000
2298.624053	112.600000
2300.198318	112.800000
2301.772282	131.600000
2303.345946	111.700000
2304.919309	110.600000
2306.489054	111.100000
2308.058500	118.800000
2309.630965	99.900000
2311.198154	121.300000
2312.768362	119.900000
2314.334955	128.000000
2315.902908	118.100000
2317.468905	114.100000
2319.034605	115.000000
2320.600008	126.000000
2322.163456	124.200000
2323.728264	131.300000
2325.289464	107.900000
2326.853678	122.600000
2328.412631	126.000000
2329.974597	124.000000
2331.534613	114.200000
2333.094333	119.600000
2334.652104	94.900000
2336.209580	137.700000
2337.766762	106.800000
2339.321997	118.200000
2340.876937	111.600000
2342.431584	118.500000
2343.985937	104.600000
2345.539996	109.400000
2347.093761	118.600000
2348.645583	112.300000
2350.195461	106.900000
2351.748347	126.000000
2353.295991	106.300000
2354.846642	137.100000
2356.393702	106.200000
2357.942121	134.900000
2359.490247	101.800000
2361.034785	122.400000
2362.580681	120.600000
2364.124639	133.100000
2365.669954	99.700000
2367.211684	129.400000
2368.754771	115.800000
2370.295923	136.700000
2371.836785	126.900000
2373.377358	141.700000
2374.917641	111.800000
2376.457636	122.300000
2377.994053	112.300000
2379.533471	111.600000
2381.069312	108.800000
2382.606509	136.500000
2384.140131	110.600000
2385.676754	114.400000
2387.211445	105.500000
2388.744207	112.000000
2390.276682	146.900000
2391.807230	111.400000
2393.340775	122.200000
2394.869109	122.000000
2396.398799	126.400000
2397.928204	112.700000
2399.457323	129.400000
2400.986158	120.200000
2402.509787	123.600000
2404.038053	116.800000
2405.561115	118.400000
2407.088811	123.100000
2408.609668	108.600000
2410.135158	120.200000
2411.657087	127.100000
2413.180372	131.000000
2414.701736	100.200000
2416.221180	129.600000
2417.741979	136.500000
2419.260859	123.000000
2420.779457	125.500000
2422.296138	151.000000
2423.814173	133.800000
2425.331927	141.500000
2426.846130	132.900000
2428.360052	144.500000
2429.873694	143.900000
2431.388691	139.500000
2432.900139	131.500000
2434.412942	129.000000
2435.923832	133.800000
2437.434442	145.400000
2438.943141	137.100000
2440.454827	164.100000
2441.962968	134.500000
2443.470832	164.000000
2444.978418	141.300000
2446.482463	163.600000
2447.989494	144.900000
2449.494616	171.700000
2450.999461	162.600000
2452.502399	166.600000
2454.005060	173.800000
2455.507445	165.900000
2457.007925	166.300000
2458.509758	153.800000
2460.009687	148.800000
2461.509340	162.900000
2463.008717	163.300000
2464.506192	154.200000
2466.001765	156.700000
2467.500319	151.300000
2468.995343	143.200000
2470.491721	134.900000
2471.984571	145.000000
2473.478775	139.100000
2474.972705	140.800000
2476.463112	154.900000
2477.956495	147.700000
2479.447981	129.100000
2480.937570	136.000000
2482.426887	146.600000
2483.914309	128.100000
2485.404706	129.700000
2486.891584	123.400000
2488.379814	143.700000
2489.864528	135.400000
2491.348971	143.800000
2492.834766	139.400000
2494.318668	144.600000
2495.803922	115.600000
2497.284042	139.000000
2498.767134	118.100000
2500.248336	138.600000
2501.729269	116.300000
2503.208313	141.800000
2504.687088	135.200000
2506.165595	139.900000
2507.643834	117.600000
2509.121804	138.100000
2510.596270	126.900000
2512.073704	129.700000
2513.547635	135.400000
2515.022916	130.500000
2516.497931	116.300000
2517.969444	130.300000
2519.442307	118.700000
2520.913288	118.800000
2522.385619	123.800000
2523.852837	137.200000
2525.323020	120.600000
2526.791323	123.400000
2528.259361	104.900000
2529.727134	117.600000
2531.194642	114.000000
2532.661885	130.000000
2534.125636	106.400000
2535.590737	129.300000
2537.053961	121.500000
2538.518535	102.000000
2539.979619	105.900000
2541.442053	137.300000
2542.904224	120.300000
2544.362909	129.700000
2545.826166	112.800000
2547.284326	116.800000
2548.743835	120.900000
2550.198251	123.900000
2551.657236	130.700000
2553.114350	142.300000
2554.569593	104.400000
2556.024575	135.100000
2557.477687	136.100000
2558.932148	138.200000
2560.384740	121.200000
2561.837072	127.000000
2563.287536	137.500000
2564.740956	147.100000
2566.189294	111.300000
2567.640588	137.300000
2569.090015	110.400000
2570.535970	128.600000
2571.984881	130.100000
2573.430320	122.200000
2574.877108	144.800000
2576.322032	125.400000
2577.766699	142.600000
2579.212713	134.900000
2580.655260	116.300000
2582.099155	130.100000
2583.539585	125.800000
2584.981362	129.800000
2586.421280	122.200000
2587.862545	122.200000
2589.300349	134.900000
2590.741102	140.600000
2592.176792	139.800000
2593.615432	133.100000
2595.052215	138.200000
2596.487141	153.700000
2597.925016	127.000000
2599.357832	128.800000
2600.791996	110.200000
2602.224306	145.300000
2603.657962	112.100000
2605.089765	131.400000
2606.521315	141.100000
2607.952611	135.500000
2609.382055	131.100000
2610.811248	159.900000
2612.238589	161.000000
2613.667277	142.500000
2615.095712	143.400000
2616.520700	154.300000
2617.947035	152.600000
2619.371521	140.600000
2620.797353	135.400000
2622.219741	140.200000
2623.643475	154.300000
2625.065362	177.800000
2626.487000	179.900000
2627.906792	161.100000
2629.327930	178.600000
2630.748818	178.200000
2632.166268	156.800000
2633.586657	182.700000
2635.003609	197.600000
2636.420313	199.200000
2637.836768	197.500000
2639.252975	212.200000
2640.668933	215.000000
2642.083051	224.800000
2643.496922	231.400000
2644.908953	240.000000
2646.322329	247.600000
2647.732275	251.100000
2649.145156	256.800000
2650.554610	286.200000
2651.963817	282.800000
2653.371187	308.400000
2654.781493	327.200000
2656.189962	336.600000
2657.596596	369.000000
2659.002985	402.200000
2660.407540	417.100000
2661.813439	469.300000
2663.217505	478.800000
2664.621326	507.900000
2666.024904	542.700000
2667.426649	583.600000
2668.829738	628.500000
2670.229409	664.400000
2671.630424	712.300000
2673.028023	745.300000
2674.428552	775.900000
2675.825666	832.400000
2677.224123	864.700000
2678.620752	910.900000
2680.017139	927.300000
2681.413285	962.400000
2682.807604	957.200000
2684.203266	996.200000
2685.595518	967.500000
2686.989114	970.200000
2688.380885	935.500000
2689.773998	951.800000
2691.165288	896.000000
2692.554755	873.300000
2693.943982	817.900000
2695.332970	817.200000
2696.723300	759.700000
2698.108645	718.000000
2699.496914	686.500000
2700.883363	683.100000
2702.269573	632.800000
2703.655545	600.600000
2705.038117	585.600000
2706.422032	541.500000
2707.805709	511.100000
2709.189148	482.600000
2710.569191	457.400000
2711.950576	431.300000
2713.330145	412.400000
2714.711056	373.300000
2716.090151	367.600000
2717.467433	340.800000
2718.846056	333.400000
2720.222866	320.100000
2721.599440	276.900000
2722.975778	305.000000
2724.350304	269.000000
2725.726171	255.200000
2727.098651	232.700000
2728.474047	235.300000
2729.844483	223.000000
2731.216260	233.000000
2732.587802	204.700000
2733.957536	215.900000
2735.328611	211.000000
2736.697877	197.900000
2738.066911	185.600000
2739.434137	190.600000
2740.801131	169.800000
2742.167892	177.400000
2743.534420	166.500000
2744.899143	159.300000
2746.263635	147.400000
2747.627894	145.600000
2748.991921	141.000000
2750.355717	156.300000
2751.716139	129.800000
2753.079472	153.000000
2754.437862	141.800000
2755.799162	145.500000
2757.157091	124.000000
2758.517930	146.500000
2759.876968	113.900000
2761.232638	154.500000
2762.591216	133.100000
2763.946428	132.100000
2765.301410	125.500000
2766.654595	130.400000
2768.010687	111.600000
2769.363415	116.800000
2770.715914	127.800000
2772.068185	126.600000
2773.421795	121.800000
2774.772043	131.300000
2776.120498	118.100000
2777.471857	129.100000
2778.819857	117.200000
2780.169196	127.300000
2781.516742	106.700000
2782.864061	98.200000
2784.211154	121.800000
2785.556456	113.300000
2786.901532	94.900000
2788.246382	120.300000
2789.591005	118.900000
2790.932277	113.700000
2792.274887	107.100000
2793.617271	129.200000
2794.959431	108.300000
2796.298241	109.300000
2797.639950	121.600000
2798.978312	108.100000
2800.318011	107.900000
2801.655924	102.000000
2802.992053	121.300000
2804.327958	106.100000
2805.665201	95.200000
2807.000660	134.900000
2808.335896	111.000000
2809.669349	111.600000
2811.004140	111.300000
2812.335589	122.600000
2813.669934	96.600000
2814.999381	119.400000
2816.330165	104.400000
2817.660727	127.500000
2818.989510	100.500000
2820.319629	107.000000
2821.647970	102.900000
2822.976090	121.100000
2824.302432	97.700000
2825.630111	92.200000
2826.954457	112.700000
2828.280138	104.400000
2829.604044	118.100000
2830.927731	123.000000
2832.252753	97.300000
2833.574445	112.000000
2834.895919	102.100000
2836.217174	109.600000
2837.538210	87.800000
2838.857474	107.400000
2840.178073	100.500000
2841.496900	104.400000
2842.815509	108.500000
2844.132347	92.900000
2845.448968	89.100000
2846.765372	116.900000
2848.080007	90.000000
2849.395976	99.800000
2850.708625	94.900000
2852.022610	100.200000
2853.336377	93.000000
2854.649929	110.500000
2855.961713	107.100000
2857.271731	107.100000
2858.583084	89.000000
2859.891122	117.700000
2861.200495	103.200000
2862.509652	98.500000
2863.818594	79.200000
2865.125773	98.300000
2866.431188	90.700000
2867.737938	124.300000
2869.042925	89.600000
2870.347699	92.800000
2871.650711	115.000000
2872.956605	88.800000
2874.257643	100.800000
2875.560016	109.200000
2876.860629	103.000000
2878.162576	95.900000
2879.464310	104.700000
2880.762739	96.200000
2882.062503	83.500000
2883.360508	113.600000
2884.658302	81.600000
2885.954340	107.300000
2887.251711	96.000000
2888.547326	110.000000
2889.842730	88.000000
2891.137924	107.300000
2892.429819	80.400000
2893.724591	92.900000
2895.016066	100.700000
2896.308874	85.900000
2897.601472	90.600000
2898.890776	106.300000
2900.181412	92.000000
2901.470297	87.200000
2902.760515	94.300000
2904.047440	102.200000
2905.335699	95.900000
2906.622207	106.900000
2907.908508	89.000000
2909.194600	93.000000
2910.478944	103.300000
2911.766160	91.900000
2913.048548	103.300000
2914.332269	90.600000
2915.614244	94.900000
2916.896012	106.000000
2918.176034	104.000000
2919.458926	102.500000
2920.740073	83.700000
2922.017938	92.700000
2923.298672	111.100000
2924.576125	92.700000
2925.853372	100.800000
2927.128878	94.000000
2928.407251	101.800000
2929.680809	88.400000
2930.957235	87.100000
2932.231920	101.200000
2933.504865	93.000000
2934.779140	87.400000
2936.051676	95.500000
2937.324008	96.100000
2938.593066	77.500000
2939.864990	97.300000
2941.135176	89.600000
2942.405159	94.500000
2943.674938	94.100000
2944.942980	93.700000
2946.209287	92.100000
2947.475391	96.000000
2948.742825	83.200000
2950.008525	103.700000
2951.274022	97.300000
2952.539317	104.800000
2953.801347	73.600000
2955.064708	78.500000
2956.327866	95.000000
2957.589293	117.600000
2958.852049	98.600000
2960.113074	92.200000
2961.372367	82.900000
2962.631461	89.700000
2963.890354	85.400000
2965.149047	86.900000
2966.407540	83.600000
2967.664304	97.200000
2968.920868	72.800000
2970.175705	95.400000
2971.431871	87.300000
2972.684781	106.900000
2973.939021	104.300000
2975.193062	93.300000
2976.445377	93.400000
2977.697494	109.600000
2978.947886	80.600000
2980.201133	84.800000
2981.449603	78.600000
2982.700927	99.000000
2983.949003	92.900000
2985.196881	82.800000
2986.444562	74.400000
2987.692047	85.600000
2988.937810	91.600000
2990.183376	87.100000
2991.430270	86.300000
2992.673920	113.200000
2993.918898	75.600000
2995.160633	92.000000
2996.405218	88.600000
2997.648085	85.400000
2998.887711	78.800000
3000.130187	91.100000
3001.369424	101.000000
3002.609988	100.600000
3003.848835	83.800000
3005.087488	106.900000
3006.324425	91.000000
3007.562689	121.000000
3008.799239	82.500000
3010.035594	109.400000
3011.271756	85.400000
3012.506205	88.800000
3013.740460	86.700000
3014.974522	84.100000
3016.206872	93.300000
3017.437510	87.700000
3018.670994	82.200000
3019.902766	76.200000
3021.132828	86.800000
3022.362698	73.300000
3023.590858	69.100000
3024.820344	68.800000
3026.048122	78.100000
3027.275708	98.300000
3028.504620	89.300000
3029.728790	88.800000
3030.955803	75.000000
3032.179592	69.300000
3033.404708	70.100000
3034.628117	69.600000
3035.851337	93.300000
3037.072851	78.200000
3038.297206	99.500000
3039.516826	82.700000
3040.737771	84.000000
3041.958528	85.700000
3043.177581	95.000000
3044.397960	91.600000
3045.615122	89.200000
3046.833609	89.100000
3048.050394	84.600000
3049.266992	78.300000
3050.483401	77.600000
3051.696598	62.400000
3052.912632	74.100000
3054.125454	83.800000
3055.341113	79.200000
3056.552049	108.300000
3057.764310	74.200000
3058.976385	97.400000
3060.188273	76.800000
3061.398463	68.200000
3062.608467	87.300000
3063.818286	89.700000
3065.026408	74.800000
3066.234344	98.200000
3067.440586	78.100000
3068.648151	74.200000
3069.854023	74.000000
3071.059709	73.800000
3072.265210	71.000000
3073.469018	78.100000
3074.674150	73.900000
3075.877590	60.500000
3077.079337	77.400000
3078.280901	96.200000
3079.482281	73.900000
3080.683477	90.600000
3081.882983	80.700000
3083.082305	76.800000
3084.282951	65.700000
3085.481907	69.800000
3086.677669	80.800000
3087.876260	52.600000
3089.071657	56.800000
3090.268377	87.100000
3091.461905	77.300000
3092.658261	66.300000
3093.852931	92.700000
3095.044410	73.400000
3096.240220	58.700000
3097.431337	79.100000
3098.623776	69.700000
3099.813028	86.300000
3101.005106	55.800000
3102.195499	77.100000
3103.382707	60.000000
3104.571238	81.900000
3105.761091	67.100000
3106.947759	77.800000
3108.134248	77.200000
3109.320557	78.300000
3110.508188	72.800000
3111.692638	90.100000
3112.875407	66.300000
3114.061000	82.900000
3115.244912	55.300000
3116.427146	106.900000
3117.609201	59.000000
3118.791079	69.100000
3119.972778	78.300000
3121.152799	84.300000
3122.331144	65.300000
3123.512310	79.600000
3124.690300	77.000000
3125.868113	76.800000
3127.045749	76.400000
3128.221710	92.800000
3129.397494	69.600000
3130.574600	70.900000
3131.750031	72.100000
3132.923789	82.200000
3134.095875	60.600000
3135.269281	70.400000
3136.442512	65.900000
3137.614070	90.500000
3138.786950	69.300000
3139.956662	79.700000
3141.127695	65.700000
3142.297057	78.600000
3143.464750	67.600000
3144.635258	73.400000
3145.801107	52.900000
3146.971266	68.300000
3148.136767	61.900000
3149.302095	77.900000
3150.467249	67.200000
3151.632229	68.500000
3152.798530	84.700000
3153.960177	68.200000
3155.123145	46.900000
3156.285939	70.300000
3157.448561	84.000000
3158.609518	91.200000
3159.770302	58.000000
3160.930914	83.700000
3162.089863	70.400000
3163.248639	77.700000
3164.407244	52.200000
3165.565677	72.000000
3166.723938	73.300000
3167.880537	82.700000
3169.035475	71.800000
3170.191732	84.700000
3171.346329	58.800000
3172.500754	55.100000
3173.653520	69.800000
3174.806116	84.000000
3175.958541	48.600000
3177.110797	72.800000
3178.262883	82.700000
3179.411822	61.200000
3180.563568	61.900000
3181.713656	82.000000
3182.862088	62.900000
3184.010351	74.300000
3185.158444	67.400000
3186.306369	69.300000
3187.452639	69.300000
3188.598740	68.700000
3189.743186	58.200000
3190.887465	84.200000
3192.031576	64.900000
3193.177005	68.100000
3194.319294	62.500000
3195.461417	72.200000
3196.603372	84.000000
3197.745161	72.100000
3198.886782	70.000000
3200.025267	81.600000
3201.165070	52.600000
3202.306191	82.600000
3203.444177	55.600000
3204.580514	73.600000
3205.716685	63.800000
3206.854174	68.300000
3207.990013	58.400000
3209.127170	66.000000
3210.259714	61.700000
3211.396540	65.600000
3212.528754	71.500000
3213.662286	92.500000
3214.795652	63.400000
3215.925891	87.900000
3217.058928	69.700000
3218.188839	93.300000
3219.320067	82.800000
3220.448169	73.300000
3221.579068	71.200000
3222.708324	79.600000
3223.835935	94.900000
3224.960425	75.000000
3226.089190	60.600000
3227.214833	90.000000
3228.340313	76.100000
3229.464152	100.600000
3230.590785	66.500000
3231.712821	96.700000
3232.836173	76.900000
3233.959363	92.200000
3235.082391	84.500000
3236.203779	96.200000
3237.325006	85.000000
3238.444594	108.800000
3239.564021	93.100000
3240.681810	97.800000
3241.802392	111.300000
3242.919859	97.100000
3244.037167	93.200000
3245.154313	110.400000
3246.269824	103.200000
3247.386650	84.400000
3248.500365	89.900000
3249.616870	97.600000
3250.731741	92.700000
3251.843503	86.100000
3252.955106	94.400000
3254.068023	100.400000
3255.180782	90.600000
3256.290434	85.000000
3257.401400	77.200000
3258.512208	87.900000
3259.621385	72.700000
3260.728930	68.500000
3261.837790	86.300000
3262.946491	65.300000
3264.052090	78.800000
3265.159003	63.200000
3266.264288	61.000000
3267.370886	74.600000
3268.474384	78.100000
3269.579196	66.900000
3270.683851	60.000000
3271.785407	91.600000
3272.886808	62.200000
3273.989522	69.200000
3275.092079	42.800000
3276.191540	58.200000
3277.293785	70.100000
3278.392934	61.300000
3279.490459	49.200000
3280.587828	72.200000
3281.687980	63.900000
3282.785038	58.500000
3283.881941	64.200000
3284.978689	55.700000
3286.070879	57.300000
3287.167317	79.600000
3288.262134	71.800000
3289.356795	47.300000
3290.449835	64.600000
3291.542721	51.600000
3292.633986	67.800000
3293.726564	67.500000
3294.817521	45.100000
3295.906859	78.100000
3296.996044	69.800000
3298.086542	63.800000
3299.173955	37.900000
3300.261216	82.200000
3301.349789	61.800000
3302.438209	62.500000
3303.522082	53.700000
3304.610197	55.500000
3305.695231	55.300000
3306.778648	48.900000
3307.863378	72.500000
3308.946493	56.200000
3310.030919	52.700000
3311.112267	50.800000
3312.194927	65.800000
3313.275973	48.400000
3314.356868	56.500000
3315.436150	56.800000
3316.515281	55.400000
3317.595723	68.500000
3318.673092	65.200000
3319.751771	58.700000
3320.828840	66.800000
3321.905758	61.500000
3322.981065	60.100000
3324.056223	70.800000
3325.132692	61.500000
3326.206091	62.000000
3327.279341	62.000000
3328.353902	70.100000
3329.426853	53.500000
3330.498197	74.600000
3331.570851	42.700000
3332.640438	52.700000
3333.711336	64.300000
3334.780627	56.500000
3335.851229	66.700000
3336.920224	63.700000
3337.987613	50.400000
3339.053397	38.400000
3340.123407	51.900000
3341.190354	48.800000
3342.254239	42.700000
3343.320892	65.700000
3344.385940	55.400000
3345.449385	62.700000
3346.512684	58.300000
3347.575836	61.200000
3348.638842	39.100000
3349.701702	62.900000
3350.762960	43.900000
3351.821161	67.800000
3352.883583	55.800000
3353.942948	65.800000
3355.002168	70.700000
3356.062698	76.400000
3357.118718	52.400000
3358.177503	68.600000
3359.231780	70.100000
3360.288820	61.800000
3361.344263	61.800000
3362.401014	43.700000
3363.456168	58.500000
3364.509724	71.000000
3365.561683	64.600000
3366.616404	67.000000
3367.668076	61.500000
3368.719605	54.800000
3369.772443	41.700000
3370.822233	35.200000
3371.873331	56.700000
3372.921384	44.200000
3373.972197	53.000000
3375.019964	65.500000
3376.067589	56.800000
3377.115071	57.100000
3378.160961	50.800000
3379.208159	47.000000
3380.252315	51.500000
3381.299229	42.300000
3382.344551	53.000000
3383.386833	51.400000
3384.428973	46.700000
3385.472421	62.800000
3386.515729	57.600000
3387.557446	57.600000
3388.599022	62.000000
3389.640458	64.100000
3390.680304	50.000000
3391.718563	66.000000
3392.758129	57.200000
3393.797554	65.300000
3394.835392	46.800000
3395.871643	48.500000
3396.907755	35.300000
3397.945174	58.800000
3398.979560	52.300000
3400.015253	50.900000
3401.050807	53.000000
3402.083330	57.200000
3403.118606	44.100000
3404.150851	69.900000
3405.182958	51.900000
3406.213481	55.100000
3407.245312	32.300000
3408.277003	46.000000
3409.305668	40.500000
3410.334194	68.300000
3411.364028	54.500000
3412.393723	53.900000
3413.420393	31.300000
3414.448370	45.200000
3415.473322	59.800000
3416.501024	60.900000
3417.525703	49.300000
3418.551688	53.100000
3419.576093	50.500000
3420.600362	60.600000
3421.623052	52.300000
3422.645606	67.800000
3423.669466	65.100000
3424.690306	64.900000
3425.711011	59.500000
3426.733021	57.300000
3427.752013	49.200000
3428.770870	55.800000
3429.791032	52.900000
3430.808178	52.900000
