-117.384298	2.882143
-114.714698	5.085714
-112.048033	6.616833
-109.382120	7.612388
-106.719139	8.209266
-104.054729	8.544356
-101.393249	8.754545
-98.730339	10.672028
-96.072537	10.782517
-93.413304	10.977622
-90.754821	10.404895
-88.099261	9.532867
-85.442273	5.652448
-82.790382	6.294406
-80.137062	6.739161
-77.486662	8.509790
-74.834832	9.823077
-72.188093	13.723077
-69.539924	15.490909
-66.892499	18.978322
-64.247987	20.069930
-61.602047	21.846853
-58.961188	23.983916
-56.318900	23.026573
-53.679520	20.303497
-51.038712	19.634965
-48.398644	21.338462
-45.763648	22.230769
-43.127224	25.659441
-40.493702	29.695105
-37.858752	30.560839
-35.228867	36.241259
-32.595390	37.590210
-29.966975	44.220280
-27.339293	47.855245
-24.710184	34.275524
-22.086131	-59.481818
-19.458489	-399.674126
-16.835900	-1408.930070
-14.214043	-2613.781119
-11.592916	632.788112
-8.972519	6949.858741
-6.355010	12253.909091
-3.736073	16021.884615
-1.120022	18221.058741
1.495301	18858.383217
4.109897	17931.025874
6.721610	15452.579720
9.334752	11490.716084
11.942860	6282.555245
14.554550	610.614685
17.161209	-3209.528671
19.769296	-2108.127273
22.376659	-177.065734
24.978997	51.148252
27.584913	54.365734
30.185807	47.911888
32.788129	44.963636
35.385434	41.423776
37.986314	36.449650
40.582180	36.215385
43.179473	33.158042
45.776047	28.680420
48.367612	26.600000
50.960605	24.200699
53.550737	22.974825
56.142297	22.570629
58.730997	21.753846
61.321124	21.521678
63.906253	23.445455
66.492808	23.286713
69.078650	23.076224
71.661638	22.893706
74.246052	18.254545
76.823338	19.206993
79.404190	21.859441
81.982193	22.709091
84.559486	22.792308
87.138205	24.874126
89.711943	27.903497
92.287107	29.779720
94.859428	28.768531
97.431041	28.187413
99.999814	30.769231
102.570014	29.727273
105.137376	27.504895
107.706163	30.344755
110.272114	35.569930
112.835230	35.904895
115.401902	39.774126
117.959353	48.426573
120.522489	64.406294
123.080666	90.300699
125.642396	130.146154
128.199170	205.618881
130.757371	333.391608
133.310619	500.217483
135.863168	725.402098
138.419268	998.225175
140.970421	1290.838462
143.520875	1586.837063
146.070632	1856.039161
148.617571	2080.777622
151.163813	2249.631469
153.711481	2350.960839
156.258453	2395.674825
158.800490	2404.642657
161.341833	2382.781818
163.882483	2341.195105
166.424559	2303.381119
168.963823	2271.380420
171.500279	2248.356643
174.036043	2230.120979
176.573233	2206.968531
179.109732	2195.655245
181.643425	2189.063636
184.174315	2183.278322
186.704516	2184.972028
189.236142	2183.679720
191.764967	2179.047552
194.290993	2174.352448
196.816333	2168.151049
199.343099	2167.650350
201.867067	2166.812587
204.390351	2156.741958
206.912950	2157.262937
209.432756	2169.027972
211.951879	2182.863636
214.470319	2197.878322
216.990183	2222.503497
219.503046	2253.572028
222.019440	2291.730070
224.535152	2334.146853
227.045974	2376.825874
229.558222	2415.678322
232.067686	2449.838462
234.576472	2473.803497
237.084580	2498.791608
239.594111	2509.060839
242.098762	2510.628671
244.602738	2507.957343
247.108137	2505.246154
249.608661	2496.219580
252.112708	2494.096503
254.609785	2490.118881
257.110384	2479.482517
259.608212	2470.379720
262.105367	2467.163636
264.601849	2460.292308
267.093468	2466.241958
269.588607	2463.488112
272.080980	2467.580420
274.572682	2477.343357
277.061620	2475.047552
279.551983	2477.763636
282.039583	2492.470629
284.524425	2497.921678
287.012780	2506.951748
289.494196	2528.048951
291.979126	2569.594406
294.459211	2617.781818
296.942808	2670.773427
299.421562	2705.748951
301.901740	2729.737762
304.379165	2733.651049
306.855927	2714.263636
309.332026	2695.690909
311.805376	2686.048951
314.278064	2675.849650
316.750091	2668.506294
319.221457	2661.784615
321.690079	2654.424476
324.158041	2644.573427
326.627425	2618.885315
329.091987	2581.890210
331.560053	2536.400000
334.023299	2484.675524
336.485887	2445.709091
338.947819	2417.131469
341.409094	2405.242657
343.867635	2391.171329
346.327598	2371.997203
348.784828	2353.441259
351.241404	2329.846154
353.697326	2306.623077
356.150519	2273.621678
358.605133	2252.946154
361.054946	2232.109091
363.508255	2217.501399
365.956766	2207.009091
368.404626	2188.535664
370.853907	2164.544056
373.298395	2138.720280
375.744305	2113.344056
378.189566	2095.104895
380.632107	2073.660140
383.074001	2049.304895
385.515248	2027.048951
387.953779	2015.953846
390.393732	2004.695804
392.830971	1998.813986
395.265498	1993.757343
397.703513	1987.027273
400.136751	1975.836364
402.571411	1962.362238
405.001297	1951.346154
407.434669	1944.218881
409.863271	1936.644755
412.291232	1925.992308
414.720613	1916.010490
417.145229	1913.467133
419.571267	1910.664336
421.996664	1903.316084
424.421421	1897.056643
426.841420	1880.560140
429.262840	1854.688112
431.681563	1826.509091
434.101707	1802.955245
436.519156	1775.286713
438.938025	1751.226573
441.354201	1718.876923
443.765630	1694.297203
446.180535	1666.289510
448.592750	1638.353147
451.004331	1607.923077
453.415278	1583.269930
455.823539	1554.867832
458.231167	1530.618182
460.638164	1515.691608
463.044528	1507.176224
465.448210	1504.531469
467.851262	1512.770629
470.253684	1517.890909
472.655477	1537.555944
475.054591	1550.483217
477.455125	1570.715385
479.855030	1591.354545
482.250212	1620.429371
484.648861	1644.183916
487.042790	1676.698601
489.436093	1719.788811
491.828770	1772.972028
494.220822	1838.127273
496.614292	1936.809091
499.003051	2102.379021
501.389143	2430.947552
503.776654	3110.932168
506.163543	4389.786014
508.547768	6267.281119
510.933412	8527.613986
513.316393	10781.400699
515.696714	12694.232867
518.078454	14014.593007
520.457535	14585.079021
522.838035	14333.654545
525.215877	13323.382517
527.591064	11707.297203
529.965633	9805.241259
532.341621	8007.416783
534.714955	6636.263636
537.089707	5710.081119
539.459774	5117.212587
541.829225	4691.896503
544.200094	4352.614685
546.566283	4068.167133
548.933890	3828.133566
551.298851	3611.462937
553.663199	3427.189510
556.026935	3265.060140
558.392088	3137.271329
560.752568	3017.895804
563.114467	2917.955944
565.473726	2829.199301
567.830346	2751.133566
570.190411	2677.107692
572.543786	2608.839161
574.900605	2541.353147
577.254788	2478.340559
579.608364	2415.085315
581.961331	2361.597902
584.311667	2315.437063
586.663419	2279.276923
589.008495	2241.880420
591.359035	2209.047552
593.702901	2171.642657
596.052229	2137.396503
598.396909	2110.203497
600.738963	2089.340559
603.082435	2085.486014
605.423284	2099.931469
607.763531	2136.997902
610.101157	2188.444755
612.442218	2245.450350
614.778641	2302.764336
617.116481	2336.472028
619.451704	2335.146853
621.784311	2306.859441
624.118334	2252.934965
626.449744	2181.397203
628.780555	2103.583916
631.110768	2047.746853
633.440383	1999.300699
635.765376	1969.525874
638.095810	1940.036364
640.421622	1923.267133
642.744828	1905.581119
645.069449	1888.035664
647.391465	1864.060140
649.712888	1845.511189
652.031707	1821.808392
654.351942	1801.040559
656.671584	1794.979720
658.988625	1796.341259
661.305074	1787.676224
663.618925	1789.085315
665.934192	1780.402797
668.246862	1784.534965
670.560947	1789.674126
672.870432	1803.496503
675.181333	1809.682517
677.489641	1819.965035
679.797361	1823.174825
682.106496	1821.769930
684.411038	1816.805594
686.714993	1801.042657
689.018363	1774.288112
691.323147	1753.446154
693.623345	1728.179720
695.924957	1708.013287
698.225985	1684.330070
700.522430	1661.861538
702.820291	1635.480420
705.117568	1620.732867
707.414262	1605.352448
709.706380	1595.246154
712.001909	1582.761538
714.292865	1579.416084
716.585235	1574.110490
718.875029	1575.637762
721.164243	1582.843357
723.452878	1588.048951
725.738941	1588.434266
728.026417	1591.542657
730.311322	1597.426573
732.595650	1602.895804
734.877409	1606.074126
737.160582	1617.327972
739.443178	1615.023077
741.721219	1621.587413
744.000673	1614.051748
746.279552	1607.955944
748.557855	1604.762238
750.831609	1597.666434
753.106777	1584.051748
755.381371	1576.972028
757.653405	1571.744056
759.926853	1564.087413
762.197743	1562.694406
764.466077	1562.336364
766.735824	1553.678322
769.003017	1549.586713
771.269639	1542.719580
773.535691	1540.613986
775.799192	1535.469231
778.064106	1537.006993
780.328450	1532.731469
782.588265	1538.127273
784.849493	1546.155245
787.110152	1553.656643
789.368266	1563.581818
791.623835	1567.780420
793.882795	1573.066434
796.135256	1574.583217
798.393084	1579.574825
800.646392	1581.416084
802.897161	1571.848252
805.149342	1569.977622
807.398985	1559.656643
809.650039	1558.417483
811.896582	1557.148951
814.144537	1549.410490
816.389958	1544.835664
818.636790	1533.580420
820.883061	1521.240559
823.124828	1510.001399
825.369977	1495.095105
827.608654	1479.589510
829.850713	1457.934266
832.088274	1446.828671
834.327247	1436.220979
836.563693	1434.453846
838.801550	1432.769231
841.036882	1433.408392
843.269691	1433.187413
845.503911	1434.626573
847.735609	1440.876923
849.966751	1442.447552
852.197340	1439.381119
854.427373	1436.914685
856.656853	1433.542657
858.881851	1432.493706
861.110224	1422.688811
863.334118	1409.879720
865.559422	1393.036364
867.780251	1380.630070
870.004452	1368.214685
872.224180	1366.771329
874.445319	1367.044755
876.665907	1370.583916
878.883985	1380.166434
881.103474	1390.993706
883.318495	1405.862238
885.532970	1417.662238
887.746896	1422.985315
889.960276	1425.509091
892.173108	1428.971329
894.385394	1430.302098
896.595177	1431.002797
898.804415	1434.620979
901.013108	1435.038462
903.219302	1440.173427
905.426905	1444.702098
907.632010	1446.498601
909.836572	1453.680420
912.038639	1461.805594
914.242115	1474.058741
916.443097	1495.186014
918.643538	1528.137762
920.845386	1568.972727
923.040844	1642.761538
925.239661	1734.696503
927.434039	1849.617483
929.631775	1993.364336
931.825075	2157.297902
934.019784	2326.263636
936.212007	2481.141259
938.403692	2611.456643
940.594839	2717.423776
942.783503	2792.062238
944.971630	2839.425175
947.157277	2857.251049
949.346276	2867.681818
951.530852	2857.290909
953.714893	2855.748252
955.902284	2860.546853
958.081371	2872.698601
960.263809	2883.051748
962.445713	2882.014685
964.625143	2880.844056
966.802099	2882.940559
968.980464	2886.435664
971.160236	2886.589510
973.333659	2883.578322
975.510428	2880.460140
977.682790	2863.450350
979.856560	2834.993007
982.025926	2776.751049
984.198637	2703.056643
986.368881	2596.574126
988.538597	2474.567133
990.707784	2343.295804
992.872574	2216.355944
995.040705	2102.693007
997.204442	1997.597203
999.369585	1922.013986
1001.532270	1864.497203
1003.694428	1827.227273
1005.854130	1803.567133
1008.013308	1778.720280
1010.173892	1763.916783
1012.332021	1735.625175
1014.489626	1713.244056
1016.646708	1689.902098
1018.803267	1665.646154
1020.955446	1641.909091
1023.109031	1616.000699
1025.262095	1596.056643
1027.412711	1580.493007
1029.564732	1572.911888
1031.712380	1567.456643
1033.863360	1563.213287
1036.009969	1557.207692
1038.156060	1547.802797
1040.301631	1542.296503
1042.448608	1531.937063
1044.589296	1523.055245
1046.733314	1515.900000
1048.874891	1508.781818
1051.015952	1502.042657
1053.158417	1494.658042
1055.294603	1487.413287
1057.434115	1482.418182
1059.569271	1476.715385
1061.707752	1470.775524
1063.841879	1469.417483
1065.975493	1467.565035
1068.110512	1461.845455
1070.241181	1460.852448
1072.373255	1453.273427
1074.502900	1445.392308
1076.632033	1437.578322
1078.760654	1424.104895
1080.888764	1407.426573
1083.014448	1390.197902
1085.139622	1373.884615
1087.266200	1365.388112
1089.388441	1359.761538
1091.512085	1353.448252
1093.631396	1349.651049
1095.755935	1348.018182
1097.874229	1338.425175
1099.993928	1334.061538
1102.111208	1337.866434
1104.227982	1331.168531
1106.344249	1325.141259
1108.458101	1318.496503
1110.573356	1310.783916
1112.684289	1304.820280
1114.798533	1304.288112
1116.908457	1299.981818
1119.019785	1303.164336
1121.130608	1302.657343
1123.237115	1295.655944
1125.346932	1292.883217
1127.452434	1297.042657
1129.559339	1287.398601
1131.660029	1283.997902
1133.765931	1279.680420
1135.867524	1276.781818
1137.970520	1271.576224
1140.073015	1267.302098
1142.169303	1263.772727
1144.270799	1261.635664
1146.367992	1253.399301
1148.464686	1243.800699
1150.560882	1233.825874
1152.656581	1228.583217
1154.751781	1223.768531
1156.844586	1227.521678
1158.938792	1235.930769
1161.026807	1244.530070
1163.120020	1249.590909
1165.207045	1247.618182
1167.297369	1257.174825
1169.383406	1260.690909
1171.472740	1257.888112
1173.555893	1256.516783
1175.640448	1252.275524
1177.726405	1252.973427
1179.808080	1257.422378
1181.891157	1264.374825
1183.971848	1274.441259
1186.052047	1280.842657
1188.131755	1282.269231
1190.210972	1279.863636
1192.287807	1289.693007
1194.362261	1289.688112
1196.440006	1289.593007
1198.513482	1291.753147
1200.588358	1286.218182
1202.658967	1282.472028
1204.730978	1278.150350
1206.800612	1274.610490
1208.871647	1269.500000
1210.942194	1262.501399
1213.008480	1249.216783
1215.076167	1245.158741
1217.141482	1243.903497
1219.208197	1244.283217
1221.270656	1251.176224
1223.336400	1255.418182
1225.397891	1256.544755
1227.460781	1262.290909
1229.521304	1270.381119
1231.581343	1274.564336
1233.640900	1276.723776
1235.698091	1280.092308
1237.754801	1278.366434
1239.809148	1280.883217
1241.866775	1283.641259
1243.922040	1293.223776
1245.973064	1302.809790
1248.025488	1312.030070
1250.077432	1322.167832
1252.127018	1337.074825
1254.176125	1349.848951
1256.224754	1358.071329
1258.272904	1361.449650
1260.320575	1369.285315
1262.364017	1367.897203
1264.410733	1366.624476
1266.455096	1369.979720
1268.498983	1373.402797
1270.540519	1372.069930
1272.579704	1376.234965
1274.622163	1379.164336
1276.660399	1386.226573
1278.700034	1389.484615
1280.739194	1390.888811
1282.774135	1392.260839
1284.810475	1396.805594
1286.844471	1394.660839
1288.879865	1395.036364
1290.911045	1397.954545
1292.943624	1397.267133
1294.975730	1393.121678
1297.005496	1392.870629
1299.036660	1380.695804
1301.063616	1376.334266
1303.091970	1368.317483
1305.116120	1365.538462
1307.143534	1363.828671
1309.166746	1363.539860
1311.191356	1359.893007
1313.213632	1364.309790
1315.237305	1376.276224
1317.258645	1387.182517
1319.279517	1393.887413
1321.299922	1403.415385
1323.316134	1406.034266
1325.333743	1413.871329
1327.349024	1413.902797
1329.367564	1419.339161
1331.381915	1420.909091
1333.393940	1421.706993
1335.409222	1419.362937
1337.420319	1424.179720
1339.432813	1430.569231
1341.441124	1433.121678
1343.452691	1431.094406
1345.458218	1427.773427
1347.467001	1414.244056
1349.471606	1395.451049
1351.479465	1378.823077
1353.486862	1357.169231
1355.488228	1334.459441
1357.490991	1318.544056
1359.493293	1306.260839
1361.495136	1297.597203
1363.496519	1294.341259
1365.495589	1290.139161
1367.494200	1281.976224
1369.492353	1277.747552
1371.490047	1277.133566
1373.483579	1277.107692
1375.478507	1279.864336
1377.472977	1275.292308
1379.466992	1268.513287
1381.458698	1263.011888
1383.449950	1255.660839
1385.438896	1245.305594
1387.429237	1237.878322
1389.419123	1222.406993
1391.406706	1210.908392
1393.393834	1203.220979
1395.378662	1200.506993
1397.364883	1194.113986
1399.348805	1192.634965
1401.332274	1190.041259
1403.315291	1191.316783
1405.296009	1195.330769
1407.278123	1209.801399
1409.257939	1222.944056
1411.237305	1237.640559
1413.212531	1247.548951
1415.190997	1263.220979
1417.167168	1269.290909
1419.142891	1275.800699
1421.118164	1278.631469
1423.091146	1283.609790
1425.063680	1289.593706
1427.035767	1297.709790
1429.007405	1299.164336
1430.974915	1311.554545
1432.947500	1315.817483
1434.912278	1318.653147
1436.882128	1322.661538
1438.847855	1324.174126
1440.814974	1322.264336
1442.779810	1320.674126
1444.740526	1322.345455
1446.706311	1322.910490
1448.666140	1326.939161
1450.627362	1330.423077
1452.589977	1333.898601
1454.548477	1346.740559
1456.506534	1357.550350
1458.464150	1370.025175
1460.421324	1380.850350
1462.376222	1398.370629
1464.332512	1407.679021
1466.286528	1412.300699
1468.240104	1413.227972
1470.191407	1411.558042
1472.144102	1408.129371
1474.094526	1400.745455
1476.044510	1388.188811
1477.994056	1380.045455
1479.941333	1367.990909
1481.886343	1353.662937
1483.832744	1341.924476
1485.778708	1335.560839
1487.724235	1323.364336
1489.667497	1314.657343
1491.610322	1310.105594
1493.550884	1303.421678
1495.492837	1294.466434
1497.432528	1286.776224
1499.371785	1279.793007
1501.310606	1277.613287
1503.247168	1270.465035
1505.185121	1266.430070
1507.120815	1264.490210
1509.056076	1260.658741
1510.989081	1262.551049
1512.921653	1263.726573
1514.853793	1263.687413
1516.785501	1266.748252
1518.714955	1271.675524
1520.645800	1276.020979
1522.576213	1281.368531
1524.502554	1286.377622
1526.430286	1290.037063
1528.355767	1293.632867
1530.280819	1298.530769
1532.205442	1298.864336
1534.129636	1303.406294
1536.051583	1312.511888
1537.974919	1323.562937
1539.896010	1343.330769
1541.814856	1364.834266
1543.735092	1385.490909
1545.653084	1404.946154
1547.570650	1427.821678
1549.485974	1455.493706
1551.402688	1484.498601
1553.315347	1515.610490
1555.231210	1551.116084
1557.144833	1599.639860
1559.056219	1656.443357
1560.968993	1723.021678
1562.877718	1810.216084
1564.787833	1912.195105
1566.697523	2042.710490
1568.606791	2219.554545
1570.513825	2461.299301
1572.418626	2779.252448
1574.324816	3165.909790
1576.228774	3573.062937
1578.132312	3957.618881
1580.035428	4249.479021
1581.936316	4405.304895
1583.838591	4400.856643
1585.738639	4229.649650
1587.640074	3915.303497
1589.537476	3510.387413
1591.434459	3068.409790
1593.331024	2651.078322
1595.228977	2309.458741
1597.121095	2055.995804
1599.016406	1879.681119
1600.911300	1764.437063
1602.803972	1689.090210
1604.696228	1636.194406
1606.586263	1590.708392
1608.475884	1550.042657
1610.365088	1525.285315
1612.253878	1506.235664
1614.140450	1494.480420
1616.028410	1486.702098
1617.912353	1479.169231
1619.797684	1467.050350
1621.682600	1454.156643
1623.565303	1436.455944
1625.449393	1420.370629
1627.329472	1392.145455
1629.210937	1360.853147
1631.090192	1333.518182
1632.970833	1307.491608
1634.845670	1289.110490
1636.725489	1273.093706
1638.601302	1257.737063
1640.476705	1247.953846
1642.353495	1238.972727
1644.224487	1228.739161
1646.098661	1221.962238
1647.968837	1214.829371
1649.842193	1202.174825
1651.713346	1193.994406
1653.582297	1184.791608
1655.452634	1174.478322
1657.318977	1169.422378
1659.186706	1163.520979
1661.052237	1158.472028
1662.919152	1152.942657
1664.782079	1150.002797
1666.646391	1146.351049
1668.508507	1142.883916
1670.370219	1139.552448
1672.233315	1132.602098
1674.094217	1127.260839
1675.952925	1120.404196
1677.811230	1118.853846
1679.670920	1114.804895
1681.524843	1115.530070
1683.381938	1115.676224
1685.238631	1116.557343
1687.091348	1117.167832
1688.947235	1115.472028
1690.799149	1112.438462
1692.650662	1106.809790
1694.501774	1100.193007
1696.352486	1091.365035
1698.202797	1085.930070
1700.050924	1084.916783
1701.900434	1080.658042
1703.744196	1079.307692
1705.592907	1076.204895
1707.435873	1067.723776
1709.282004	1061.790210
1711.124174	1058.065734
1712.969508	1057.095804
1714.809102	1052.494406
1716.650080	1048.847552
1718.492441	1047.492308
1720.330846	1047.900699
1722.170634	1051.359441
1724.008247	1051.495105
1725.845464	1050.085315
1727.680508	1045.300699
1729.516935	1039.135664
1731.351190	1037.702098
1733.185050	1034.486713
1735.018517	1031.059441
1736.848037	1027.834266
1738.680716	1020.251748
1740.509451	1019.056643
1742.341344	1015.445455
1744.169294	1011.846154
1745.996852	1004.629371
1747.824018	995.643357
1749.650793	987.288112
1751.477177	983.186713
1753.299623	978.044755
1755.125225	975.672028
1756.946892	974.086713
1758.769941	980.014685
1760.590828	987.906993
1762.411327	998.187413
1764.233207	1006.248951
1766.049387	1010.408392
1767.868719	1012.773427
1769.684124	1012.542657
1771.502679	1011.858741
1773.317309	1011.867133
1775.131553	1013.634266
1776.945409	1016.337762
1778.758879	1023.711888
1780.570196	1033.332867
1782.382894	1044.163636
1784.195205	1048.076923
1786.003599	1054.248252
1787.813373	1056.361538
1789.619233	1057.041958
1791.428238	1051.996503
1793.233330	1047.158042
1795.039803	1041.958741
1796.845892	1039.544755
1798.648071	1031.281818
1800.453393	1030.142657
1802.254807	1024.766434
1804.057601	1018.642657
1805.856489	1013.025874
1807.656758	1015.321678
1809.456645	1013.274126
1811.254391	1014.939860
1813.051755	1010.176224
1814.848740	1002.950350
1816.645344	997.484615
1818.439809	993.878322
1820.235653	984.139161
1822.025843	985.034266
1823.820928	980.846154
1825.610362	978.288811
1827.402932	981.214685
1829.193367	985.124476
1830.981668	990.181818
1832.773104	992.797902
1834.558894	989.904196
1836.346064	986.212587
1838.131102	986.602098
1839.919274	992.372727
1841.703560	993.673427
1843.485717	1003.398601
1845.269252	1008.583916
1847.050659	1012.816783
1848.833445	1015.161538
1850.612350	1017.185315
1852.392635	1021.123077
1854.170793	1022.302797
1855.950330	1021.302797
1857.727742	1021.299301
1859.503030	1017.211189
1861.279697	1023.500699
1863.054240	1025.921678
1864.830162	1030.924476
1866.600463	1035.875524
1868.373892	1040.206993
1870.145201	1048.157343
1871.916140	1060.911888
1873.688455	1070.427273
1875.455157	1082.012587
1877.224985	1090.005594
1878.990949	1097.823776
1880.760037	1104.530769
1882.525263	1112.893007
1884.290120	1115.181818
1886.056355	1115.136364
1887.818731	1110.893007
1889.580740	1101.033566
1891.342381	1091.633566
1893.103656	1080.812587
1894.864563	1062.106294
1896.625104	1045.727273
1898.383535	1029.607692
1900.141601	1014.941958
1901.897558	1007.282517
1903.654892	994.925874
1905.411861	980.784615
1907.166724	968.626573
1908.919481	952.427273
1910.671875	940.608392
1912.425644	931.340559
1914.177310	922.842657
1915.926874	912.332867
1917.677813	905.241259
1919.428390	902.097203
1921.175127	899.251049
1922.923241	902.766434
1924.669255	905.030769
1926.416645	906.430769
1928.161936	912.041958
1929.905130	915.895804
1931.649699	925.739161
1933.392173	929.955245
1935.134286	934.518881
1936.876039	936.780420
1938.617433	938.126573
1940.356732	940.083217
1942.095673	938.195105
1943.834256	937.377622
1945.570746	934.072727
1947.306879	926.723077
1949.044386	918.579021
1950.778071	910.318881
1952.513131	905.433566
1954.246103	898.950350
1955.978718	896.576224
1957.710976	896.355944
1959.442878	900.520979
1961.172694	907.585315
1962.900425	914.129371
1964.629531	919.802098
1966.358282	925.756643
1968.084949	923.223077
1969.811262	925.859441
1971.538948	923.516084
1973.261098	921.086014
1974.986349	919.359441
1976.707794	918.982517
1978.432338	918.623776
1980.154803	918.899301
1981.873464	919.019580
1983.595224	920.836364
1985.313182	923.370629
1987.032513	926.293007
1988.748045	927.106993
1990.468397	934.364336
1992.184951	933.693706
1993.897708	935.097203
1995.613562	938.588811
1997.327342	942.800699
1999.040773	945.736364
2000.752133	946.122378
2002.464866	947.920280
2004.173807	950.830070
2005.885842	949.211189
2007.592367	947.658741
2009.301985	948.565035
2011.009535	946.979021
2012.716738	943.635664
2014.421875	940.602098
2016.126665	936.572727
2017.832827	935.173427
2019.535207	930.206294
2021.238959	925.965035
2022.940647	921.746853
2024.641991	917.109790
2026.342989	912.501399
2028.041927	909.144755
2029.742235	906.088811
2031.438769	901.458741
2033.136674	896.916783
2034.832520	889.225874
2036.531452	884.584615
2038.224898	880.516783
2039.919715	871.272028
2041.614190	871.225175
2043.304896	867.730769
2044.998686	867.566434
2046.688709	865.788112
2048.380103	866.478322
2050.069444	870.287413
2051.760155	875.094406
2053.447103	884.480420
2055.133712	886.604895
2056.821691	892.676923
2058.505910	897.010490
2060.191499	902.397203
2061.876749	911.139860
2063.559951	908.999301
2065.244522	903.336364
2066.923631	897.406993
2068.607525	894.154545
2070.285959	892.948252
2071.967469	889.683916
2073.645229	890.100699
2075.322651	888.099301
2077.001443	889.534266
2078.678193	891.878322
2080.352901	896.065734
2082.028978	900.828671
2083.703015	901.164336
2085.376716	903.312587
2087.050082	907.813287
2088.721410	907.086713
2090.392403	908.905594
2092.063062	908.946853
2093.733386	911.905594
2095.403377	919.125874
2097.071332	918.809091
2098.738954	919.107692
2100.404541	920.794406
2102.071498	923.210490
2103.736420	927.425175
2105.401011	927.516084
2107.063570	927.472028
2108.727497	927.811189
2110.389394	933.442657
2112.050959	937.765035
2113.712193	941.941259
2115.371399	943.054545
2117.030274	942.861538
2118.688820	946.947552
2120.347036	948.262238
2122.001528	949.246853
2123.659085	955.327273
2125.316313	954.410490
2126.969819	958.241958
2128.624693	956.193706
2130.275849	955.733566
2131.930066	949.990909
2133.580567	940.502797
2135.232434	931.265035
2136.878893	923.339860
2138.530107	917.627972
2140.177607	908.847552
2141.826474	905.991608
2143.473323	907.581818
2145.119845	905.257343
2146.766042	912.308392
2148.408531	914.286014
2150.054078	919.065734
2151.695918	919.225874
2153.340815	918.833566
2154.982007	921.351748
2156.622875	919.837063
2158.263419	919.602098
2159.901951	919.536364
2161.541849	917.422378
2163.178047	915.425874
2164.815612	913.350350
2166.452853	913.454545
2168.088085	914.965734
2169.722996	915.903497
2171.357585	911.282517
2172.991852	910.526573
2174.622426	910.204895
2176.256052	907.161538
2177.885986	909.310490
2179.517285	912.958042
2181.146579	909.530070
2182.775554	908.508392
2184.404210	906.481818
2186.032546	901.204196
2187.658879	901.854545
2189.284894	902.274825
2190.908908	899.863636
2192.534286	898.255944
2194.157665	893.648252
2195.782407	888.302098
2197.403469	887.663636
2199.024214	884.072727
2200.646324	879.051748
2202.266436	878.053147
2203.884551	876.605594
2205.502351	873.674825
2207.119836	879.030769
2208.737005	884.802797
2210.353859	891.132168
2211.970398	894.537762
2213.584943	896.848252
2215.197496	903.344755
2216.811413	908.474825
2218.423339	914.848252
2220.036628	916.753147
2221.647927	917.324476
2223.257236	916.677622
2224.867909	916.813986
2226.476593	915.203497
2228.084965	909.355245
2229.691349	903.637762
2231.299097	897.225874
2232.904858	894.332168
2234.510308	893.006294
2236.113773	889.616783
2237.718601	888.775524
2239.321445	883.697902
2240.922307	882.688811
2242.524530	881.075524
2244.124772	883.749650
2245.726376	881.353846
2247.324328	885.053846
2248.923642	891.175524
2250.520976	899.518881
2252.118001	915.356643
2253.716389	921.793007
2255.311128	931.155245
2256.903890	935.315385
2258.498015	938.878322
2260.093501	937.421678
2261.685343	933.614685
2263.276878	935.083217
2264.869774	929.250350
2266.457361	929.839161
2268.049645	931.697203
2269.636621	932.111189
2271.226626	939.604895
2272.811326	934.212587
2274.400719	931.132168
2275.984811	924.575524
2277.570264	919.263636
2279.153747	909.883916
2280.740257	900.424476
2282.323133	895.023077
2283.905705	887.603147
2285.487974	883.938462
2287.066614	874.919231
2288.648277	868.139161
2290.226312	863.073776
2291.807370	854.007692
2293.384801	848.896154
2294.960269	846.797902
2296.538759	844.968881
2298.113625	839.272028
2299.688190	831.839510
2301.262455	832.639860
2302.836419	831.140909
2304.410083	827.143357
2305.983446	822.044056
2307.553191	820.783916
2309.122637	815.834965
2310.695101	814.241958
2312.262291	815.744755
2313.832499	813.642657
2315.399092	810.759441
2316.967045	805.793007
2318.533042	804.648252
2320.098742	806.946154
2321.664145	813.295105
2323.227593	819.338462
2324.792401	827.538462
2326.353601	830.825175
2327.917815	828.004895
2329.476767	822.913986
2331.038734	816.490210
2332.598750	800.065035
2334.158470	785.622378
2335.716241	779.148951
2337.273717	773.616084
2338.830899	773.248951
2340.386134	781.615385
2341.941074	790.547552
2343.495721	797.865035
2345.050074	803.562937
2346.604133	804.745455
2348.157898	804.557343
2349.709720	803.825175
2351.259598	799.602098
2352.812484	794.146853
2354.360128	795.431469
2355.910779	793.917483
2357.457839	796.102797
2359.006258	797.806294
2360.554384	800.935664
2362.098922	804.799301
2363.644818	811.044056
2365.188776	813.466434
2366.734091	821.700699
2368.275821	826.437063
2369.818908	827.660140
2371.360060	825.090909
2372.900922	824.690909
2374.441495	824.283217
2375.981778	819.544056
2377.521773	812.947552
2379.058190	809.079021
2380.597608	810.141958
2382.133449	808.320280
2383.670646	805.274825
2385.204268	806.413287
2386.740891	802.673427
2388.275582	802.437063
2389.808344	802.581119
2391.340819	800.141958
2392.871367	797.675524
2394.404912	793.264336
2395.933245	793.208392
2397.462936	793.581818
2398.992341	798.726573
2400.521460	801.747552
2402.050295	807.124476
2403.573924	813.474825
2405.102190	823.204196
2406.625252	830.592308
2408.152948	839.238462
2409.673805	840.746853
2411.199295	842.143357
2412.721224	849.155245
2414.244509	856.965734
2415.765873	861.590909
2417.285317	867.096503
2418.806116	872.749650
2420.324996	876.527972
2421.843594	883.622378
2423.360275	896.584615
2424.878310	902.482517
2426.396064	913.893007
2427.910267	918.588112
2429.424189	929.562937
2430.937831	940.352448
2432.452828	949.886014
2433.964276	958.958741
2435.477079	969.432168
2436.987968	978.542657
2438.498579	987.926573
2440.007278	1001.932168
2441.518963	1013.902098
2443.027105	1024.128671
2444.534969	1034.331469
2446.042555	1043.039860
2447.546600	1052.776923
2449.053631	1058.928671
2450.558753	1061.763636
2452.063598	1064.677622
2453.566535	1070.102098
2455.069197	1066.079720
2456.571582	1064.752448
2458.072062	1054.290210
2459.573895	1040.388112
2461.073824	1030.410490
2462.573477	1017.686014
2464.072854	1006.858042
2465.570329	998.611189
2467.065902	989.703497
2468.564455	975.893706
2470.059480	967.803497
2471.555858	961.211189
2473.048708	949.532168
2474.542912	941.928671
2476.036842	932.065035
2477.527248	923.891608
2479.020632	914.127972
2480.512118	906.961538
2482.001707	900.144056
2483.491024	896.079021
2484.978446	891.928671
2486.468843	891.279720
2487.955721	894.511888
2489.443951	894.231469
2490.928665	892.014685
2492.413108	897.532168
2493.898903	899.992308
2495.382805	897.801399
2496.868059	892.004196
2498.348178	887.837063
2499.831271	879.523776
2501.312473	873.181119
2502.793406	869.674825
2504.272450	869.648951
2505.751225	866.941958
2507.229732	860.330769
2508.707971	854.564336
2510.185941	854.513287
2511.660407	846.234266
2513.137841	842.734266
2514.611772	836.927972
2516.087053	828.432168
2517.562068	819.134965
2519.033581	813.142657
2520.506444	813.207692
2521.977425	811.442657
2523.449756	810.544755
2524.916974	809.729371
2526.387157	808.450350
2527.855460	805.606294
2529.323498	804.360140
2530.791271	806.008392
2532.258779	801.193706
2533.726022	799.995105
2535.189773	796.662937
2536.654874	796.386713
2538.118098	799.106294
2539.582672	798.012587
2541.043756	804.441259
2542.506190	808.512587
2543.968361	811.418182
2545.427046	817.750350
2546.890303	822.813287
2548.348463	823.025874
2549.807972	821.388112
2551.262388	819.862238
2552.721373	811.691608
2554.178487	806.987413
2555.633730	802.427273
2557.088712	802.268531
2558.541824	801.919580
2559.996285	801.213986
2561.448877	806.295105
2562.901209	813.577622
2564.351673	814.295105
2565.805093	809.833566
2567.253431	800.907692
2568.704725	796.022378
2570.154152	794.648252
2571.600107	795.502098
2573.049018	797.158042
2574.494457	801.774126
2575.941245	806.324476
2577.386169	815.542657
2578.830835	825.721678
2580.276850	834.063636
2581.719397	838.562238
2583.163292	833.728671
2584.603722	832.558042
2586.045499	838.782517
2587.485417	838.716084
2588.926682	837.367133
2590.364486	831.413287
2591.805239	826.922378
2593.240929	827.388811
2594.679569	826.554545
2596.116352	824.780420
2597.551278	824.970629
2598.989153	821.675524
2600.421969	818.620979
2601.856133	820.281818
2603.288443	819.148252
2604.722099	817.710490
2606.153902	820.251748
2607.585452	823.569231
2609.016748	828.078322
2610.446192	838.211888
2611.875384	846.747552
2613.302726	855.380420
2614.731414	861.258741
2616.159849	867.333566
2617.584837	873.754545
2619.011172	882.990210
2620.435658	894.297203
2621.861490	910.015385
2623.283878	926.287413
2624.707612	941.211888
2626.129499	953.297902
2627.551137	969.621678
2628.970929	980.303497
2630.392067	995.045455
2631.812955	1005.257343
2633.230405	1019.020280
2634.650794	1033.116084
2636.067746	1054.784615
2637.484449	1078.658042
2638.900905	1104.258741
2640.317111	1137.485315
2641.733070	1169.548951
2643.147188	1205.293007
2644.561059	1245.509091
2645.973090	1284.313986
2647.386466	1328.851748
2648.796412	1370.390909
2650.209293	1419.239161
2651.618746	1469.772028
2653.027954	1527.971329
2654.435324	1595.520979
2655.845630	1672.767832
2657.254099	1765.598601
2658.660733	1867.437762
2660.067122	1980.525175
2661.471677	2116.806294
2662.877576	2264.020280
2664.281642	2439.504196
2665.685463	2639.086014
2667.089041	2858.447552
2668.490786	3100.843357
2669.893875	3357.693706
2671.293546	3642.851748
2672.694561	3940.706294
2674.092160	4242.832867
2675.492689	4546.083916
2676.889803	4834.093706
2678.288260	5112.693007
2679.684889	5346.940559
2681.081276	5550.983916
2682.477422	5703.559441
2683.871741	5778.166434
2685.267403	5776.702797
2686.659655	5709.110490
2688.053250	5585.360140
2689.445022	5396.442657
2690.838135	5156.912587
2692.229425	4885.506993
2693.618892	4594.260839
2695.008119	4295.604196
2696.397107	3995.767832
2697.787437	3710.062238
2699.172782	3444.007692
2700.561051	3178.108392
2701.947500	2932.054545
2703.333710	2724.535664
2704.719682	2523.690210
2706.102254	2343.974825
2707.486169	2183.615385
2708.869846	2037.180420
2710.253285	1909.683217
2711.633328	1793.634266
2713.014713	1694.670629
2714.394282	1603.060839
2715.775193	1526.979021
2717.154288	1454.648951
2718.531570	1397.906993
2719.910193	1351.099301
2721.287003	1300.988112
2722.663577	1263.394406
2724.039915	1230.134266
2725.414441	1187.147552
2726.790308	1152.704196
2728.162788	1122.116084
2729.538184	1091.936364
2730.908620	1068.541958
2732.280397	1049.002098
2733.651939	1030.312587
2735.021673	1015.229371
2736.392748	1001.033566
2737.762014	985.271329
2739.131048	972.851049
2740.498274	956.332168
2741.865268	931.796503
2743.232029	913.155944
2744.598557	892.788811
2745.963280	871.406294
2747.327772	855.252448
2748.692031	843.748252
2750.056058	825.857343
2751.419854	817.360140
2752.780276	805.992308
2754.143609	795.479720
2755.501999	790.055944
2756.863299	782.329371
2758.221228	776.834965
2759.582067	769.724476
2760.941105	758.727273
2762.296775	752.716783
2763.655353	746.780420
2765.010564	745.469231
2766.365547	741.049650
2767.718732	743.151748
2769.074824	738.844056
2770.427552	736.532168
2771.780051	738.813287
2773.132322	737.538462
2774.485932	738.105594
2775.836180	738.267133
2777.184635	734.752448
2778.535994	734.732867
2779.883994	731.389510
2781.233332	728.274126
2782.580879	720.753147
2783.928198	716.025175
2785.275291	710.120979
2786.620593	707.998601
2787.965669	708.244755
2789.310518	708.169231
2790.655142	711.386713
2791.996414	712.758741
2793.339024	714.832168
2794.681408	716.993706
2796.023568	716.685315
2797.362378	714.525175
2798.704087	710.331469
2800.042449	709.190210
2801.382148	708.667133
2802.720061	710.035664
2804.056190	710.671329
2805.392095	711.045455
2806.729338	711.180420
2808.064797	712.459441
2809.400033	711.028671
2810.733486	711.062937
2812.068277	708.933566
2813.399726	708.827273
2814.734071	708.158741
2816.063518	710.539161
2817.394302	711.469930
2818.724864	711.572727
2820.053647	708.578322
2821.383766	701.555944
2822.712107	693.748252
2824.040227	684.995804
2825.366569	671.383916
2826.694248	662.491608
2828.018593	649.704196
2829.344275	641.703497
2830.668181	634.376923
2831.991868	630.491608
2833.316890	625.363636
2834.638582	622.807692
2835.960056	619.423077
2837.281311	618.369930
2838.602347	617.534266
2839.921611	619.011189
2841.242210	622.927273
2842.561037	622.963636
2843.879646	622.448252
2845.196484	623.418182
2846.513105	620.637063
2847.829509	617.450350
2849.144144	616.499301
2850.460113	614.118182
2851.772762	613.162937
2853.086747	614.534965
2854.400514	615.509091
2855.714066	620.797902
2857.025850	625.716783
2858.335868	626.803497
2859.647221	629.481119
2860.955259	633.583217
2862.264632	634.685315
2863.573789	633.763636
2864.882731	632.254545
2866.189909	628.863636
2867.495325	626.495804
2868.802075	628.244056
2870.107062	628.133566
2871.411836	626.120280
2872.714848	622.648252
2874.020742	621.816783
2875.321780	622.606294
2876.624153	626.266434
2877.924766	624.247552
2879.226713	622.840559
2880.528447	620.216084
2881.826876	618.025874
2883.126640	616.265035
2884.424645	616.974825
2885.722439	614.455944
2887.018477	611.635664
2888.315848	608.574126
2889.611463	610.315385
2890.906867	606.579720
2892.202061	605.075524
2893.493956	604.899301
2894.788728	605.365734
2896.080203	602.651049
2897.373011	600.825874
2898.665609	601.346853
2899.954913	601.831469
2901.245549	599.495105
2902.534434	603.865035
2903.824652	605.266434
2905.111577	607.444755
2906.399836	606.188811
2907.686344	609.727972
2908.972645	614.706294
2910.258737	615.883217
2911.543081	616.141958
2912.830296	617.835664
2914.112685	617.210490
2915.396406	615.931469
2916.678381	616.614685
2917.960148	622.555944
2919.240171	621.430769
2920.523063	619.090210
2921.804210	618.027273
2923.082075	613.988811
2924.362809	607.404895
2925.640262	600.810490
2926.917509	592.743357
2928.193015	586.465734
2929.471388	580.637063
2930.744946	577.287413
2932.021372	576.468531
2933.296057	576.770629
2934.569002	574.553147
2935.843277	576.551049
2937.115813	580.055944
2938.388145	580.300000
2939.657203	581.356643
2940.929127	581.616084
2942.199313	582.735664
2943.469296	582.286014
2944.739075	582.520280
2946.007117	579.780420
2947.273424	578.433566
2948.539528	576.139860
2949.806962	571.127273
2951.072662	569.137063
2952.338159	562.427972
2953.603454	555.118881
2954.865484	548.804895
2956.128845	544.827273
2957.392003	544.443357
2958.653430	542.117483
2959.916186	542.569231
2961.177211	543.711189
2962.436504	541.791608
2963.695598	541.297902
2964.954491	537.657343
2966.213184	534.139860
2967.471677	527.197203
2968.728441	521.818881
2969.985005	517.827273
2971.239842	518.323776
2972.496007	521.209091
2973.748918	523.647552
2975.003158	526.978322
2976.257199	528.257343
2977.509514	530.587413
2978.761631	533.938462
2980.012022	536.823776
2981.265269	539.909091
2982.513739	539.536364
2983.765064	537.361538
2985.013139	534.100699
2986.261018	530.031469
2987.508699	528.900000
2988.756184	526.386713
2990.001946	525.539860
2991.247513	523.370629
2992.494407	526.961538
2993.738057	530.506294
2994.983035	539.643357
2996.224769	545.613287
2997.469355	548.656643
2998.712222	550.386713
2999.951848	551.944056
3001.194324	551.329371
3002.433561	550.293706
3003.674125	549.771329
3004.912972	545.268531
3006.151625	540.066434
3007.388562	540.797203
3008.626826	542.267133
3009.863376	544.446853
3011.099731	547.572727
3012.335893	545.826573
3013.570342	548.930070
3014.804597	550.664336
3016.038659	547.256643
3017.271009	544.623077
3018.501647	541.288811
3019.735131	538.790210
3020.966903	537.551049
3022.196965	540.292308
3023.426835	544.539860
3024.654995	547.595105
3025.884481	553.059441
3027.112259	551.301399
3028.339845	556.509091
3029.568757	558.059441
3030.792927	560.344755
3032.019940	560.866434
3033.243729	561.616084
3034.468845	563.734965
3035.692254	561.587413
3036.915473	557.848951
3038.136987	560.025874
3039.361343	557.812587
3040.580962	557.718182
3041.801908	552.590909
3043.022665	550.679021
3044.241718	550.449650
3045.462097	550.821678
3046.679259	547.561538
3047.897746	543.666434
3049.114531	535.203497
3050.331129	527.843357
3051.547538	522.322378
3052.760735	519.572727
3053.976769	512.965734
3055.189591	507.730769
3056.405250	502.202797
3057.616186	500.942657
3058.828447	496.371329
3060.040522	492.875524
3061.252410	489.213986
3062.462600	485.466434
3063.672604	481.561189
3064.882423	480.481119
3066.090545	483.361888
3067.298481	480.020280
3068.504723	476.959091
3069.712288	475.355944
3070.918160	478.045804
3072.123846	480.864336
3073.329347	477.352098
3074.533155	478.267133
3075.738287	483.912937
3076.941727	486.213287
3078.143474	486.156294
3079.345038	485.966434
3080.546417	485.569930
3081.747614	481.767832
3082.947119	477.207692
3084.146442	475.741958
3085.347088	475.272727
3086.546044	474.109091
3087.741806	471.327273
3088.940397	470.598601
3090.135794	474.593706
3091.332514	473.076923
3092.526042	471.202098
3093.722398	470.848951
3094.917068	473.972028
3096.108547	478.063636
3097.304357	479.814685
3098.495474	488.313287
3099.687913	491.125175
3100.877165	495.293706
3102.069243	495.966434
3103.259636	495.176923
3104.446844	493.914685
3105.635375	492.579021
3106.825228	488.802797
3108.011896	488.825175
3109.198385	490.127972
3110.384694	486.899301
3111.572325	486.609790
3112.756775	490.248252
3113.939544	490.116783
3115.125136	494.328671
3116.309049	493.558741
3117.491283	494.860140
3118.673338	491.795105
3119.855216	493.151748
3121.036915	494.514685
3122.216936	496.906294
3123.395281	495.637063
3124.576447	497.703497
3125.754437	501.205594
3126.932250	503.413287
3128.109886	501.450350
3129.285847	504.497902
3130.461631	503.030769
3131.638737	497.581818
3132.814168	487.241259
3133.987926	480.380420
3135.160012	473.550350
3136.333418	465.239161
3137.506649	459.092308
3138.678207	460.695105
3139.851086	457.890210
3141.020799	458.202797
3142.191831	459.265734
3143.361194	465.308392
3144.528887	469.694406
3145.699395	470.391608
3146.865244	469.190210
3148.035403	467.460839
3149.200904	463.960839
3150.366232	462.724476
3151.531386	463.061538
3152.696366	467.559441
3153.862667	465.707692
3155.024314	466.574825
3156.187282	465.069231
3157.350076	463.570629
3158.512698	463.569930
3159.673655	462.918881
3160.834439	454.855245
3161.995051	453.288811
3163.154000	451.897902
3164.312776	458.386713
3165.471381	459.287413
3166.629814	463.369231
3167.788075	463.626573
3168.944674	466.279720
3170.099612	471.355944
3171.255869	473.386014
3172.410466	472.930769
3173.564891	473.160839
3174.717657	468.906294
3175.870253	470.478322
3177.022678	470.565734
3178.174934	472.878322
3179.327019	470.892308
3180.475959	471.606993
3181.627705	475.165734
3182.777793	476.173427
3183.926225	478.621678
3185.074488	478.561538
3186.222581	474.874825
3187.370506	473.627972
3188.516776	469.016783
3189.662877	461.760839
3190.807323	455.318881
3191.951602	451.181818
3193.095713	449.209091
3194.241142	448.357343
3195.383431	448.718182
3196.525554	448.394406
3197.667509	447.021678
3198.809298	447.301399
3199.950919	444.193007
3201.089404	443.767133
3202.229207	441.270629
3203.370328	436.851748
3204.508314	434.226573
3205.644651	430.506993
3206.780822	427.164336
3207.918311	428.346853
3209.054150	429.719580
3210.191307	431.019580
3211.323851	430.553147
3212.460677	429.238462
3213.592891	428.620280
3214.726422	430.673427
3215.859789	429.234965
3216.990028	424.448951
3218.123065	421.937762
3219.252976	418.944755
3220.384203	417.758741
3221.512306	419.477622
3222.643205	420.639161
3223.772460	419.600000
3224.900072	423.051748
3226.024562	425.813986
3227.153326	431.186014
3228.278970	437.707692
3229.404450	443.179720
3230.528289	454.422378
3231.654922	469.228671
3232.776958	484.763636
3233.900310	499.643357
3235.023500	512.365734
3236.146528	525.792308
3237.267916	536.490909
3238.389143	542.635664
3239.508731	550.695105
3240.628158	552.364336
3241.745947	554.204895
3242.866529	550.689510
3243.983996	549.690210
3245.101303	540.706993
3246.218450	529.184615
3247.333961	517.106993
3248.450787	505.253846
3249.564502	496.218881
3250.681007	482.016783
3251.795878	466.097902
3252.907640	459.314685
3254.019243	445.940559
3255.132160	439.586014
3256.244919	429.569930
3257.354571	425.150350
3258.465537	417.983217
3259.576345	413.060140
3260.685522	410.140559
3261.793067	412.327273
3262.901926	412.920280
3264.010628	410.655245
3265.116227	409.713986
3266.223140	411.163636
3267.328424	406.476923
3268.435023	405.923077
3269.538521	401.243357
3270.643333	400.876923
3271.747988	398.588811
3272.849544	395.548252
3273.950945	394.934965
3275.053659	396.100000
3276.156216	392.362937
3277.255677	391.416084
3278.357922	386.893007
3279.457071	383.579021
3280.554596	379.414685
3281.651965	377.476923
3282.752117	374.162238
3283.849175	374.263636
3284.946078	372.360839
3286.042826	371.746853
3287.135016	370.972028
3288.231454	370.254545
3289.326270	368.141958
3290.420932	365.707692
3291.513972	361.491608
3292.606858	357.876224
3293.698123	354.640559
3294.790701	352.584615
3295.881658	352.374825
3296.970996	351.099301
3298.060181	353.209091
3299.150679	353.062238
3300.238092	350.569930
3301.325353	350.718881
3302.413926	350.795804
3303.502346	349.302797
3304.586219	350.109091
3305.674334	348.196503
3306.759368	347.233566
3307.842785	348.766434
3308.927515	353.692308
3310.010630	356.629371
3311.095056	359.021678
3312.176404	359.379021
3313.259064	358.323776
3314.340110	355.960839
3315.421005	355.238462
3316.500286	353.566434
3317.579418	351.481119
3318.659860	348.613287
3319.737229	348.628671
3320.815908	346.433566
3321.892977	350.706993
3322.969895	354.417483
3324.045202	353.070629
3325.120360	355.466434
3326.196829	356.204895
3327.270228	355.525874
3328.343478	357.991608
3329.418038	355.599301
3330.490990	356.957343
3331.562333	355.881119
3332.634988	354.860839
3333.704575	353.248951
3334.775473	359.389510
3335.844764	360.683916
3336.915366	362.087413
3337.984361	363.962937
3339.051750	365.406294
3340.117534	363.916783
3341.187544	363.776224
3342.254491	362.265734
3343.318376	363.327972
3344.385029	358.602797
3345.450077	355.033566
3346.513522	353.869930
3347.576821	355.792308
3348.639973	354.573427
3349.702979	356.222378
3350.765839	354.065035
3351.827097	351.961538
3352.885298	349.861538
3353.947720	349.529371
3355.007085	350.281119
3356.066305	347.388811
3357.126835	345.789510
3358.182855	343.175524
3359.241640	342.982517
3360.295917	341.168531
3361.352957	339.444755
3362.408400	336.298601
3363.465151	335.006993
3364.520304	333.606294
3365.573861	335.361538
3366.625820	337.825175
3367.680541	342.713287
3368.732213	343.360839
3369.783742	347.034266
3370.836579	347.258042
3371.886369	351.206993
3372.937468	347.770629
3373.985521	343.869930
3375.036334	338.266434
3376.084101	333.310490
3377.131726	328.530070
3378.179208	328.708392
3379.225098	327.534266
3380.272296	327.163636
3381.316452	325.424476
3382.363366	323.827273
3383.408688	320.984615
3384.450969	322.865035
3385.493110	322.600000
3386.536558	322.827273
3387.579866	323.376923
3388.621583	325.110490
3389.663159	328.868531
3390.704595	332.130769
3391.744441	333.147552
3392.782700	340.127972
3393.822266	343.392308
3394.861691	342.193007
3395.899529	342.095804
3396.935780	343.679021
3397.971892	342.276224
3399.009311	338.583217
3400.043697	335.997203
3401.079390	334.738462
3402.114944	329.542657
3403.147467	324.779021
3404.182743	326.285315
3405.214988	329.520979
3406.247095	330.895105
3407.277618	330.997203
3408.309448	331.055245
3409.341140	332.469231
3410.369805	330.711888
3411.398331	328.681119
3412.428165	330.081818
3413.457860	329.444755
3414.484530	328.265035
3415.512507	327.888811
3416.537459	331.446154
3417.565161	330.291608
3418.589840	334.072727
3419.615825	333.593007
3420.640230	332.498601
3421.664499	332.404895
3422.687189	327.611888
3423.709743	324.251049
3424.733603	320.675524
3425.754443	317.995804
3426.775148	314.672927
3427.797158	312.156718
3428.816150	310.846653
3429.835007	311.142208
3430.855169	313.442857
3431.872315	318.148077
