-118.448435	10.900000
-115.778835	16.600000
-113.112170	-10.600000
-110.446257	15.400000
-107.783276	3.400000
-105.118866	15.300000
-102.457386	-9.700000
-99.794476	-3.000000
-97.136674	19.000000
-94.477441	13.800000
-91.818958	-7.900000
-89.163398	6.600000
-86.506410	-2.500000
-83.854519	-1.900000
-81.201199	5.600000
-78.550799	-3.800000
-75.898969	0.000000
-73.252230	-10.400000
-70.604061	-14.900000
-67.956636	-13.600000
-65.312124	8.200000
-62.666184	-18.800000
-60.025325	-3.800000
-57.383037	9.900000
-54.743657	-22.600000
-52.102849	-10.600000
-49.462781	5.300000
-46.827785	14.800000
-44.191360	18.800000
-41.557839	7.700000
-38.922889	3.600000
-36.293004	20.600000
-33.659527	4.400000
-31.031112	6.900000
-28.403430	16.400000
-25.774321	24.500000
-23.150268	15.100000
-20.522626	12.400000
-17.900037	23.200000
-15.278180	37.300000
-12.657053	63.200000
-10.036656	135.100000
-7.419147	480.500000
-4.800210	1621.000000
-2.184159	4496.300000
0.431164	9183.000000
3.045760	5431.100000
5.657473	693.300000
8.270615	90.100000
10.878723	28.500000
13.490413	20.900000
16.097072	22.300000
18.705159	17.100000
21.312522	28.700000
23.914860	38.400000
26.520776	10.200000
29.121670	9.700000
31.723992	13.600000
34.321297	12.100000
36.922177	14.500000
39.518043	-2.800000
42.115336	7.500000
44.711910	7.900000
47.303475	1.800000
49.896468	-3.900000
52.486600	1.100000
55.078160	19.500000
57.666860	26.400000
60.256987	-8.400000
62.842116	-2.700000
65.428671	4.000000
68.014513	14.500000
70.597501	10.300000
73.181915	12.900000
75.759201	-0.900000
78.340053	11.300000
80.918056	9.600000
83.495349	20.800000
86.074068	-12.300000
88.647806	15.500000
91.222970	19.600000
93.795291	28.100000
96.366904	2.100000
98.935677	25.700000
101.505877	24.300000
104.073239	23.100000
106.642026	6.700000
109.207977	9.900000
111.771093	35.800000
114.337765	37.800000
116.895216	23.400000
119.458352	45.900000
122.016529	37.500000
124.578259	53.400000
127.135034	87.700000
129.693234	127.600000
132.246482	209.500000
134.799031	269.300000
137.355131	411.000000
139.906284	560.000000
142.456738	707.900000
145.006496	841.800000
147.553434	926.300000
150.099676	1001.500000
152.647344	1033.500000
155.194317	1071.400000
157.736353	1041.300000
160.277696	1019.900000
162.818346	1006.700000
165.360422	990.300000
167.899687	1002.800000
170.436142	973.400000
172.971907	989.800000
175.509097	1010.600000
178.045595	995.000000
180.579288	984.300000
183.110178	1005.100000
185.640379	1013.200000
188.172005	983.400000
190.700830	998.500000
193.226856	944.500000
195.752197	975.400000
198.278962	968.300000
200.802930	957.300000
203.326214	973.000000
205.848813	957.500000
208.368619	925.200000
210.887742	947.200000
213.406182	955.300000
215.926046	994.500000
218.438909	1004.400000
220.955303	1022.100000
223.471015	1045.000000
225.981838	1105.800000
228.494085	1084.600000
231.003549	1075.100000
233.512335	1072.300000
236.020443	1089.800000
238.529974	1096.800000
241.034625	1104.300000
243.538601	1095.000000
246.044000	1074.100000
248.544524	1063.200000
251.048571	1099.700000
253.545648	1071.700000
256.046247	1113.300000
258.544075	1100.500000
261.041230	1073.700000
263.537712	1089.400000
266.029331	1092.900000
268.524470	1077.100000
271.016843	1079.000000
273.508545	1079.900000
275.997483	1116.700000
278.487846	1118.400000
280.975447	1114.700000
283.460288	1120.000000
285.948643	1143.000000
288.430059	1119.800000
290.914989	1113.300000
293.395074	1113.200000
295.878671	1180.700000
298.357425	1195.300000
300.837603	1222.400000
303.315028	1249.400000
305.791790	1208.000000
308.267889	1180.700000
310.741239	1145.800000
313.213927	1121.900000
315.685954	1127.300000
318.157320	1176.800000
320.625942	1179.100000
323.093904	1167.100000
325.563289	1136.500000
328.027850	1096.700000
330.495916	1097.300000
332.959162	1082.100000
335.421750	1091.500000
337.883682	1061.400000
340.344957	1059.300000
342.803498	1046.200000
345.263461	1033.400000
347.720691	1027.700000
350.177267	1010.600000
352.633189	1009.900000
355.086382	993.900000
357.540996	972.600000
359.990809	965.800000
362.444119	960.600000
364.892629	942.300000
367.340489	943.400000
369.789770	915.900000
372.234258	908.700000
374.680168	900.100000
377.125429	876.700000
379.567970	868.600000
382.009864	894.500000
384.451111	868.500000
386.889642	857.700000
389.329595	840.100000
391.766834	866.200000
394.201361	887.900000
396.639376	858.800000
399.072614	869.900000
401.507274	838.900000
403.937160	862.500000
406.370532	827.200000
408.799134	841.700000
411.227095	828.500000
413.656476	834.400000
416.081092	843.200000
418.507130	818.400000
420.932527	828.100000
423.357284	847.400000
425.777283	817.700000
428.198703	833.000000
430.617426	801.900000
433.037570	790.200000
435.455019	811.300000
437.873888	769.900000
440.290064	760.200000
442.701493	754.100000
445.116398	728.000000
447.528613	734.300000
449.940194	723.800000
452.351141	715.800000
454.759402	693.500000
457.167030	687.000000
459.574027	662.600000
461.980391	663.700000
464.384073	686.300000
466.787125	699.700000
469.189547	699.600000
471.591340	704.800000
473.990454	711.200000
476.390988	721.300000
478.790893	736.000000
481.186075	741.400000
483.584724	777.400000
485.978653	797.800000
488.371956	825.000000
490.764633	845.900000
493.156685	879.700000
495.550156	931.300000
497.938914	1020.800000
500.325006	1213.600000
502.712518	1445.600000
505.099406	1808.300000
507.483631	2417.900000
509.869275	3407.500000
512.252256	4696.300000
514.632577	6183.900000
517.014317	7477.600000
519.393398	7484.600000
521.773898	6828.600000
524.151740	5659.400000
526.526927	4726.800000
528.901496	3938.800000
531.277484	3386.300000
533.650818	2941.300000
536.025570	2683.600000
538.395637	2414.300000
540.765088	2209.700000
543.135957	2032.800000
545.502146	1866.200000
547.869753	1770.600000
550.234714	1649.600000
552.599062	1543.200000
554.962798	1485.000000
557.327951	1466.200000
559.688431	1398.400000
562.050330	1368.400000
564.409589	1280.300000
566.766209	1272.100000
569.126274	1225.600000
571.479649	1190.400000
573.836468	1166.800000
576.190651	1146.100000
578.544227	1134.500000
580.897194	1089.300000
583.247530	1075.600000
585.599282	1080.400000
587.944358	1032.700000
590.294898	1007.700000
592.638765	976.300000
594.988092	974.700000
597.332772	956.400000
599.674826	944.200000
602.018298	945.900000
604.359147	955.300000
606.699394	951.100000
609.037020	974.700000
611.378081	1003.700000
613.714504	1062.700000
616.052345	1101.600000
618.387567	1095.800000
620.720174	1073.100000
623.054197	1033.200000
625.385607	991.400000
627.716418	949.600000
630.046631	957.800000
632.376246	928.400000
634.701239	898.800000
637.031673	911.200000
639.357485	897.900000
641.680691	892.600000
644.005312	865.800000
646.327329	901.100000
648.648751	890.000000
650.967570	876.400000
653.287805	879.500000
655.607447	870.600000
657.924488	870.200000
660.240937	894.500000
662.554788	864.100000
664.870055	855.900000
667.182725	890.000000
669.496810	877.800000
671.806295	880.300000
674.117196	888.700000
676.425504	905.100000
678.733224	877.600000
681.042359	839.900000
683.346901	845.500000
685.650856	849.900000
687.954226	817.500000
690.259010	813.000000
692.559208	791.500000
694.860820	813.500000
697.161848	784.100000
699.458293	725.100000
701.756154	771.300000
704.053431	728.500000
706.350125	756.500000
708.642243	775.500000
710.937772	731.300000
713.228728	773.600000
715.521098	758.600000
717.810892	759.400000
720.100107	766.400000
722.388741	750.900000
724.674804	795.000000
726.962280	773.000000
729.247186	755.600000
731.531513	751.900000
733.813272	765.900000
736.096445	746.000000
738.379041	744.700000
740.657082	738.400000
742.936536	734.700000
745.215415	715.300000
747.493718	712.200000
749.767472	703.500000
752.042640	711.300000
754.317234	708.500000
756.589268	712.500000
758.862716	696.700000
761.133606	679.900000
763.401940	663.800000
765.671687	675.200000
767.938880	679.200000
770.205502	713.500000
772.471555	697.400000
774.735055	713.700000
776.999969	725.300000
779.264313	728.800000
781.524128	723.800000
783.785356	695.400000
786.046015	710.100000
788.304129	696.100000
790.559698	698.000000
792.818658	700.200000
795.071119	711.100000
797.328947	712.900000
799.582255	709.900000
801.833024	702.500000
804.085205	676.000000
806.334848	720.900000
808.585902	714.700000
810.832445	716.500000
813.080400	685.200000
815.325821	707.200000
817.572653	675.200000
819.818924	689.800000
822.060691	660.500000
824.305840	648.200000
826.544517	653.900000
828.786577	647.900000
831.024138	648.800000
833.263110	659.200000
835.499556	676.200000
837.737413	665.600000
839.972745	642.100000
842.205554	697.200000
844.439774	695.300000
846.671472	681.800000
848.902615	695.000000
851.133203	694.100000
853.363236	696.600000
855.592716	684.700000
857.817714	668.500000
860.046087	679.000000
862.269981	663.600000
864.495285	661.200000
866.716114	681.600000
868.940315	662.500000
871.160043	651.600000
873.381182	642.300000
875.601770	675.000000
877.819848	666.100000
880.039337	690.300000
882.254359	662.800000
884.468833	680.400000
886.682760	679.300000
888.896139	670.000000
891.108971	697.700000
893.321257	673.200000
895.531040	677.600000
897.740278	664.100000
899.948971	692.300000
902.155165	692.500000
904.362768	713.000000
906.567874	696.700000
908.772436	715.100000
910.974502	682.000000
913.177978	700.000000
915.378960	718.300000
917.579401	706.600000
919.781249	717.900000
921.976707	756.600000
924.175524	815.800000
926.369902	817.600000
928.567638	916.300000
930.760938	956.900000
932.955647	1064.400000
935.147870	1162.700000
937.339555	1214.500000
939.530702	1294.800000
941.719366	1297.400000
943.907493	1308.700000
946.093140	1286.500000
948.282139	1253.000000
950.466715	1274.600000
952.650756	1250.400000
954.838147	1264.100000
957.017234	1250.100000
959.199672	1243.300000
961.381576	1264.000000
963.561006	1254.900000
965.737963	1267.700000
967.916327	1218.400000
970.096099	1275.600000
972.269522	1272.100000
974.446291	1282.400000
976.618653	1244.400000
978.792423	1259.200000
980.961789	1228.300000
983.134500	1217.700000
985.304744	1157.300000
987.474460	1100.100000
989.643647	1010.000000
991.808437	919.700000
993.976568	895.400000
996.140305	849.300000
998.305448	816.800000
1000.468133	818.600000
1002.630291	784.800000
1004.789993	798.800000
1006.949171	758.600000
1009.109755	762.400000
1011.267884	772.100000
1013.425489	746.500000
1015.582571	738.700000
1017.739130	681.600000
1019.891309	697.500000
1022.044894	677.500000
1024.197958	648.500000
1026.348574	653.800000
1028.500595	665.200000
1030.648243	654.000000
1032.799223	641.400000
1034.945832	686.100000
1037.091923	633.600000
1039.237494	645.700000
1041.384471	643.400000
1043.525159	652.200000
1045.669177	626.600000
1047.810754	637.100000
1049.951815	638.000000
1052.094280	654.500000
1054.230466	664.900000
1056.369978	646.300000
1058.505134	662.400000
1060.643615	657.600000
1062.777742	620.200000
1064.911356	634.400000
1067.046375	618.700000
1069.177044	636.300000
1071.309118	627.800000
1073.438763	618.400000
1075.567896	572.800000
1077.696517	607.600000
1079.824627	589.700000
1081.950311	569.000000
1084.075485	581.700000
1086.202063	605.000000
1088.324304	552.800000
1090.447948	570.100000
1092.567259	592.200000
1094.691798	580.400000
1096.810092	595.500000
1098.929791	587.600000
1101.047071	601.100000
1103.163845	582.400000
1105.280112	626.000000
1107.393964	596.200000
1109.509219	581.800000
1111.620152	612.100000
1113.734396	587.400000
1115.844320	614.800000
1117.955648	594.900000
1120.066471	602.600000
1122.172979	602.600000
1124.282795	612.100000
1126.388297	608.000000
1128.495202	595.700000
1130.595892	556.600000
1132.701794	567.000000
1134.803387	569.500000
1136.906383	583.100000
1139.008878	559.100000
1141.105166	542.500000
1143.206662	534.900000
1145.303855	532.700000
1147.400549	554.800000
1149.496745	533.400000
1151.592444	528.900000
1153.687645	550.000000
1155.780449	544.700000
1157.874655	559.800000
1159.962670	531.900000
1162.055883	576.700000
1164.142908	565.700000
1166.233232	586.100000
1168.319269	572.700000
1170.408603	565.900000
1172.491756	564.300000
1174.576311	572.200000
1176.662268	561.200000
1178.743943	571.500000
1180.827020	569.300000
1182.907711	578.200000
1184.987910	553.800000
1187.067618	568.500000
1189.146835	561.100000
1191.223670	584.100000
1193.298124	566.400000
1195.375870	572.400000
1197.449345	575.900000
1199.524221	595.500000
1201.594830	563.800000
1203.666841	578.200000
1205.736475	559.200000
1207.807510	557.500000
1209.878057	544.000000
1211.944343	536.700000
1214.012030	512.700000
1216.077345	519.300000
1218.144060	534.700000
1220.206519	528.800000
1222.272263	533.800000
1224.333754	522.700000
1226.396644	527.200000
1228.457167	548.500000
1230.517206	508.400000
1232.576763	539.900000
1234.633954	565.000000
1236.690664	563.600000
1238.745011	558.000000
1240.802638	583.600000
1242.857903	581.100000
1244.908927	583.400000
1246.961351	596.900000
1249.013295	595.800000
1251.062881	567.400000
1253.111988	582.600000
1255.160617	563.700000
1257.208767	608.000000
1259.256439	591.500000
1261.299880	603.600000
1263.346596	594.900000
1265.390959	608.400000
1267.434846	591.800000
1269.476382	606.500000
1271.515567	600.500000
1273.558026	626.800000
1275.596262	620.000000
1277.635897	643.800000
1279.675057	622.000000
1281.709998	611.300000
1283.746339	605.800000
1285.780334	604.300000
1287.815728	613.600000
1289.846908	617.900000
1291.879487	588.200000
1293.911593	636.200000
1295.941359	604.100000
1297.972523	619.400000
1299.999479	600.400000
1302.027833	607.100000
1304.051983	621.600000
1306.079397	593.000000
1308.102609	578.800000
1310.127219	590.800000
1312.149495	597.100000
1314.173168	626.900000
1316.194508	581.200000
1318.215380	587.700000
1320.235786	593.200000
1322.251997	593.600000
1324.269606	598.500000
1326.284888	572.800000
1328.303427	563.900000
1330.317778	565.200000
1332.329803	534.200000
1334.345085	567.000000
1336.356182	562.200000
1338.368676	552.500000
1340.376987	516.300000
1342.388554	534.100000
1344.394081	516.900000
1346.402864	524.100000
1348.407469	512.900000
1350.415328	514.900000
1352.422725	524.600000
1354.424091	524.700000
1356.426854	521.000000
1358.429156	528.400000
1360.430999	532.100000
1362.432382	550.700000
1364.431452	539.200000
1366.430063	532.500000
1368.428216	536.100000
1370.425911	558.500000
1372.419442	533.600000
1374.414370	538.800000
1376.408841	523.900000
1378.402855	548.800000
1380.394561	532.500000
1382.385813	554.200000
1384.374759	532.400000
1386.365100	527.200000
1388.354986	522.900000
1390.342569	542.700000
1392.329697	528.300000
1394.314525	561.500000
1396.300746	528.400000
1398.284668	519.500000
1400.268137	558.200000
1402.251154	554.100000
1404.231872	532.700000
1406.213986	527.800000
1408.193802	505.100000
1410.173168	515.900000
1412.148394	524.700000
1414.126860	522.000000
1416.103031	543.000000
1418.078754	575.800000
1420.054027	535.500000
1422.027009	586.300000
1423.999543	548.400000
1425.971630	557.800000
1427.943268	562.700000
1429.910778	558.800000
1431.883363	563.400000
1433.848141	564.000000
1435.817991	553.000000
1437.783718	546.700000
1439.750837	560.400000
1441.715673	573.500000
1443.676390	592.400000
1445.642174	565.800000
1447.602003	575.700000
1449.563225	573.700000
1451.525840	586.100000
1453.484340	583.300000
1455.442398	592.200000
1457.400013	619.600000
1459.357187	622.600000
1461.312085	642.800000
1463.268375	655.800000
1465.222391	652.400000
1467.175967	636.900000
1469.127270	633.200000
1471.079965	577.100000
1473.030389	588.300000
1474.980373	571.700000
1476.929919	586.600000
1478.877196	574.100000
1480.822206	560.200000
1482.768607	534.100000
1484.714572	547.400000
1486.660098	559.600000
1488.603360	568.300000
1490.546185	547.100000
1492.486747	546.600000
1494.428700	532.000000
1496.368392	539.300000
1498.307648	542.600000
1500.246469	533.000000
1502.183031	548.800000
1504.120984	552.700000
1506.056679	533.500000
1507.991939	557.700000
1509.924944	531.000000
1511.857516	561.300000
1513.789656	555.800000
1515.721364	570.900000
1517.650818	575.000000
1519.581663	583.800000
1521.512077	562.300000
1523.438417	554.200000
1525.366149	599.000000
1527.291630	589.000000
1529.216682	572.700000
1531.141305	579.700000
1533.065499	567.400000
1534.987446	576.700000
1536.910782	570.200000
1538.831873	604.100000
1540.750719	590.500000
1542.670955	622.500000
1544.588947	604.400000
1546.506513	623.600000
1548.421837	626.600000
1550.338551	620.200000
1552.251210	619.000000
1554.167073	649.300000
1556.080696	625.800000
1557.992082	641.200000
1559.904856	619.600000
1561.813581	644.300000
1563.723696	640.100000
1565.633387	659.900000
1567.542654	651.700000
1569.449688	653.600000
1571.354489	700.400000
1573.260679	731.200000
1575.164637	707.900000
1577.068175	793.100000
1578.971291	833.600000
1580.872179	925.000000
1582.774454	1033.100000
1584.674502	1196.400000
1586.575937	1343.200000
1588.473339	1404.600000
1590.370322	1420.200000
1592.266887	1273.900000
1594.164840	1098.300000
1596.056958	913.800000
1597.952269	770.300000
1599.847163	728.100000
1601.739835	672.200000
1603.632091	643.800000
1605.522126	625.600000
1607.411747	643.600000
1609.300951	597.900000
1611.189741	598.200000
1613.076314	582.600000
1614.964273	616.600000
1616.848216	589.600000
1618.733547	572.800000
1620.618463	575.900000
1622.501166	541.000000
1624.385256	555.300000
1626.265335	534.500000
1628.146800	544.500000
1630.026055	548.400000
1631.906696	535.100000
1633.781533	547.600000
1635.661352	518.000000
1637.537165	529.900000
1639.412568	507.100000
1641.289358	499.900000
1643.160350	503.100000
1645.034524	510.000000
1646.904700	500.600000
1648.778056	495.900000
1650.649209	489.400000
1652.518160	494.900000
1654.388497	462.300000
1656.254840	491.400000
1658.122569	472.900000
1659.988100	478.300000
1661.855015	476.400000
1663.717942	479.900000
1665.582254	457.800000
1667.444370	490.700000
1669.306082	491.000000
1671.169178	482.200000
1673.030080	490.700000
1674.888788	484.200000
1676.747093	447.900000
1678.606783	497.500000
1680.460706	457.400000
1682.317801	508.000000
1684.174494	473.300000
1686.027211	457.200000
1687.883098	467.600000
1689.735012	467.100000
1691.586525	462.100000
1693.437637	462.400000
1695.288349	469.900000
1697.138660	449.500000
1698.986787	440.100000
1700.836297	449.900000
1702.680059	468.900000
1704.528770	466.500000
1706.371736	452.200000
1708.217867	452.600000
1710.060037	442.600000
1711.905371	433.100000
1713.744965	428.300000
1715.585943	428.500000
1717.428304	461.000000
1719.266709	450.100000
1721.106497	442.500000
1722.944110	439.600000
1724.781327	426.300000
1726.616371	435.900000
1728.452798	432.700000
1730.287053	451.500000
1732.120913	423.600000
1733.954380	433.900000
1735.783900	413.900000
1737.616579	420.300000
1739.445314	413.000000
1741.277207	407.100000
1743.105157	419.300000
1744.932715	423.300000
1746.759881	394.000000
1748.586656	420.000000
1750.413040	367.200000
1752.235487	411.800000
1754.061088	393.400000
1755.882755	413.200000
1757.705804	407.000000
1759.526692	411.500000
1761.347190	418.900000
1763.169070	421.700000
1764.985250	439.500000
1766.804582	435.500000
1768.619987	430.000000
1770.438542	425.300000
1772.253172	425.000000
1774.067416	421.300000
1775.881272	407.700000
1777.694742	420.200000
1779.506059	434.000000
1781.318757	435.900000
1783.131068	465.500000
1784.939462	468.000000
1786.749237	451.600000
1788.555096	447.600000
1790.364101	459.400000
1792.169193	462.700000
1793.975666	454.500000
1795.781755	440.500000
1797.583934	414.500000
1799.389256	406.000000
1801.190670	421.800000
1802.993464	412.000000
1804.792352	429.900000
1806.592621	408.900000
1808.392508	421.800000
1810.190254	407.100000
1811.987618	402.200000
1813.784603	430.000000
1815.581207	396.300000
1817.375672	393.900000
1819.171516	412.600000
1820.961706	405.300000
1822.756792	408.800000
1824.546225	417.700000
1826.338795	425.000000
1828.129230	423.600000
1829.917531	429.700000
1831.708967	453.000000
1833.494757	412.400000
1835.281927	434.800000
1837.066965	395.300000
1838.855137	435.200000
1840.639423	434.800000
1842.421580	458.000000
1844.205115	469.200000
1845.986522	444.800000
1847.769308	461.300000
1849.548214	476.500000
1851.328498	469.000000
1853.106656	469.500000
1854.886193	458.500000
1856.663605	477.400000
1858.438893	473.300000
1860.215560	480.100000
1861.990103	471.200000
1863.766025	482.600000
1865.536326	470.600000
1867.309755	479.300000
1869.081064	472.700000
1870.852003	467.100000
1872.624318	482.700000
1874.391020	504.400000
1876.160848	479.200000
1877.926812	484.500000
1879.695900	481.300000
1881.461126	490.400000
1883.225983	451.900000
1884.992218	499.700000
1886.754594	469.800000
1888.516603	493.000000
1890.278244	490.700000
1892.039519	486.500000
1893.800426	486.700000
1895.560967	477.700000
1897.319398	448.900000
1899.077464	455.700000
1900.833421	421.300000
1902.590756	438.200000
1904.347724	416.200000
1906.102587	437.800000
1907.855344	402.200000
1909.607738	411.200000
1911.361507	421.100000
1913.113173	404.200000
1914.862737	408.400000
1916.613677	408.300000
1918.364253	410.400000
1920.110990	425.700000
1921.859104	427.500000
1923.605118	422.300000
1925.352508	419.300000
1927.097799	420.000000
1928.840993	403.100000
1930.585563	420.000000
1932.328036	406.400000
1934.070149	403.100000
1935.811902	414.700000
1937.553296	412.500000
1939.292596	420.900000
1941.031536	408.800000
1942.770119	413.800000
1944.506609	425.800000
1946.242742	417.750000
1947.980249	409.700000
1949.713934	417.600000
1951.448994	430.700000
1953.181966	435.100000
1954.914581	401.900000
1956.646839	411.700000
1958.378741	411.200000
1960.108557	405.700000
1961.836289	424.000000
1963.565394	425.300000
1965.294145	444.000000
1967.020812	437.700000
1968.747125	428.000000
1970.474811	425.500000
1972.196961	429.300000
1973.922212	415.000000
1975.643657	418.200000
1977.368201	395.500000
1979.090666	390.800000
1980.809327	417.000000
1982.531087	382.200000
1984.249045	410.400000
1985.968376	404.200000
1987.683908	394.100000
1989.404261	424.100000
1991.120814	398.300000
1992.833571	401.200000
1994.549425	399.300000
1996.263205	381.600000
1997.976636	380.700000
1999.687996	388.800000
2001.400729	390.000000
2003.109670	384.200000
2004.821705	377.400000
2006.528230	390.200000
2008.237848	369.200000
2009.945398	369.500000
2011.652601	370.900000
2013.357738	367.000000
2015.062528	366.700000
2016.768690	389.300000
2018.471070	387.500000
2020.174822	403.400000
2021.876510	350.900000
2023.577854	358.500000
2025.278852	360.000000
2026.977790	356.400000
2028.678098	356.200000
2030.374632	361.400000
2032.072537	390.700000
2033.768383	362.200000
2035.467315	370.400000
2037.160761	389.600000
2038.855579	373.100000
2040.550053	380.600000
2042.240759	357.500000
2043.934549	371.900000
2045.624572	355.500000
2047.315966	373.400000
2049.005307	361.000000
2050.696018	360.300000
2052.382966	354.700000
2054.069575	386.300000
2055.757554	375.200000
2057.441773	389.600000
2059.127362	381.500000
2060.812612	393.100000
2062.495814	382.700000
2064.180385	402.400000
2065.859494	397.000000
2067.543388	386.300000
2069.221822	390.200000
2070.903332	413.500000
2072.581092	378.100000
2074.258514	392.800000
2075.937306	393.200000
2077.614056	392.300000
2079.288764	390.800000
2080.964841	401.900000
2082.638878	388.400000
2084.312579	409.200000
2085.985945	381.600000
2087.657273	395.300000
2089.328266	381.400000
2090.998925	401.000000
2092.669249	388.000000
2094.339240	410.400000
2096.007195	392.300000
2097.674817	386.000000
2099.340404	398.800000
2101.007361	408.800000
2102.672283	402.400000
2104.336874	409.100000
2105.999433	406.500000
2107.663360	379.600000
2109.325257	404.900000
2110.986822	398.300000
2112.648056	371.600000
2114.307262	396.500000
2115.966137	379.500000
2117.624683	395.800000
2119.282899	376.600000
2120.937391	393.100000
2122.594948	365.400000
2124.252176	398.400000
2125.905682	381.500000
2127.560556	364.900000
2129.211712	364.200000
2130.865929	371.900000
2132.516430	353.200000
2134.168297	365.700000
2135.814756	349.300000
2137.465970	350.000000
2139.113470	356.100000
2140.762337	351.400000
2142.409186	350.200000
2144.055708	366.300000
2145.701905	346.100000
2147.344394	357.500000
2148.989941	354.300000
2150.631781	354.300000
2152.276678	349.500000
2153.917870	356.900000
2155.558738	377.600000
2157.199282	363.700000
2158.837814	361.100000
2160.477712	370.100000
2162.113910	374.700000
2163.751475	355.000000
2165.388716	343.300000
2167.023948	396.100000
2168.658859	379.000000
2170.293448	360.400000
2171.927715	372.900000
2173.558289	405.100000
2175.191915	382.500000
2176.821849	406.400000
2178.453148	380.300000
2180.082442	386.100000
2181.711417	397.200000
2183.340073	382.000000
2184.968409	382.300000
2186.594742	394.300000
2188.220757	379.100000
2189.844771	360.300000
2191.470149	369.400000
2193.093528	383.500000
2194.718270	378.500000
2196.339332	381.800000
2197.960077	399.700000
2199.582187	361.800000
2201.202299	376.900000
2202.820414	380.700000
2204.438214	404.900000
2206.055699	393.600000
2207.672868	409.300000
2209.289722	412.200000
2210.906261	417.800000
2212.520806	423.800000
2214.133359	389.500000
2215.747276	394.700000
2217.359202	400.900000
2218.972491	392.800000
2220.583790	380.900000
2222.193099	389.800000
2223.803772	400.200000
2225.412456	397.100000
2227.020828	380.800000
2228.627212	396.500000
2230.234960	363.500000
2231.840721	381.100000
2233.446171	383.100000
2235.049636	352.000000
2236.654464	350.400000
2238.257309	354.700000
2239.858170	345.000000
2241.460393	353.000000
2243.060635	355.900000
2244.662239	369.600000
2246.260191	357.100000
2247.859505	362.800000
2249.456839	384.600000
2251.053864	383.200000
2252.652252	376.800000
2254.246991	396.000000
2255.839753	419.900000
2257.433878	375.400000
2259.029364	392.900000
2260.621206	405.100000
2262.212741	400.700000
2263.805637	380.600000
2265.393224	395.300000
2266.985508	391.800000
2268.572484	384.700000
2270.162489	405.200000
2271.747189	370.600000
2273.336583	402.500000
2274.920674	370.700000
2276.506127	399.300000
2278.089610	387.700000
2279.676120	376.100000
2281.258996	350.200000
2282.841568	373.800000
2284.423837	364.300000
2286.002477	343.200000
2287.584140	346.700000
2289.162175	360.300000
2290.743233	367.200000
2292.320665	348.900000
2293.896132	330.600000
2295.474622	357.500000
2297.049488	359.400000
2298.624053	331.400000
2300.198318	345.300000
2301.772282	344.400000
2303.345946	322.400000
2304.919309	346.400000
2306.489054	331.700000
2308.058500	342.300000
2309.630965	318.400000
2311.198154	317.400000
2312.768362	323.900000
2314.334955	339.500000
2315.902908	304.400000
2317.468905	350.400000
2319.034605	330.700000
2320.600008	329.900000
2322.163456	319.800000
2323.728264	328.100000
2325.289464	335.300000
2326.853678	351.100000
2328.412631	320.000000
2329.974597	347.000000
2331.534613	318.400000
2333.094333	327.900000
2334.652104	309.100000
2336.209580	332.100000
2337.766762	333.300000
2339.321997	348.800000
2340.876937	334.000000
2342.431584	340.400000
2343.985937	335.100000
2345.539996	332.200000
2347.093761	330.300000
2348.645583	323.800000
2350.195461	308.700000
2351.748347	344.800000
2353.295991	342.900000
2354.846642	347.800000
2356.393702	367.900000
2357.942121	341.500000
2359.490247	340.100000
2361.034785	328.800000
2362.580681	328.200000
2364.124639	342.200000
2365.669954	348.000000
2367.211684	338.600000
2368.754771	344.800000
2370.295923	334.200000
2371.836785	304.700000
2373.377358	336.200000
2374.917641	306.600000
2376.457636	310.200000
2377.994053	316.800000
2379.533471	312.300000
2381.069312	313.200000
2382.606509	335.000000
2384.140131	305.800000
2385.676754	340.000000
2387.211445	319.000000
2388.744207	336.200000
2390.276682	313.800000
2391.807230	316.900000
2393.340775	303.600000
2394.869109	316.200000
2396.398799	309.000000
2397.928204	305.400000
2399.457323	325.900000
2400.986158	322.500000
2402.509787	329.500000
2404.038053	331.300000
2405.561115	326.200000
2407.088811	334.300000
2408.609668	325.500000
2410.135158	327.800000
2411.657087	329.500000
2413.180372	335.200000
2414.701736	314.300000
2416.221180	324.500000
2417.741979	344.600000
2419.260859	350.100000
2420.779457	321.100000
2422.296138	336.300000
2423.814173	333.900000
2425.331927	342.000000
2426.846130	337.500000
2428.360052	379.100000
2429.873694	375.200000
2431.388691	369.500000
2432.900139	366.200000
2434.412942	343.600000
2435.923832	340.200000
2437.434442	354.100000
2438.943141	347.600000
2440.454827	348.100000
2441.962968	348.300000
2443.470832	365.100000
2444.978418	349.900000
2446.482463	373.200000
2447.989494	352.200000
2449.494616	360.500000
2450.999461	359.100000
2452.502399	367.300000
2454.005060	373.300000
2455.507445	387.000000
2457.007925	352.700000
2458.509758	370.600000
2460.009687	341.300000
2461.509340	363.500000
2463.008717	353.100000
2464.506192	363.100000
2466.001765	350.000000
2467.500319	346.700000
2468.995343	352.800000
2470.491721	343.800000
2471.984571	333.700000
2473.478775	359.600000
2474.972705	346.500000
2476.463112	348.000000
2477.956495	346.900000
2479.447981	349.400000
2480.937570	321.200000
2482.426887	346.300000
2483.914309	337.800000
2485.404706	325.000000
2486.891584	331.500000
2488.379814	353.200000
2489.864528	324.700000
2491.348971	347.200000
2492.834766	343.600000
2494.318668	352.500000
2495.803922	342.200000
2497.284042	328.700000
2498.767134	319.800000
2500.248336	340.900000
2501.729269	303.600000
2503.208313	310.900000
2504.687088	319.700000
2506.165595	300.500000
2507.643834	286.400000
2509.121804	294.600000
2510.596270	297.000000
2512.073704	309.400000
2513.547635	304.900000
2515.022916	311.700000
2516.497931	324.300000
2517.969444	319.100000
2519.442307	301.700000
2520.913288	302.700000
2522.385619	327.800000
2523.852837	292.200000
2525.323020	281.500000
2526.791323	271.500000
2528.259361	301.300000
2529.727134	306.200000
2531.194642	300.600000
2532.661885	295.800000
2534.125636	290.600000
2535.590737	281.000000
2537.053961	299.900000
2538.518535	275.800000
2539.979619	274.800000
2541.442053	277.400000
2542.904224	259.800000
2544.362909	299.100000
2545.826166	282.800000
2547.284326	307.400000
2548.743835	276.400000
2550.198251	304.100000
2551.657236	292.100000
2553.114350	293.100000
2554.569593	303.000000
2556.024575	324.600000
2557.477687	307.100000
2558.932148	328.000000
2560.384740	304.400000
2561.837072	310.800000
2563.287536	313.600000
2564.740956	298.600000
2566.189294	303.300000
2567.640588	309.500000
2569.090015	314.400000
2570.535970	300.500000
2571.984881	305.900000
2573.430320	309.000000
2574.877108	328.700000
2576.322032	305.800000
2577.766699	311.700000
2579.212713	312.900000
2580.655260	328.600000
2582.099155	309.600000
2583.539585	311.400000
2584.981362	314.200000
2586.421280	302.600000
2587.862545	312.800000
2589.300349	336.700000
2590.741102	312.500000
2592.176792	298.500000
2593.615432	318.200000
2595.052215	300.100000
2596.487141	303.900000
2597.925016	288.600000
2599.357832	315.200000
2600.791996	290.900000
2602.224306	292.100000
2603.657962	301.300000
2605.089765	298.500000
2606.521315	275.500000
2607.952611	282.400000
2609.382055	295.000000
2610.811248	308.500000
2612.238589	288.900000
2613.667277	290.000000
2615.095712	282.200000
2616.520700	295.900000
2617.947035	301.900000
2619.371521	307.100000
2620.797353	321.200000
2622.219741	335.400000
2623.643475	321.800000
2625.065362	336.600000
2626.487000	330.300000
2627.906792	357.700000
2629.327930	345.900000
2630.748818	350.800000
2632.166268	378.900000
2633.586657	358.600000
2635.003609	393.200000
2636.420313	405.900000
2637.836768	382.500000
2639.252975	405.000000
2640.668933	409.800000
2642.083051	391.700000
2643.496922	419.600000
2644.908953	453.700000
2646.322329	454.600000
2647.732275	473.100000
2649.145156	493.800000
2650.554610	502.400000
2651.963817	509.200000
2653.371187	544.000000
2654.781493	561.000000
2656.189962	614.500000
2657.596596	643.400000
2659.002985	675.600000
2660.407540	714.200000
2661.813439	717.200000
2663.217505	755.900000
2664.621326	812.000000
2666.024904	819.300000
2667.426649	888.100000
2668.829738	902.200000
2670.229409	947.500000
2671.630424	958.000000
2673.028023	981.500000
2674.428552	966.300000
2675.825666	981.600000
2677.224123	969.200000
2678.620752	961.200000
2680.017139	945.000000
2681.413285	916.500000
2682.807604	879.000000
2684.203266	815.900000
2685.595518	797.300000
2686.989114	761.400000
2688.380885	700.500000
2689.773998	678.700000
2691.165288	634.000000
2692.554755	602.900000
2693.943982	578.800000
2695.332970	549.900000
2696.723300	480.200000
2698.108645	488.700000
2699.496914	462.900000
2700.883363	433.900000
2702.269573	438.600000
2703.655545	402.000000
2705.038117	343.700000
2706.422032	366.700000
2707.805709	359.600000
2709.189148	363.400000
2710.569191	363.500000
2711.950576	355.400000
2713.330145	338.700000
2714.711056	342.000000
2716.090151	315.300000
2717.467433	326.300000
2718.846056	313.500000
2720.222866	334.900000
2721.599440	306.900000
2722.975778	318.100000
2724.350304	311.800000
2725.726171	316.800000
2727.098651	304.600000
2728.474047	317.800000
2729.844483	284.300000
2731.216260	307.200000
2732.587802	317.000000
2733.957536	316.800000
2735.328611	301.700000
2736.697877	333.200000
2738.066911	298.700000
2739.434137	302.600000
2740.801131	298.100000
2742.167892	311.700000
2743.534420	292.400000
2744.899143	308.200000
2746.263635	277.800000
2747.627894	296.700000
2748.991921	265.600000
2750.355717	292.300000
2751.716139	293.100000
2753.079472	286.900000
2754.437862	279.000000
2755.799162	274.200000
2757.157091	255.600000
2758.517930	277.300000
2759.876968	269.600000
2761.232638	282.700000
2762.591216	245.700000
2763.946428	267.400000
2765.301410	264.800000
2766.654595	237.500000
2768.010687	258.600000
2769.363415	247.800000
2770.715914	266.800000
2772.068185	274.500000
2773.421795	265.700000
2774.772043	260.400000
2776.120498	264.200000
2777.471857	277.200000
2778.819857	256.300000
2780.169196	294.400000
2781.516742	274.500000
2782.864061	285.800000
2784.211154	257.200000
2785.556456	265.800000
2786.901532	283.400000
2788.246382	291.200000
2789.591005	253.500000
2790.932277	269.000000
2792.274887	273.300000
2793.617271	281.900000
2794.959431	258.200000
2796.298241	280.900000
2797.639950	273.900000
2798.978312	276.700000
2800.318011	296.200000
2801.655924	275.400000
2802.992053	258.800000
2804.327958	276.300000
2805.665201	273.800000
2807.000660	275.200000
2808.335896	279.600000
2809.669349	262.500000
2811.004140	292.600000
2812.335589	257.800000
2813.669934	285.300000
2814.999381	280.400000
2816.330165	269.900000
2817.660727	275.300000
2818.989510	277.000000
2820.319629	299.300000
2821.647970	256.600000
2822.976090	256.900000
2824.302432	247.300000
2825.630111	245.100000
2826.954457	242.700000
2828.280138	240.600000
2829.604044	243.200000
2830.927731	249.400000
2832.252753	221.800000
2833.574445	259.400000
2834.895919	236.300000
2836.217174	234.300000
2837.538210	228.600000
2838.857474	258.600000
2840.178073	237.700000
2841.496900	220.500000
2842.815509	222.100000
2844.132347	228.100000
2845.448968	219.800000
2846.765372	224.100000
2848.080007	213.100000
2849.395976	226.900000
2850.708625	231.600000
2852.022610	225.200000
2853.336377	241.100000
2854.649929	223.600000
2855.961713	224.500000
2857.271731	225.800000
2858.583084	227.200000
2859.891122	212.400000
2861.200495	225.700000
2862.509652	238.700000
2863.818594	221.400000
2865.125773	242.000000
2866.431188	217.500000
2867.737938	232.800000
2869.042925	244.500000
2870.347699	248.200000
2871.650711	262.000000
2872.956605	265.300000
2874.257643	230.200000
2875.560016	241.100000
2876.860629	266.300000
2878.162576	250.200000
2879.464310	232.400000
2880.762739	249.000000
2882.062503	241.500000
2883.360508	249.900000
2884.658302	248.000000
2885.954340	243.200000
2887.251711	215.900000
2888.547326	223.000000
2889.842730	224.200000
2891.137924	237.800000
2892.429819	239.100000
2893.724591	227.800000
2895.016066	228.100000
2896.308874	240.900000
2897.601472	242.000000
2898.890776	232.200000
2900.181412	230.500000
2901.470297	219.500000
2902.760515	215.300000
2904.047440	214.800000
2905.335699	234.900000
2906.622207	219.700000
2907.908508	225.000000
2909.194600	238.400000
2910.478944	234.400000
2911.766160	231.600000
2913.048548	224.300000
2914.332269	241.000000
2915.614244	239.300000
2916.896012	228.700000
2918.176034	228.100000
2919.458926	254.600000
2920.740073	220.000000
2922.017938	248.500000
2923.298672	219.800000
2924.576125	240.300000
2925.853372	231.100000
2927.128878	218.600000
2928.407251	222.700000
2929.680809	248.000000
2930.957235	231.600000
2932.231920	238.600000
2933.504865	221.500000
2934.779140	235.700000
2936.051676	215.500000
2937.324008	215.200000
2938.593066	226.800000
2939.864990	222.500000
2941.135176	225.200000
2942.405159	237.900000
2943.674938	206.200000
2944.942980	217.900000
2946.209287	211.800000
2947.475391	216.800000
2948.742825	215.600000
2950.008525	198.900000
2951.274022	200.700000
2952.539317	225.000000
2953.801347	204.700000
2955.064708	209.700000
2956.327866	191.300000
2957.589293	198.800000
2958.852049	203.500000
2960.113074	199.000000
2961.372367	202.400000
2962.631461	182.000000
2963.890354	182.800000
2965.149047	201.400000
2966.407540	189.400000
2967.664304	191.700000
2968.920868	203.300000
2970.175705	188.000000
2971.431871	205.800000
2972.684781	201.600000
2973.939021	188.800000
2975.193062	206.900000
2976.445377	201.400000
2977.697494	196.200000
2978.947886	181.600000
2980.201133	198.500000
2981.449603	193.100000
2982.700927	223.900000
2983.949003	208.000000
2985.196881	227.200000
2986.444562	214.900000
2987.692047	206.400000
2988.937810	207.100000
2990.183376	219.400000
2991.430270	191.900000
2992.673920	187.700000
2993.918898	202.900000
2995.160633	207.400000
2996.405218	201.800000
2997.648085	195.500000
2998.887711	191.400000
3000.130187	198.200000
3001.369424	198.900000
3002.609988	204.800000
3003.848835	195.900000
3005.087488	212.500000
3006.324425	202.200000
3007.562689	205.000000
3008.799239	197.400000
3010.035594	195.000000
3011.271756	218.200000
3012.506205	195.600000
3013.740460	185.900000
3014.974522	188.100000
3016.206872	202.000000
3017.437510	178.000000
3018.670994	179.600000
3019.902766	197.900000
3021.132828	192.400000
3022.362698	209.600000
3023.590858	187.400000
3024.820344	213.900000
3026.048122	187.100000
3027.275708	190.300000
3028.504620	190.100000
3029.728790	214.500000
3030.955803	224.400000
3032.179592	203.900000
3033.404708	203.900000
3034.628117	207.400000
3035.851337	204.200000
3037.072851	197.100000
3038.297206	186.100000
3039.516826	192.300000
3040.737771	212.400000
3041.958528	191.600000
3043.177581	194.900000
3044.397960	207.200000
3045.615122	209.000000
3046.833609	196.600000
3048.050394	204.700000
3049.266992	199.500000
3050.483401	189.600000
3051.696598	199.200000
3052.912632	165.000000
3054.125454	180.000000
3055.341113	190.300000
3056.552049	179.100000
3057.764310	181.200000
3058.976385	186.500000
3060.188273	189.700000
3061.398463	193.300000
3062.608467	160.400000
3063.818286	175.300000
3065.026408	181.000000
3066.234344	180.800000
3067.440586	165.800000
3068.648151	192.000000
3069.854023	195.850000
3071.059709	199.700000
3072.265210	184.300000
3073.469018	177.600000
3074.674150	167.800000
3075.877590	194.000000
3077.079337	162.100000
3078.280901	187.400000
3079.482281	179.200000
3080.683477	176.900000
3081.882983	183.000000
3083.082305	187.200000
3084.282951	170.700000
3085.481907	181.100000
3086.677669	173.700000
3087.876260	175.800000
3089.071657	161.600000
3090.268377	159.700000
3091.461905	163.400000
3092.658261	178.500000
3093.852931	182.200000
3095.044410	171.900000
3096.240220	158.800000
3097.431337	171.000000
3098.623776	191.600000
3099.813028	194.000000
3101.005106	169.800000
3102.195499	179.000000
3103.382707	155.600000
3104.571238	156.700000
3105.761091	174.900000
3106.947759	163.300000
3108.134248	174.700000
3109.320557	154.300000
3110.508188	160.300000
3111.692638	177.400000
3112.875407	153.200000
3114.061000	176.000000
3115.244912	174.200000
3116.427146	185.500000
3117.609201	166.500000
3118.791079	174.400000
3119.972778	185.200000
3121.152799	167.400000
3122.331144	171.600000
3123.512310	197.500000
3124.690300	162.600000
3125.868113	179.500000
3127.045749	178.500000
3128.221710	181.700000
3129.397494	158.100000
3130.574600	178.000000
3131.750031	154.800000
3132.923789	171.000000
3134.095875	174.500000
3135.269281	163.900000
3136.442512	170.500000
3137.614070	156.800000
3138.786950	168.400000
3139.956662	181.400000
3141.127695	150.900000
3142.297057	170.800000
3143.464750	171.600000
3144.635258	180.100000
3145.801107	154.800000
3146.971266	178.400000
3148.136767	165.900000
3149.302095	169.600000
3150.467249	166.100000
3151.632229	169.000000
3152.798530	162.900000
3153.960177	172.800000
3155.123145	175.700000
3156.285939	193.000000
3157.448561	181.400000
3158.609518	165.400000
3159.770302	146.800000
3160.930914	170.400000
3162.089863	160.800000
3163.248639	164.600000
3164.407244	142.400000
3165.565677	166.600000
3166.723938	165.600000
3167.880537	174.900000
3169.035475	164.900000
3170.191732	169.500000
3171.346329	161.100000
3172.500754	197.100000
3173.653520	169.500000
3174.806116	166.300000
3175.958541	165.200000
3177.110797	163.400000
3178.262883	150.200000
3179.411822	173.600000
3180.563568	144.600000
3181.713656	162.200000
3182.862088	143.700000
3184.010351	172.400000
3185.158444	154.700000
3186.306369	161.300000
3187.452639	135.500000
3188.598740	182.300000
3189.743186	137.900000
3190.887465	162.700000
3192.031576	157.700000
3193.177005	158.600000
3194.319294	149.600000
3195.461417	161.000000
3196.603372	179.100000
3197.745161	145.100000
3198.886782	162.300000
3200.025267	160.300000
3201.165070	145.400000
3202.306191	150.200000
3203.444177	170.400000
3204.580514	174.700000
3205.716685	149.500000
3206.854174	156.900000
3207.990013	150.400000
3209.127170	151.500000
3210.259714	144.200000
3211.396540	143.500000
3212.528754	140.800000
3213.662286	158.300000
3214.795652	135.700000
3215.925891	167.300000
3217.058928	131.500000
3218.188839	144.200000
3219.320067	152.800000
3220.448169	142.200000
3221.579068	144.200000
3222.708324	155.200000
3223.835935	133.400000
3224.960425	152.700000
3226.089190	144.600000
3227.214833	139.000000
3228.340313	155.800000
3229.464152	167.600000
3230.590785	154.200000
3231.712821	169.200000
3232.836173	170.000000
3233.959363	170.700000
3235.082391	148.200000
3236.203779	182.800000
3237.325006	170.600000
3238.444594	170.200000
3239.564021	169.100000
3240.681810	158.800000
3241.802392	147.700000
3242.919859	162.000000
3244.037167	147.600000
3245.154313	153.000000
3246.269824	148.500000
3247.386650	176.300000
3248.500365	149.700000
3249.616870	157.000000
3250.731741	145.700000
3251.843503	135.300000
3252.955106	147.800000
3254.068023	137.300000
3255.180782	153.100000
3256.290434	157.700000
3257.401400	145.900000
3258.512208	116.600000
3259.621385	133.500000
3260.728930	130.300000
3261.837790	137.000000
3262.946491	136.100000
3264.052090	131.000000
3265.159003	158.100000
3266.264288	150.600000
3267.370886	139.800000
3268.474384	130.500000
3269.579196	149.400000
3270.683851	133.600000
3271.785407	155.600000
3272.886808	146.000000
3273.989522	146.000000
3275.092079	140.500000
3276.191540	160.500000
3277.293785	134.900000
3278.392934	141.900000
3279.490459	147.300000
3280.587828	143.800000
3281.687980	130.100000
3282.785038	146.800000
3283.881941	116.700000
3284.978689	125.300000
3286.070879	129.900000
3287.167317	121.300000
3288.262134	107.200000
3289.356795	143.000000
3290.449835	116.200000
3291.542721	144.100000
3292.633986	131.300000
3293.726564	129.500000
3294.817521	130.500000
3295.906859	135.600000
3296.996044	100.500000
3298.086542	115.300000
3299.173955	125.800000
3300.261216	138.400000
3301.349789	151.400000
3302.438209	110.300000
3303.522082	130.300000
3304.610197	142.600000
3305.695231	127.300000
3306.778648	135.800000
3307.863378	143.000000
3308.946493	153.500000
3310.030919	117.400000
3311.112267	133.900000
3312.194927	141.400000
3313.275973	139.200000
3314.356868	135.400000
3315.436150	137.400000
3316.515281	126.400000
3317.595723	115.200000
3318.673092	157.300000
3319.751771	128.200000
3320.828840	123.300000
3321.905758	132.900000
3322.981065	156.500000
3324.056223	143.800000
3325.132692	134.800000
3326.206091	132.600000
3327.279341	124.600000
3328.353902	144.100000
3329.426853	134.300000
3330.498197	134.200000
3331.570851	124.300000
3332.640438	147.700000
3333.711336	136.900000
3334.780627	156.400000
3335.851229	118.600000
3336.920224	130.700000
3337.987613	143.600000
3339.053397	139.100000
3340.123407	130.300000
3341.190354	138.100000
3342.254239	136.600000
3343.320892	139.100000
3344.385940	145.600000
3345.449385	130.100000
3346.512684	141.400000
3347.575836	155.600000
3348.638842	127.200000
3349.701702	142.600000
3350.762960	127.300000
3351.821161	134.200000
3352.883583	121.400000
3353.942948	128.900000
3355.002168	120.900000
3356.062698	130.900000
3357.118718	123.800000
3358.177503	146.200000
3359.231780	135.800000
3360.288820	148.500000
3361.344263	132.700000
3362.401014	152.600000
3363.456168	141.500000
3364.509724	149.400000
3365.561683	126.800000
3366.616404	129.900000
3367.668076	130.000000
3368.719605	127.400000
3369.772443	118.400000
3370.822233	126.300000
3371.873331	128.000000
3372.921384	131.700000
3373.972197	134.400000
3375.019964	125.100000
3376.067589	126.300000
3377.115071	122.100000
3378.160961	110.200000
3379.208159	119.200000
3380.252315	124.800000
3381.299229	136.200000
3382.344551	110.400000
3383.386833	125.000000
3384.428973	93.200000
3385.472421	100.900000
3386.515729	103.900000
3387.557446	131.200000
3388.599022	103.700000
3389.640458	119.700000
3390.680304	115.100000
3391.718563	113.100000
3392.758129	117.600000
3393.797554	111.000000
3394.835392	119.700000
3395.871643	109.000000
3396.907755	106.600000
3397.945174	108.400000
3398.979560	116.900000
3400.015253	126.200000
3401.050807	96.800000
3402.083330	113.600000
3403.118606	116.000000
3404.150851	119.900000
3405.182958	107.300000
3406.213481	124.700000
3407.245312	104.900000
3408.277003	117.000000
3409.305668	108.000000
3410.334194	136.900000
3411.364028	117.700000
3412.393723	118.100000
3413.420393	113.200000
3414.448370	126.100000
3415.473322	105.600000
3416.501024	131.800000
3417.525703	125.100000
3418.551688	122.700000
3419.576093	110.700000
3420.600362	127.800000
3421.623052	120.400000
3422.645606	115.100000
3423.669466	122.700000
3424.690306	120.800000
3425.711011	126.900000
3426.733021	125.800000
3427.752013	118.400000
3428.770870	126.400000
3429.791032	132.900000
3430.808178	123.800000
