-118.448435	8.300000
-115.778835	20.000000
-113.112170	10.300000
-110.446257	-0.200000
-107.783276	1.500000
-105.118866	-9.400000
-102.457386	-2.500000
-99.794476	-3.500000
-97.136674	3.400000
-94.477441	-5.100000
-91.818958	20.300000
-89.163398	2.200000
-86.506410	5.400000
-83.854519	9.000000
-81.201199	7.100000
-78.550799	-3.600000
-75.898969	22.700000
-73.252230	-17.600000
-70.604061	4.300000
-67.956636	7.100000
-65.312124	2.800000
-62.666184	6.600000
-60.025325	4.400000
-57.383037	-4.900000
-54.743657	6.300000
-52.102849	-3.500000
-49.462781	20.700000
-46.827785	9.100000
-44.191360	19.700000
-41.557839	-9.400000
-38.922889	2.600000
-36.293004	7.200000
-33.659527	5.600000
-31.031112	10.400000
-28.403430	15.300000
-25.774321	14.500000
-23.150268	25.700000
-20.522626	25.200000
-17.900037	34.100000
-15.278180	38.100000
-12.657053	80.500000
-10.036656	213.600000
-7.419147	645.200000
-4.800210	2023.500000
-2.184159	5054.900000
0.431164	10180.500000
3.045760	5755.100000
5.657473	754.500000
8.270615	98.800000
10.878723	56.200000
13.490413	58.800000
16.097072	27.900000
18.705159	27.900000
21.312522	17.300000
23.914860	8.000000
26.520776	8.000000
29.121670	12.500000
31.723992	23.300000
34.321297	-5.500000
36.922177	-3.100000
39.518043	12.400000
42.115336	0.600000
44.711910	3.500000
47.303475	16.900000
49.896468	17.900000
52.486600	-7.400000
55.078160	8.300000
57.666860	-13.700000
60.256987	33.200000
62.842116	13.800000
65.428671	-8.500000
68.014513	-8.100000
70.597501	23.700000
73.181915	10.500000
75.759201	-2.700000
78.340053	-4.300000
80.918056	-1.300000
83.495349	3.500000
86.074068	10.200000
88.647806	-0.100000
91.222970	-0.100000
93.795291	4.800000
96.366904	4.700000
98.935677	12.300000
101.505877	9.800000
104.073239	14.100000
106.642026	-9.500000
109.207977	23.500000
111.771093	16.600000
114.337765	0.600000
116.895216	15.800000
119.458352	6.300000
122.016529	25.000000
124.578259	45.100000
127.135034	56.100000
129.693234	69.800000
132.246482	118.000000
134.799031	169.200000
137.355131	238.800000
139.906284	311.200000
142.456738	374.900000
145.006496	465.000000
147.553434	475.600000
150.099676	547.400000
152.647344	535.600000
155.194317	549.400000
157.736353	551.800000
160.277696	539.200000
162.818346	543.200000
165.360422	523.500000
167.899687	533.100000
170.436142	531.900000
172.971907	532.700000
175.509097	517.900000
178.045595	522.400000
180.579288	512.100000
183.110178	512.800000
185.640379	520.400000
188.172005	506.500000
190.700830	482.100000
193.226856	493.600000
195.752197	494.600000
198.278962	519.900000
200.802930	530.400000
203.326214	497.400000
205.848813	513.100000
208.368619	510.200000
210.887742	527.200000
213.406182	505.200000
215.926046	521.000000
218.438909	521.800000
220.955303	518.100000
223.471015	534.700000
225.981838	557.100000
228.494085	546.200000
231.003549	568.400000
233.512335	571.500000
236.020443	544.200000
238.529974	556.100000
241.034625	574.000000
243.538601	549.000000
246.044000	577.300000
248.544524	549.400000
251.048571	552.100000
253.545648	568.000000
256.046247	550.200000
258.544075	550.000000
261.041230	527.800000
263.537712	538.200000
266.029331	562.600000
268.524470	562.100000
271.016843	547.800000
273.508545	567.000000
275.997483	556.300000
278.487846	554.900000
280.975447	546.500000
283.460288	551.100000
285.948643	565.300000
288.430059	588.600000
290.914989	574.200000
293.395074	614.500000
295.878671	614.900000
298.357425	626.600000
300.837603	624.200000
303.315028	654.400000
305.791790	636.500000
308.267889	607.900000
310.741239	610.800000
313.213927	587.500000
315.685954	600.200000
318.157320	602.000000
320.625942	612.000000
323.093904	632.100000
325.563289	595.400000
328.027850	581.000000
330.495916	561.000000
332.959162	540.500000
335.421750	530.300000
337.883682	543.000000
340.344957	538.200000
342.803498	519.500000
345.263461	528.500000
347.720691	516.200000
350.177267	502.900000
352.633189	500.600000
355.086382	484.900000
357.540996	489.300000
359.990809	464.100000
362.444119	463.900000
364.892629	464.600000
367.340489	455.000000
369.789770	470.900000
372.234258	447.200000
374.680168	443.300000
377.125429	448.500000
379.567970	420.800000
382.009864	459.200000
384.451111	407.700000
386.889642	421.100000
389.329595	428.500000
391.766834	418.400000
394.201361	414.300000
396.639376	432.200000
399.072614	415.100000
401.507274	399.600000
403.937160	416.000000
406.370532	434.700000
408.799134	414.300000
411.227095	403.200000
413.656476	417.100000
416.081092	420.600000
418.507130	425.100000
420.932527	387.500000
423.357284	406.800000
425.777283	382.400000
428.198703	395.300000
430.617426	386.600000
433.037570	394.400000
435.455019	414.700000
437.873888	374.800000
440.290064	366.100000
442.701493	357.300000
445.116398	347.500000
447.528613	353.600000
449.940194	329.500000
452.351141	322.500000
454.759402	348.500000
457.167030	295.200000
459.574027	320.400000
461.980391	291.500000
464.384073	304.000000
466.787125	312.200000
469.189547	309.300000
471.591340	310.500000
473.990454	300.000000
476.390988	301.200000
478.790893	309.500000
481.186075	331.400000
483.584724	337.000000
485.978653	355.600000
488.371956	358.200000
490.764633	352.400000
493.156685	408.100000
495.550156	431.200000
497.938914	484.900000
500.325006	572.900000
502.712518	698.800000
505.099406	919.200000
507.483631	1280.900000
509.869275	1839.700000
512.252256	2546.300000
514.632577	3433.200000
517.014317	4207.800000
519.393398	4325.000000
521.773898	4028.600000
524.151740	3349.100000
526.526927	2794.800000
528.901496	2288.500000
531.277484	1950.200000
533.650818	1660.200000
536.025570	1519.600000
538.395637	1334.900000
540.765088	1206.600000
543.135957	1083.200000
545.502146	1026.500000
547.869753	937.800000
550.234714	876.100000
552.599062	843.000000
554.962798	812.400000
557.327951	727.300000
559.688431	737.800000
562.050330	714.100000
564.409589	667.900000
566.766209	657.900000
569.126274	626.300000
571.479649	597.300000
573.836468	610.200000
576.190651	560.100000
578.544227	558.200000
580.897194	546.900000
583.247530	530.300000
585.599282	521.600000
587.944358	523.900000
590.294898	477.300000
592.638765	483.000000
594.988092	490.800000
597.332772	473.400000
599.674826	458.400000
602.018298	479.900000
604.359147	438.300000
606.699394	456.600000
609.037020	447.800000
611.378081	512.000000
613.714504	516.900000
616.052345	537.400000
618.387567	536.900000
620.720174	511.400000
623.054197	518.600000
625.385607	490.700000
627.716418	449.400000
630.046631	439.700000
632.376246	433.900000
634.701239	457.000000
637.031673	443.600000
639.357485	433.600000
641.680691	426.200000
644.005312	420.400000
646.327329	426.100000
648.648751	432.100000
650.967570	414.600000
653.287805	418.700000
655.607447	386.900000
657.924488	410.200000
660.240937	395.300000
662.554788	407.900000
664.870055	387.300000
667.182725	403.800000
669.496810	384.700000
671.806295	406.700000
674.117196	387.000000
676.425504	407.400000
678.733224	392.000000
681.042359	394.300000
683.346901	378.000000
685.650856	374.000000
687.954226	352.300000
690.259010	366.900000
692.559208	344.800000
694.860820	352.000000
697.161848	348.700000
699.458293	329.500000
701.756154	342.000000
704.053431	343.400000
706.350125	334.800000
708.642243	334.800000
710.937772	302.000000
713.228728	330.200000
715.521098	328.900000
717.810892	328.900000
720.100107	320.000000
722.388741	320.600000
724.674804	325.800000
726.962280	347.700000
729.247186	307.700000
731.531513	338.500000
733.813272	309.400000
736.096445	327.400000
738.379041	314.800000
740.657082	327.300000
742.936536	301.200000
745.215415	306.900000
747.493718	304.000000
749.767472	325.500000
752.042640	319.200000
754.317234	309.900000
756.589268	285.700000
758.862716	310.800000
761.133606	293.400000
763.401940	309.600000
765.671687	289.900000
767.938880	304.500000
770.205502	291.400000
772.471555	293.500000
774.735055	282.100000
776.999969	311.300000
779.264313	311.300000
781.524128	317.300000
783.785356	291.300000
786.046015	296.700000
788.304129	316.500000
790.559698	300.100000
792.818658	319.400000
795.071119	294.500000
797.328947	297.900000
799.582255	310.700000
801.833024	297.300000
804.085205	302.500000
806.334848	294.400000
808.585902	291.200000
810.832445	300.900000
813.080400	309.100000
815.325821	283.300000
817.572653	314.900000
819.818924	285.200000
822.060691	298.200000
824.305840	274.400000
826.544517	263.900000
828.786577	259.000000
831.024138	264.800000
833.263110	275.600000
835.499556	276.200000
837.737413	263.400000
839.972745	286.600000
842.205554	295.700000
844.439774	261.400000
846.671472	282.200000
848.902615	281.100000
851.133203	285.800000
853.363236	276.400000
855.592716	276.500000
857.817714	254.700000
860.046087	271.200000
862.269981	279.300000
864.495285	277.700000
866.716114	276.400000
868.940315	273.100000
871.160043	273.500000
873.381182	244.500000
875.601770	286.900000
877.819848	263.000000
880.039337	276.600000
882.254359	266.700000
884.468833	275.400000
886.682760	261.200000
888.896139	271.600000
891.108971	260.700000
893.321257	277.200000
895.531040	253.200000
897.740278	274.000000
899.948971	283.000000
902.155165	278.600000
904.362768	270.000000
906.567874	284.700000
908.772436	279.400000
910.974502	282.400000
913.177978	265.200000
915.378960	280.800000
917.579401	295.400000
919.781249	312.400000
921.976707	322.100000
924.175524	340.000000
926.369902	356.100000
928.567638	414.500000
930.760938	428.400000
932.955647	479.000000
935.147870	526.400000
937.339555	568.100000
939.530702	631.300000
941.719366	646.800000
943.907493	647.600000
946.093140	629.300000
948.282139	634.400000
950.466715	616.800000
952.650756	621.000000
954.838147	638.900000
957.017234	631.600000
959.199672	635.200000
961.381576	631.900000
963.561006	646.000000
965.737963	660.800000
967.916327	626.800000
970.096099	640.500000
972.269522	638.800000
974.446291	651.100000
976.618653	648.800000
978.792423	640.800000
980.961789	645.900000
983.134500	597.500000
985.304744	590.300000
987.474460	528.300000
989.643647	514.800000
991.808437	443.100000
993.976568	433.000000
996.140305	398.200000
998.305448	389.800000
1000.468133	355.300000
1002.630291	366.900000
1004.789993	367.800000
1006.949171	351.000000
1009.109755	327.600000
1011.267884	320.800000
1013.425489	339.000000
1015.582571	321.100000
1017.739130	295.900000
1019.891309	287.600000
1022.044894	296.100000
1024.197958	280.900000
1026.348574	292.400000
1028.500595	277.600000
1030.648243	258.700000
1032.799223	263.100000
1034.945832	257.800000
1037.091923	261.300000
1039.237494	258.600000
1041.384471	263.700000
1043.525159	258.600000
1045.669177	252.700000
1047.810754	259.700000
1049.951815	239.100000
1052.094280	231.800000
1054.230466	268.500000
1056.369978	253.300000
1058.505134	265.200000
1060.643615	242.200000
1062.777742	250.300000
1064.911356	263.500000
1067.046375	262.000000
1069.177044	238.200000
1071.309118	246.000000
1073.438763	239.600000
1075.567896	248.900000
1077.696517	263.000000
1079.824627	241.900000
1081.950311	252.600000
1084.075485	238.800000
1086.202063	229.100000
1088.324304	244.500000
1090.447948	213.300000
1092.567259	233.300000
1094.691798	245.800000
1096.810092	226.700000
1098.929791	214.900000
1101.047071	234.200000
1103.163845	236.600000
1105.280112	228.400000
1107.393964	224.900000
1109.509219	220.000000
1111.620152	230.100000
1113.734396	223.200000
1115.844320	197.100000
1117.955648	217.900000
1120.066471	208.200000
1122.172979	221.700000
1124.282795	207.600000
1126.388297	231.100000
1128.495202	230.700000
1130.595892	225.600000
1132.701794	210.600000
1134.803387	231.500000
1136.906383	200.300000
1139.008878	208.000000
1141.105166	216.900000
1143.206662	217.800000
1145.303855	211.800000
1147.400549	221.600000
1149.496745	225.900000
1151.592444	216.300000
1153.687645	189.100000
1155.780449	219.200000
1157.874655	210.300000
1159.962670	221.300000
1162.055883	208.100000
1164.142908	215.800000
1166.233232	194.000000
1168.319269	196.200000
1170.408603	193.700000
1172.491756	221.300000
1174.576311	188.800000
1176.662268	216.400000
1178.743943	220.100000
1180.827020	229.400000
1182.907711	225.900000
1184.987910	212.800000
1187.067618	207.800000
1189.146835	213.500000
1191.223670	194.800000
1193.298124	211.300000
1195.375870	200.500000
1197.449345	216.700000
1199.524221	196.900000
1201.594830	202.300000
1203.666841	218.000000
1205.736475	202.200000
1207.807510	218.900000
1209.878057	209.300000
1211.944343	199.300000
1214.012030	213.500000
1216.077345	209.700000
1218.144060	191.700000
1220.206519	197.400000
1222.272263	207.100000
1224.333754	210.400000
1226.396644	187.000000
1228.457167	186.100000
1230.517206	178.300000
1232.576763	204.600000
1234.633954	205.600000
1236.690664	194.000000
1238.745011	202.900000
1240.802638	199.000000
1242.857903	188.900000
1244.908927	216.000000
1246.961351	180.000000
1249.013295	215.900000
1251.062881	206.100000
1253.111988	199.200000
1255.160617	207.900000
1257.208767	194.100000
1259.256439	201.200000
1261.299880	220.000000
1263.346596	206.000000
1265.390959	213.900000
1267.434846	212.000000
1269.476382	200.100000
1271.515567	205.400000
1273.558026	203.000000
1275.596262	218.100000
1277.635897	214.600000
1279.675057	214.100000
1281.709998	213.700000
1283.746339	213.300000
1285.780334	208.000000
1287.815728	214.500000
1289.846908	215.300000
1291.879487	218.800000
1293.911593	193.800000
1295.941359	229.100000
1297.972523	218.000000
1299.999479	202.800000
1302.027833	207.600000
1304.051983	192.000000
1306.079397	193.500000
1308.102609	229.900000
1310.127219	197.300000
1312.149495	217.000000
1314.173168	196.100000
1316.194508	196.700000
1318.215380	211.800000
1320.235786	187.600000
1322.251997	217.200000
1324.269606	218.900000
1326.284888	192.600000
1328.303427	229.900000
1330.317778	209.100000
1332.329803	219.200000
1334.345085	228.200000
1336.356182	211.800000
1338.368676	206.900000
1340.376987	221.200000
1342.388554	230.200000
1344.394081	224.800000
1346.402864	226.300000
1348.407469	222.200000
1350.415328	213.300000
1352.422725	227.900000
1354.424091	208.900000
1356.426854	208.100000
1358.429156	218.000000
1360.430999	207.800000
1362.432382	206.600000
1364.431452	205.300000
1366.430063	209.500000
1368.428216	214.300000
1370.425911	204.000000
1372.419442	208.100000
1374.414370	202.000000
1376.408841	205.000000
1378.402855	196.300000
1380.394561	209.300000
1382.385813	199.100000
1384.374759	198.200000
1386.365100	178.200000
1388.354986	190.500000
1390.342569	198.900000
1392.329697	202.000000
1394.314525	175.900000
1396.300746	180.600000
1398.284668	193.700000
1400.268137	203.400000
1402.251154	187.900000
1404.231872	178.500000
1406.213986	174.100000
1408.193802	176.700000
1410.173168	182.700000
1412.148394	190.100000
1414.126860	187.300000
1416.103031	174.800000
1418.078754	189.100000
1420.054027	203.600000
1422.027009	188.800000
1423.999543	198.900000
1425.971630	174.500000
1427.943268	185.300000
1429.910778	171.100000
1431.883363	185.200000
1433.848141	175.700000
1435.817991	173.400000
1437.783718	198.000000
1439.750837	177.700000
1441.715673	185.100000
1443.676390	164.500000
1445.642174	183.300000
1447.602003	196.000000
1449.563225	179.900000
1451.525840	183.800000
1453.484340	173.000000
1455.442398	191.800000
1457.400013	199.400000
1459.357187	183.100000
1461.312085	208.000000
1463.268375	185.300000
1465.222391	186.000000
1467.175967	174.400000
1469.127270	175.700000
1471.079965	181.300000
1473.030389	202.400000
1474.980373	191.500000
1476.929919	175.600000
1478.877196	174.300000
1480.822206	176.600000
1482.768607	192.800000
1484.714572	174.300000
1486.660098	194.700000
1488.603360	187.400000
1490.546185	187.100000
1492.486747	183.800000
1494.428700	165.300000
1496.368392	179.400000
1498.307648	175.100000
1500.246469	184.000000
1502.183031	169.700000
1504.120984	171.200000
1506.056679	200.900000
1507.991939	165.500000
1509.924944	171.000000
1511.857516	162.600000
1513.789656	193.500000
1515.721364	200.400000
1517.650818	178.400000
1519.581663	187.100000
1521.512077	181.700000
1523.438417	173.500000
1525.366149	187.000000
1527.291630	176.000000
1529.216682	171.700000
1531.141305	176.000000
1533.065499	192.800000
1534.987446	176.500000
1536.910782	189.900000
1538.831873	178.100000
1540.750719	204.300000
1542.670955	196.700000
1544.588947	209.300000
1546.506513	205.100000
1548.421837	194.100000
1550.338551	189.200000
1552.251210	213.600000
1554.167073	228.700000
1556.080696	246.200000
1557.992082	247.000000
1559.904856	230.000000
1561.813581	254.800000
1563.723696	286.900000
1565.633387	297.300000
1567.542654	337.700000
1569.449688	358.700000
1571.354489	422.400000
1573.260679	510.000000
1575.164637	564.600000
1577.068175	664.800000
1578.971291	770.700000
1580.872179	866.700000
1582.774454	891.800000
1584.674502	848.400000
1586.575937	731.400000
1588.473339	589.800000
1590.370322	488.200000
1592.266887	411.900000
1594.164840	372.500000
1596.056958	321.800000
1597.952269	286.200000
1599.847163	267.600000
1601.739835	263.700000
1603.632091	249.400000
1605.522126	236.900000
1607.411747	225.700000
1609.300951	225.700000
1611.189741	209.400000
1613.076314	232.300000
1614.964273	218.300000
1616.848216	197.100000
1618.733547	223.800000
1620.618463	223.700000
1622.501166	236.300000
1624.385256	210.200000
1626.265335	192.300000
1628.146800	201.500000
1630.026055	195.000000
1631.906696	183.800000
1633.781533	175.900000
1635.661352	181.900000
1637.537165	175.200000
1639.412568	191.500000
1641.289358	154.900000
1643.160350	169.500000
1645.034524	168.200000
1646.904700	158.300000
1648.778056	169.800000
1650.649209	175.500000
1652.518160	161.500000
1654.388497	166.800000
1656.254840	161.000000
1658.122569	172.300000
1659.988100	154.900000
1661.855015	158.000000
1663.717942	156.200000
1665.582254	162.600000
1667.444370	170.600000
1669.306082	164.200000
1671.169178	162.600000
1673.030080	142.300000
1674.888788	153.600000
1676.747093	161.100000
1678.606783	161.600000
1680.460706	167.400000
1682.317801	152.600000
1684.174494	153.300000
1686.027211	149.100000
1687.883098	158.400000
1689.735012	140.100000
1691.586525	146.100000
1693.437637	138.000000
1695.288349	159.200000
1697.138660	140.900000
1698.986787	133.000000
1700.836297	147.300000
1702.680059	154.800000
1704.528770	135.700000
1706.371736	147.500000
1708.217867	144.400000
1710.060037	137.600000
1711.905371	148.600000
1713.744965	162.100000
1715.585943	136.600000
1717.428304	136.500000
1719.266709	135.900000
1721.106497	165.200000
1722.944110	137.500000
1724.781327	126.300000
1726.616371	141.700000
1728.452798	138.400000
1730.287053	133.400000
1732.120913	149.000000
1733.954380	136.000000
1735.783900	143.300000
1737.616579	135.600000
1739.445314	141.400000
1741.277207	143.700000
1743.105157	132.300000
1744.932715	119.100000
1746.759881	166.000000
1748.586656	133.200000
1750.413040	147.700000
1752.235487	138.300000
1754.061088	141.100000
1755.882755	144.000000
1757.705804	151.300000
1759.526692	133.400000
1761.347190	134.200000
1763.169070	144.400000
1764.985250	136.200000
1766.804582	135.900000
1768.619987	143.700000
1770.438542	141.300000
1772.253172	131.100000
1774.067416	140.800000
1775.881272	141.700000
1777.694742	135.200000
1779.506059	137.600000
1781.318757	129.600000
1783.131068	155.100000
1784.939462	135.500000
1786.749237	133.700000
1788.555096	141.300000
1790.364101	145.000000
1792.169193	137.300000
1793.975666	139.500000
1795.781755	126.100000
1797.583934	135.800000
1799.389256	117.700000
1801.190670	129.200000
1802.993464	128.700000
1804.792352	132.800000
1806.592621	132.500000
1808.392508	137.300000
1810.190254	127.100000
1811.987618	126.200000
1813.784603	130.700000
1815.581207	139.600000
1817.375672	145.100000
1819.171516	145.000000
1820.961706	142.900000
1822.756792	150.100000
1824.546225	141.100000
1826.338795	126.100000
1828.129230	125.800000
1829.917531	148.100000
1831.708967	129.400000
1833.494757	130.000000
1835.281927	141.900000
1837.066965	118.100000
1838.855137	138.200000
1840.639423	136.500000
1842.421580	151.100000
1844.205115	136.300000
1845.986522	144.500000
1847.769308	142.600000
1849.548214	145.700000
1851.328498	138.300000
1853.106656	135.800000
1854.886193	148.700000
1856.663605	133.100000
1858.438893	141.700000
1860.215560	142.900000
1861.990103	138.000000
1863.766025	138.100000
1865.536326	155.800000
1867.309755	134.100000
1869.081064	147.000000
1870.852003	145.900000
1872.624318	151.800000
1874.391020	149.400000
1876.160848	162.100000
1877.926812	157.000000
1879.695900	142.000000
1881.461126	139.800000
1883.225983	141.500000
1884.992218	139.600000
1886.754594	149.700000
1888.516603	133.800000
1890.278244	161.200000
1892.039519	143.400000
1893.800426	154.800000
1895.560967	126.200000
1897.319398	149.700000
1899.077464	139.800000
1900.833421	132.500000
1902.590756	154.000000
1904.347724	121.700000
1906.102587	122.100000
1907.855344	129.500000
1909.607738	134.300000
1911.361507	132.100000
1913.113173	134.000000
1914.862737	132.400000
1916.613677	125.200000
1918.364253	146.800000
1920.110990	123.500000
1921.859104	126.900000
1923.605118	126.600000
1925.352508	111.100000
1927.097799	121.100000
1928.840993	132.600000
1930.585563	132.100000
1932.328036	122.600000
1934.070149	130.400000
1935.811902	138.100000
1937.553296	125.200000
1939.292596	129.100000
1941.031536	128.500000
1942.770119	148.700000
1944.506609	108.400000
1946.242742	123.300000
1947.980249	138.200000
1949.713934	117.000000
1951.448994	129.300000
1953.181966	128.900000
1954.914581	124.300000
1956.646839	130.800000
1958.378741	119.100000
1960.108557	138.100000
1961.836289	123.400000
1963.565394	134.400000
1965.294145	141.800000
1967.020812	132.600000
1968.747125	129.000000
1970.474811	147.700000
1972.196961	135.000000
1973.922212	138.600000
1975.643657	129.600000
1977.368201	125.700000
1979.090666	130.600000
1980.809327	127.700000
1982.531087	111.700000
1984.249045	129.600000
1985.968376	131.900000
1987.683908	117.600000
1989.404261	125.800000
1991.120814	132.900000
1992.833571	119.700000
1994.549425	124.700000
1996.263205	134.600000
1997.976636	125.400000
1999.687996	117.200000
2001.400729	133.500000
2003.109670	132.500000
2004.821705	130.200000
2006.528230	133.800000
2008.237848	123.300000
2009.945398	115.200000
2011.652601	136.200000
2013.357738	114.500000
2015.062528	123.500000
2016.768690	140.800000
2018.471070	137.700000
2020.174822	126.600000
2021.876510	130.600000
2023.577854	131.400000
2025.278852	135.100000
2026.977790	132.600000
2028.678098	133.200000
2030.374632	114.300000
2032.072537	140.900000
2033.768383	114.900000
2035.467315	127.700000
2037.160761	110.700000
2038.855579	131.100000
2040.550053	119.500000
2042.240759	124.800000
2043.934549	122.900000
2045.624572	133.400000
2047.315966	90.000000
2049.005307	119.400000
2050.696018	114.800000
2052.382966	128.500000
2054.069575	114.400000
2055.757554	112.600000
2057.441773	149.300000
2059.127362	117.200000
2060.812612	129.900000
2062.495814	130.300000
2064.180385	125.200000
2065.859494	124.600000
2067.543388	117.000000
2069.221822	104.300000
2070.903332	118.300000
2072.581092	113.000000
2074.258514	119.400000
2075.937306	134.600000
2077.614056	122.600000
2079.288764	113.900000
2080.964841	120.200000
2082.638878	113.900000
2084.312579	111.000000
2085.985945	142.300000
2087.657273	118.400000
2089.328266	115.100000
2090.998925	116.200000
2092.669249	119.200000
2094.339240	112.200000
2096.007195	110.400000
2097.674817	122.500000
2099.340404	113.400000
2101.007361	123.600000
2102.672283	127.900000
2104.336874	121.300000
2105.999433	115.900000
2107.663360	123.100000
2109.325257	137.000000
2110.986822	138.900000
2112.648056	103.300000
2114.307262	117.800000
2115.966137	137.300000
2117.624683	125.200000
2119.282899	119.900000
2120.937391	129.500000
2122.594948	110.300000
2124.252176	120.900000
2125.905682	96.100000
2127.560556	128.900000
2129.211712	116.200000
2130.865929	121.100000
2132.516430	120.800000
2134.168297	117.100000
2135.814756	112.000000
2137.465970	114.800000
2139.113470	117.200000
2140.762337	103.100000
2142.409186	128.300000
2144.055708	116.000000
2145.701905	141.100000
2147.344394	119.000000
2148.989941	118.400000
2150.631781	116.400000
2152.276678	115.400000
2153.917870	119.100000
2155.558738	103.100000
2157.199282	109.400000
2158.837814	129.300000
2160.477712	113.000000
2162.113910	104.800000
2163.751475	119.800000
2165.388716	133.300000
2167.023948	111.800000
2168.658859	130.100000
2170.293448	123.100000
2171.927715	113.900000
2173.558289	124.600000
2175.191915	109.900000
2176.821849	129.100000
2178.453148	134.900000
2180.082442	99.200000
2181.711417	126.000000
2183.340073	109.500000
2184.968409	133.600000
2186.594742	115.300000
2188.220757	112.400000
2189.844771	94.300000
2191.470149	120.100000
2193.093528	110.600000
2194.718270	110.400000
2196.339332	94.900000
2197.960077	129.000000
2199.582187	109.900000
2201.202299	123.300000
2202.820414	115.000000
2204.438214	119.900000
2206.055699	109.400000
2207.672868	115.900000
2209.289722	112.900000
2210.906261	116.400000
2212.520806	132.600000
2214.133359	143.900000
2215.747276	118.700000
2217.359202	104.300000
2218.972491	125.600000
2220.583790	126.600000
2222.193099	117.300000
2223.803772	106.900000
2225.412456	101.500000
2227.020828	129.000000
2228.627212	97.600000
2230.234960	131.100000
2231.840721	121.400000
2233.446171	99.200000
2235.049636	97.700000
2236.654464	127.800000
2238.257309	105.600000
2239.858170	125.000000
2241.460393	104.700000
2243.060635	117.900000
2244.662239	92.600000
2246.260191	114.800000
2247.859505	123.300000
2249.456839	106.000000
2251.053864	116.900000
2252.652252	125.700000
2254.246991	125.900000
2255.839753	120.900000
2257.433878	134.800000
2259.029364	95.500000
2260.621206	104.500000
2262.212741	128.900000
2263.805637	110.700000
2265.393224	103.200000
2266.985508	113.800000
2268.572484	121.200000
2270.162489	114.200000
2271.747189	119.400000
2273.336583	112.400000
2274.920674	101.500000
2276.506127	110.900000
2278.089610	110.500000
2279.676120	109.600000
2281.258996	126.300000
2282.841568	113.200000
2284.423837	126.800000
2286.002477	103.300000
2287.584140	122.000000
2289.162175	121.500000
2290.743233	114.400000
2292.320665	109.300000
2293.896132	104.200000
2295.474622	93.000000
2297.049488	104.500000
2298.624053	91.400000
2300.198318	112.900000
2301.772282	112.900000
2303.345946	95.700000
2304.919309	120.200000
2306.489054	100.600000
2308.058500	120.000000
2309.630965	108.100000
2311.198154	102.100000
2312.768362	102.700000
2314.334955	109.100000
2315.902908	118.200000
2317.468905	131.500000
2319.034605	114.600000
2320.600008	111.600000
2322.163456	119.200000
2323.728264	116.700000
2325.289464	122.900000
2326.853678	118.900000
2328.412631	108.700000
2329.974597	106.800000
2331.534613	123.400000
2333.094333	104.400000
2334.652104	115.900000
2336.209580	103.200000
2337.766762	116.500000
2339.321997	107.500000
2340.876937	110.500000
2342.431584	86.900000
2343.985937	118.700000
2345.539996	104.900000
2347.093761	95.900000
2348.645583	99.600000
2350.195461	108.900000
2351.748347	113.600000
2353.295991	99.100000
2354.846642	120.600000
2356.393702	118.700000
2357.942121	111.900000
2359.490247	131.100000
2361.034785	116.300000
2362.580681	125.400000
2364.124639	114.700000
2365.669954	128.700000
2367.211684	94.900000
2368.754771	109.500000
2370.295923	111.000000
2371.836785	102.100000
2373.377358	98.000000
2374.917641	119.500000
2376.457636	112.600000
2377.994053	105.800000
2379.533471	109.400000
2381.069312	99.000000
2382.606509	114.900000
2384.140131	121.000000
2385.676754	108.100000
2387.211445	114.300000
2388.744207	112.500000
2390.276682	118.100000
2391.807230	107.200000
2393.340775	104.700000
2394.869109	88.200000
2396.398799	95.300000
2397.928204	99.000000
2399.457323	104.000000
2400.986158	91.900000
2402.509787	106.400000
2404.038053	90.100000
2405.561115	92.000000
2407.088811	115.300000
2408.609668	113.300000
2410.135158	95.300000
2411.657087	132.600000
2413.180372	113.500000
2414.701736	105.200000
2416.221180	118.700000
2417.741979	118.400000
2419.260859	104.900000
2420.779457	129.400000
2422.296138	118.500000
2423.814173	117.600000
2425.331927	122.900000
2426.846130	124.600000
2428.360052	121.300000
2429.873694	127.100000
2431.388691	140.900000
2432.900139	130.400000
2434.412942	131.000000
2435.923832	147.800000
2437.434442	140.300000
2438.943141	132.900000
2440.454827	156.500000
2441.962968	161.600000
2443.470832	141.300000
2444.978418	160.100000
2446.482463	166.800000
2447.989494	172.100000
2449.494616	178.300000
2450.999461	165.300000
2452.502399	169.900000
2454.005060	193.300000
2455.507445	160.300000
2457.007925	162.900000
2458.509758	161.900000
2460.009687	172.900000
2461.509340	159.500000
2463.008717	175.000000
2464.506192	163.300000
2466.001765	171.900000
2467.500319	163.100000
2468.995343	145.500000
2470.491721	148.300000
2471.984571	136.500000
2473.478775	127.700000
2474.972705	142.900000
2476.463112	146.800000
2477.956495	144.800000
2479.447981	124.200000
2480.937570	134.600000
2482.426887	150.400000
2483.914309	143.100000
2485.404706	121.800000
2486.891584	126.200000
2488.379814	128.400000
2489.864528	117.000000
2491.348971	130.200000
2492.834766	139.200000
2494.318668	109.600000
2495.803922	143.100000
2497.284042	113.200000
2498.767134	126.400000
2500.248336	107.300000
2501.729269	121.800000
2503.208313	102.200000
2504.687088	108.400000
2506.165595	139.000000
2507.643834	116.600000
2509.121804	110.300000
2510.596270	108.900000
2512.073704	113.700000
2513.547635	131.800000
2515.022916	110.200000
2516.497931	125.300000
2517.969444	126.600000
2519.442307	116.600000
2520.913288	117.700000
2522.385619	105.800000
2523.852837	96.400000
2525.323020	111.200000
2526.791323	111.200000
2528.259361	111.100000
2529.727134	125.200000
2531.194642	113.000000
2532.661885	110.800000
2534.125636	105.400000
2535.590737	110.200000
2537.053961	112.100000
2538.518535	90.400000
2539.979619	111.800000
2541.442053	108.700000
2542.904224	97.700000
2544.362909	102.500000
2545.826166	127.700000
2547.284326	113.700000
2548.743835	110.800000
2550.198251	115.400000
2551.657236	129.000000
2553.114350	113.600000
2554.569593	105.400000
2556.024575	102.600000
2557.477687	117.900000
2558.932148	116.200000
2560.384740	120.500000
2561.837072	119.200000
2563.287536	117.800000
2564.740956	120.900000
2566.189294	101.800000
2567.640588	101.800000
2569.090015	130.100000
2570.535970	113.800000
2571.984881	129.800000
2573.430320	130.800000
2574.877108	110.500000
2576.322032	98.700000
2577.766699	114.000000
2579.212713	112.200000
2580.655260	129.300000
2582.099155	128.900000
2583.539585	104.900000
2584.981362	118.200000
2586.421280	122.200000
2587.862545	114.000000
2589.300349	137.900000
2590.741102	113.600000
2592.176792	118.900000
2593.615432	115.500000
2595.052215	114.200000
2596.487141	117.400000
2597.925016	115.600000
2599.357832	115.400000
2600.791996	113.800000
2602.224306	105.800000
2603.657962	121.000000
2605.089765	109.500000
2606.521315	130.500000
2607.952611	132.300000
2609.382055	137.000000
2610.811248	110.700000
2612.238589	106.600000
2613.667277	139.500000
2615.095712	129.900000
2616.520700	133.300000
2617.947035	135.100000
2619.371521	134.300000
2620.797353	138.500000
2622.219741	142.200000
2623.643475	152.900000
2625.065362	152.200000
2626.487000	155.600000
2627.906792	136.700000
2629.327930	143.500000
2630.748818	149.000000
2632.166268	159.600000
2633.586657	169.400000
2635.003609	165.800000
2636.420313	174.700000
2637.836768	161.500000
2639.252975	181.900000
2640.668933	208.300000
2642.083051	195.200000
2643.496922	207.100000
2644.908953	191.900000
2646.322329	197.800000
2647.732275	208.500000
2649.145156	233.400000
2650.554610	241.600000
2651.963817	255.400000
2653.371187	275.700000
2654.781493	290.800000
2656.189962	311.500000
2657.596596	337.000000
2659.002985	351.200000
2660.407540	376.700000
2661.813439	435.600000
2663.217505	445.100000
2664.621326	514.700000
2666.024904	598.200000
2667.426649	602.100000
2668.829738	698.500000
2670.229409	766.700000
2671.630424	827.000000
2673.028023	942.500000
2674.428552	1056.400000
2675.825666	1143.000000
2677.224123	1261.400000
2678.620752	1323.800000
2680.017139	1424.900000
2681.413285	1522.800000
2682.807604	1538.700000
2684.203266	1541.700000
2685.595518	1551.400000
2686.989114	1531.300000
2688.380885	1491.900000
2689.773998	1399.400000
2691.165288	1327.000000
2692.554755	1225.600000
2693.943982	1119.900000
2695.332970	1024.200000
2696.723300	932.800000
2698.108645	831.800000
2699.496914	748.400000
2700.883363	671.300000
2702.269573	635.700000
2703.655545	554.800000
2705.038117	531.100000
2706.422032	455.800000
2707.805709	450.300000
2709.189148	413.800000
2710.569191	357.900000
2711.950576	335.600000
2713.330145	313.900000
2714.711056	291.600000
2716.090151	279.400000
2717.467433	267.200000
2718.846056	239.000000
2720.222866	228.600000
2721.599440	237.300000
2722.975778	203.300000
2724.350304	188.500000
2725.726171	201.000000
2727.098651	190.200000
2728.474047	165.100000
2729.844483	173.200000
2731.216260	155.100000
2732.587802	164.300000
2733.957536	175.000000
2735.328611	158.200000
2736.697877	145.100000
2738.066911	135.700000
2739.434137	150.900000
2740.801131	145.500000
2742.167892	139.700000
2743.534420	129.700000
2744.899143	130.500000
2746.263635	147.800000
2747.627894	113.300000
2748.991921	119.200000
2750.355717	125.400000
2751.716139	110.500000
2753.079472	117.500000
2754.437862	129.100000
2755.799162	101.700000
2757.157091	123.900000
2758.517930	110.000000
2759.876968	131.000000
2761.232638	117.900000
2762.591216	119.400000
2763.946428	111.200000
2765.301410	90.900000
2766.654595	110.600000
2768.010687	110.900000
2769.363415	101.900000
2770.715914	101.200000
2772.068185	107.200000
2773.421795	101.600000
2774.772043	101.600000
2776.120498	95.300000
2777.471857	102.600000
2778.819857	103.300000
2780.169196	96.200000
2781.516742	101.000000
2782.864061	76.900000
2784.211154	106.100000
2785.556456	119.000000
2786.901532	104.000000
2788.246382	97.700000
2789.591005	111.900000
2790.932277	92.800000
2792.274887	104.600000
2793.617271	109.600000
2794.959431	102.600000
2796.298241	107.000000
2797.639950	97.300000
2798.978312	96.400000
2800.318011	102.000000
2801.655924	97.900000
2802.992053	99.300000
2804.327958	101.400000
2805.665201	97.100000
2807.000660	105.200000
2808.335896	108.900000
2809.669349	108.700000
2811.004140	115.600000
2812.335589	91.000000
2813.669934	105.300000
2814.999381	95.000000
2816.330165	103.900000
2817.660727	97.600000
2818.989510	104.100000
2820.319629	90.400000
2821.647970	120.700000
2822.976090	96.300000
2824.302432	101.000000
2825.630111	99.600000
2826.954457	98.300000
2828.280138	88.400000
2829.604044	121.600000
2830.927731	84.800000
2832.252753	87.900000
2833.574445	89.800000
2834.895919	89.400000
2836.217174	94.900000
2837.538210	92.900000
2838.857474	99.800000
2840.178073	110.000000
2841.496900	81.700000
2842.815509	89.600000
2844.132347	91.400000
2845.448968	89.900000
2846.765372	80.900000
2848.080007	98.700000
2849.395976	83.500000
2850.708625	86.700000
2852.022610	99.200000
2853.336377	92.200000
2854.649929	83.300000
2855.961713	88.400000
2857.271731	90.000000
2858.583084	105.400000
2859.891122	88.100000
2861.200495	85.300000
2862.509652	78.400000
2863.818594	95.000000
2865.125773	80.600000
2866.431188	96.100000
2867.737938	108.800000
2869.042925	99.100000
2870.347699	83.200000
2871.650711	81.200000
2872.956605	84.000000
2874.257643	100.000000
2875.560016	79.900000
2876.860629	90.300000
2878.162576	100.400000
2879.464310	77.600000
2880.762739	86.100000
2882.062503	82.700000
2883.360508	106.200000
2884.658302	83.600000
2885.954340	80.000000
2887.251711	89.300000
2888.547326	77.500000
2889.842730	90.900000
2891.137924	95.000000
2892.429819	70.500000
2893.724591	85.100000
2895.016066	91.300000
2896.308874	87.200000
2897.601472	88.500000
2898.890776	96.500000
2900.181412	82.600000
2901.470297	75.900000
2902.760515	82.200000
2904.047440	71.700000
2905.335699	95.100000
2906.622207	91.600000
2907.908508	78.300000
2909.194600	70.800000
2910.478944	82.100000
2911.766160	86.000000
2913.048548	91.500000
2914.332269	78.300000
2915.614244	73.500000
2916.896012	92.500000
2918.176034	104.300000
2919.458926	74.500000
2920.740073	90.200000
2922.017938	73.200000
2923.298672	90.500000
2924.576125	75.500000
2925.853372	87.800000
2927.128878	71.400000
2928.407251	74.600000
2929.680809	91.600000
2930.957235	89.100000
2932.231920	94.300000
2933.504865	88.800000
2934.779140	74.600000
2936.051676	97.800000
2937.324008	70.300000
2938.593066	81.500000
2939.864990	75.300000
2941.135176	93.500000
2942.405159	101.000000
2943.674938	86.700000
2944.942980	79.000000
2946.209287	91.200000
2947.475391	81.000000
2948.742825	89.900000
2950.008525	86.900000
2951.274022	90.000000
2952.539317	80.900000
2953.801347	70.000000
2955.064708	77.100000
2956.327866	72.100000
2957.589293	81.800000
2958.852049	73.100000
2960.113074	90.100000
2961.372367	77.400000
2962.631461	92.300000
2963.890354	75.100000
2965.149047	69.100000
2966.407540	80.100000
2967.664304	70.300000
2968.920868	62.000000
2970.175705	84.300000
2971.431871	81.200000
2972.684781	73.300000
2973.939021	85.000000
2975.193062	70.900000
2976.445377	83.300000
2977.697494	94.100000
2978.947886	71.200000
2980.201133	94.400000
2981.449603	66.300000
2982.700927	65.700000
2983.949003	72.200000
2985.196881	59.200000
2986.444562	66.200000
2987.692047	92.000000
2988.937810	75.600000
2990.183376	68.400000
2991.430270	82.400000
2992.673920	82.500000
2993.918898	76.600000
2995.160633	72.600000
2996.405218	79.100000
2997.648085	76.000000
2998.887711	79.100000
3000.130187	79.100000
3001.369424	72.900000
3002.609988	56.900000
3003.848835	73.600000
3005.087488	83.300000
3006.324425	83.900000
3007.562689	71.100000
3008.799239	84.200000
3010.035594	63.500000
3011.271756	67.600000
3012.506205	54.300000
3013.740460	86.300000
3014.974522	69.400000
3016.206872	91.400000
3017.437510	66.800000
3018.670994	67.000000
3019.902766	74.300000
3021.132828	65.800000
3022.362698	70.400000
3023.590858	66.800000
3024.820344	91.600000
3026.048122	83.700000
3027.275708	75.200000
3028.504620	70.900000
3029.728790	73.000000
3030.955803	53.700000
3032.179592	58.000000
3033.404708	73.400000
3034.628117	70.700000
3035.851337	82.700000
3037.072851	55.800000
3038.297206	58.900000
3039.516826	77.700000
3040.737771	71.600000
3041.958528	72.000000
3043.177581	57.500000
3044.397960	71.300000
3045.615122	68.400000
3046.833609	61.700000
3048.050394	83.200000
3049.266992	60.200000
3050.483401	79.900000
3051.696598	70.000000
3052.912632	82.700000
3054.125454	87.200000
3055.341113	71.700000
3056.552049	63.900000
3057.764310	80.300000
3058.976385	68.900000
3060.188273	67.600000
3061.398463	66.000000
3062.608467	61.100000
3063.818286	63.800000
3065.026408	79.200000
3066.234344	60.000000
3067.440586	76.800000
3068.648151	70.700000
3069.854023	74.100000
3071.059709	77.500000
3072.265210	66.600000
3073.469018	64.200000
3074.674150	74.100000
3075.877590	73.400000
3077.079337	72.200000
3078.280901	43.400000
3079.482281	66.700000
3080.683477	62.300000
3081.882983	55.300000
3083.082305	79.400000
3084.282951	61.100000
3085.481907	68.200000
3086.677669	78.700000
3087.876260	64.300000
3089.071657	70.200000
3090.268377	56.600000
3091.461905	60.400000
3092.658261	58.700000
3093.852931	72.200000
3095.044410	41.300000
3096.240220	67.200000
3097.431337	56.900000
3098.623776	69.100000
3099.813028	77.200000
3101.005106	65.000000
3102.195499	58.600000
3103.382707	52.800000
3104.571238	61.300000
3105.761091	79.300000
3106.947759	55.300000
3108.134248	62.300000
3109.320557	78.500000
3110.508188	71.400000
3111.692638	55.100000
3112.875407	82.700000
3114.061000	55.800000
3115.244912	64.400000
3116.427146	55.300000
3117.609201	55.100000
3118.791079	71.700000
3119.972778	64.000000
3121.152799	51.700000
3122.331144	64.900000
3123.512310	52.300000
3124.690300	76.600000
3125.868113	82.000000
3127.045749	68.500000
3128.221710	64.300000
3129.397494	58.800000
3130.574600	47.100000
3131.750031	56.100000
3132.923789	55.700000
3134.095875	81.200000
3135.269281	63.200000
3136.442512	71.500000
3137.614070	51.200000
3138.786950	66.400000
3139.956662	56.200000
3141.127695	67.300000
3142.297057	56.000000
3143.464750	60.900000
3144.635258	37.700000
3145.801107	59.900000
3146.971266	60.400000
3148.136767	56.600000
3149.302095	70.500000
3150.467249	68.100000
3151.632229	44.100000
3152.798530	53.600000
3153.960177	49.700000
3155.123145	70.000000
3156.285939	74.200000
3157.448561	78.400000
3158.609518	46.700000
3159.770302	68.100000
3160.930914	44.700000
3162.089863	59.800000
3163.248639	43.400000
3164.407244	76.600000
3165.565677	61.100000
3166.723938	73.900000
3167.880537	80.400000
3169.035475	42.900000
3170.191732	61.600000
3171.346329	70.700000
3172.500754	55.900000
3173.653520	65.300000
3174.806116	64.600000
3175.958541	70.300000
3177.110797	63.100000
3178.262883	56.100000
3179.411822	50.200000
3180.563568	50.500000
3181.713656	58.800000
3182.862088	71.700000
3184.010351	60.700000
3185.158444	67.900000
3186.306369	51.900000
3187.452639	52.900000
3188.598740	61.100000
3189.743186	65.700000
3190.887465	51.100000
3192.031576	66.500000
3193.177005	58.800000
3194.319294	59.000000
3195.461417	67.500000
3196.603372	61.900000
3197.745161	56.800000
3198.886782	60.100000
3200.025267	54.100000
3201.165070	68.800000
3202.306191	56.400000
3203.444177	58.500000
3204.580514	56.100000
3205.716685	53.600000
3206.854174	51.100000
3207.990013	69.300000
3209.127170	67.400000
3210.259714	52.900000
3211.396540	62.800000
3212.528754	62.800000
3213.662286	56.200000
3214.795652	62.800000
3215.925891	61.000000
3217.058928	65.800000
3218.188839	45.900000
3219.320067	68.100000
3220.448169	46.400000
3221.579068	68.700000
3222.708324	73.800000
3223.835935	52.800000
3224.960425	57.600000
3226.089190	64.200000
3227.214833	42.900000
3228.340313	62.000000
3229.464152	68.900000
3230.590785	70.400000
3231.712821	73.600000
3232.836173	68.400000
3233.959363	97.600000
3235.082391	81.800000
3236.203779	93.100000
3237.325006	98.200000
3238.444594	101.700000
3239.564021	110.800000
3240.681810	95.400000
3241.802392	126.400000
3242.919859	95.700000
3244.037167	95.300000
3245.154313	93.600000
3246.269824	125.800000
3247.386650	102.700000
3248.500365	94.800000
3249.616870	96.100000
3250.731741	91.600000
3251.843503	82.500000
3252.955106	90.200000
3254.068023	68.900000
3255.180782	71.100000
3256.290434	61.800000
3257.401400	68.100000
3258.512208	66.400000
3259.621385	63.000000
3260.728930	59.100000
3261.837790	74.400000
3262.946491	60.900000
3264.052090	72.500000
3265.159003	48.600000
3266.264288	51.100000
3267.370886	62.300000
3268.474384	58.700000
3269.579196	65.800000
3270.683851	55.500000
3271.785407	57.000000
3272.886808	54.600000
3273.989522	52.900000
3275.092079	43.300000
3276.191540	67.500000
3277.293785	60.300000
3278.392934	49.300000
3279.490459	46.800000
3280.587828	62.000000
3281.687980	66.000000
3282.785038	39.100000
3283.881941	53.400000
3284.978689	66.800000
3286.070879	43.200000
3287.167317	67.300000
3288.262134	48.600000
3289.356795	56.600000
3290.449835	62.600000
3291.542721	42.600000
3292.633986	57.500000
3293.726564	41.500000
3294.817521	69.600000
3295.906859	38.300000
3296.996044	56.000000
3298.086542	44.400000
3299.173955	25.100000
3300.261216	54.300000
3301.349789	64.800000
3302.438209	52.800000
3303.522082	57.500000
3304.610197	55.300000
3305.695231	48.100000
3306.778648	62.100000
3307.863378	62.000000
3308.946493	72.800000
3310.030919	53.100000
3311.112267	59.300000
3312.194927	66.800000
3313.275973	56.400000
3314.356868	61.300000
3315.436150	47.600000
3316.515281	44.900000
3317.595723	55.100000
3318.673092	40.200000
3319.751771	42.400000
3320.828840	47.300000
3321.905758	57.200000
3322.981065	48.600000
3324.056223	37.900000
3325.132692	42.000000
3326.206091	45.300000
3327.279341	45.200000
3328.353902	46.700000
3329.426853	68.300000
3330.498197	46.000000
3331.570851	49.300000
3332.640438	63.300000
3333.711336	58.600000
3334.780627	43.700000
3335.851229	50.200000
3336.920224	49.900000
3337.987613	75.800000
3339.053397	58.600000
3340.123407	60.300000
3341.190354	54.000000
3342.254239	58.800000
3343.320892	50.100000
3344.385940	27.000000
3345.449385	57.800000
3346.512684	66.000000
3347.575836	33.200000
3348.638842	57.000000
3349.701702	43.900000
3350.762960	57.300000
3351.821161	48.300000
3352.883583	58.800000
3353.942948	56.400000
3355.002168	52.800000
3356.062698	53.000000
3357.118718	60.200000
3358.177503	42.600000
3359.231780	56.700000
3360.288820	47.300000
3361.344263	55.500000
3362.401014	47.000000
3363.456168	59.800000
3364.509724	47.200000
3365.561683	54.600000
3366.616404	55.000000
3367.668076	53.600000
3368.719605	50.400000
3369.772443	36.900000
3370.822233	43.000000
3371.873331	42.000000
3372.921384	35.300000
3373.972197	41.700000
3375.019964	43.500000
3376.067589	43.100000
3377.115071	25.300000
3378.160961	52.300000
3379.208159	62.200000
3380.252315	57.400000
3381.299229	39.200000
3382.344551	58.300000
3383.386833	35.300000
3384.428973	53.900000
3385.472421	39.100000
3386.515729	49.300000
3387.557446	57.700000
3388.599022	48.000000
3389.640458	56.400000
3390.680304	55.800000
3391.718563	27.200000
3392.758129	47.300000
3393.797554	37.600000
3394.835392	49.200000
3395.871643	42.800000
3396.907755	69.900000
3397.945174	45.300000
3398.979560	48.400000
3400.015253	32.600000
3401.050807	32.200000
3402.083330	59.900000
3403.118606	47.500000
3404.150851	44.300000
3405.182958	58.700000
3406.213481	64.100000
3407.245312	37.300000
3408.277003	44.800000
3409.305668	41.800000
3410.334194	43.400000
3411.364028	57.100000
3412.393723	40.900000
3413.420393	56.100000
3414.448370	43.200000
3415.473322	53.100000
3416.501024	45.000000
3417.525703	66.200000
3418.551688	60.300000
3419.576093	48.500000
3420.600362	59.500000
3421.623052	55.800000
3422.645606	58.300000
3423.669466	44.500000
3424.690306	35.100000
3425.711011	28.900000
3426.733021	56.300000
3427.752013	52.000000
3428.770870	40.600000
3429.791032	40.200000
3430.808178	38.100000
