-118.448435	5.400000
-115.778835	9.800000
-113.112170	12.500000
-110.446257	-12.900000
-107.783276	1.600000
-105.118866	0.800000
-102.457386	-0.900000
-99.794476	-2.600000
-97.136674	7.900000
-94.477441	5.300000
-91.818958	3.700000
-89.163398	7.900000
-86.506410	-9.200000
-83.854519	19.800000
-81.201199	0.000000
-78.550799	-18.700000
-75.898969	22.400000
-73.252230	4.900000
-70.604061	-4.300000
-67.956636	-14.500000
-65.312124	-3.400000
-62.666184	-1.000000
-60.025325	-6.100000
-57.383037	9.900000
-54.743657	4.900000
-52.102849	0.300000
-49.462781	8.100000
-46.827785	16.300000
-44.191360	-5.500000
-41.557839	3.000000
-38.922889	9.400000
-36.293004	-4.800000
-33.659527	11.800000
-31.031112	7.800000
-28.403430	-4.800000
-25.774321	-2.900000
-23.150268	32.000000
-20.522626	19.900000
-17.900037	12.500000
-15.278180	25.700000
-12.657053	45.100000
-10.036656	81.500000
-7.419147	255.200000
-4.800210	911.500000
-2.184159	2533.100000
0.431164	5091.100000
3.045760	2763.600000
5.657473	379.600000
8.270615	45.700000
10.878723	33.800000
13.490413	-2.100000
16.097072	6.300000
18.705159	11.400000
21.312522	-12.900000
23.914860	11.100000
26.520776	4.200000
29.121670	5.300000
31.723992	-11.700000
34.321297	6.100000
36.922177	12.100000
39.518043	22.900000
42.115336	13.300000
44.711910	9.700000
47.303475	-0.600000
49.896468	12.400000
52.486600	-4.000000
55.078160	2.300000
57.666860	19.900000
60.256987	-0.600000
62.842116	-5.900000
65.428671	3.300000
68.014513	-12.600000
70.597501	-3.000000
73.181915	-0.600000
75.759201	-2.700000
78.340053	-5.200000
80.918056	14.300000
83.495349	8.200000
86.074068	6.700000
88.647806	17.400000
91.222970	15.200000
93.795291	0.600000
96.366904	10.900000
98.935677	-12.800000
101.505877	8.100000
104.073239	-4.300000
106.642026	6.000000
109.207977	-15.700000
111.771093	3.200000
114.337765	1.500000
116.895216	9.900000
119.458352	11.200000
122.016529	24.500000
124.578259	33.600000
127.135034	45.600000
129.693234	74.500000
132.246482	86.400000
134.799031	102.000000
137.355131	189.600000
139.906284	246.900000
142.456738	310.800000
145.006496	358.900000
147.553434	429.500000
150.099676	430.900000
152.647344	468.400000
155.194317	431.200000
157.736353	431.600000
160.277696	441.800000
162.818346	436.900000
165.360422	431.000000
167.899687	437.800000
170.436142	437.100000
172.971907	423.300000
175.509097	417.400000
178.045595	456.100000
180.579288	409.700000
183.110178	425.700000
185.640379	418.800000
188.172005	440.500000
190.700830	434.200000
193.226856	426.000000
195.752197	416.300000
198.278962	416.900000
200.802930	422.700000
203.326214	424.900000
205.848813	414.100000
208.368619	443.000000
210.887742	411.700000
213.406182	410.400000
215.926046	411.200000
218.438909	428.200000
220.955303	429.400000
223.471015	455.700000
225.981838	459.600000
228.494085	465.800000
231.003549	448.000000
233.512335	453.300000
236.020443	444.800000
238.529974	441.600000
241.034625	478.500000
243.538601	465.100000
246.044000	440.900000
248.544524	454.700000
251.048571	453.200000
253.545648	426.200000
256.046247	454.300000
258.544075	464.500000
261.041230	446.200000
263.537712	435.400000
266.029331	433.400000
268.524470	436.600000
271.016843	440.400000
273.508545	430.200000
275.997483	444.400000
278.487846	452.200000
280.975447	458.600000
283.460288	481.100000
285.948643	473.500000
288.430059	474.800000
290.914989	466.000000
293.395074	491.500000
295.878671	494.400000
298.357425	515.000000
300.837603	522.300000
303.315028	511.300000
305.791790	503.500000
308.267889	510.400000
310.741239	467.000000
313.213927	455.800000
315.685954	475.400000
318.157320	482.800000
320.625942	502.700000
323.093904	490.300000
325.563289	471.600000
328.027850	472.100000
330.495916	438.600000
332.959162	437.900000
335.421750	438.000000
337.883682	423.000000
340.344957	421.500000
342.803498	421.700000
345.263461	414.700000
347.720691	406.300000
350.177267	393.200000
352.633189	386.500000
355.086382	401.200000
357.540996	388.800000
359.990809	372.300000
362.444119	376.200000
364.892629	364.500000
367.340489	367.000000
369.789770	363.800000
372.234258	365.300000
374.680168	357.300000
377.125429	354.000000
379.567970	346.400000
382.009864	354.300000
384.451111	327.700000
386.889642	336.600000
389.329595	330.700000
391.766834	338.500000
394.201361	335.800000
396.639376	356.200000
399.072614	329.900000
401.507274	333.100000
403.937160	315.300000
406.370532	324.900000
408.799134	325.100000
411.227095	327.500000
413.656476	326.400000
416.081092	319.100000
418.507130	321.500000
420.932527	325.000000
423.357284	307.200000
425.777283	321.900000
428.198703	311.700000
430.617426	291.300000
433.037570	290.700000
435.455019	327.100000
437.873888	291.100000
440.290064	283.300000
442.701493	260.400000
445.116398	281.900000
447.528613	264.200000
449.940194	255.000000
452.351141	255.600000
454.759402	251.000000
457.167030	218.100000
459.574027	228.500000
461.980391	228.400000
464.384073	240.300000
466.787125	214.300000
469.189547	237.500000
471.591340	230.200000
473.990454	236.700000
476.390988	232.700000
478.790893	242.900000
481.186075	265.500000
483.584724	257.600000
485.978653	259.400000
488.371956	292.300000
490.764633	299.600000
493.156685	306.100000
495.550156	368.300000
497.938914	411.300000
500.325006	502.900000
502.712518	613.700000
505.099406	833.300000
507.483631	1121.700000
509.869275	1615.700000
512.252256	2275.800000
514.632577	2996.600000
517.014317	3576.500000
519.393398	3646.800000
521.773898	3352.000000
524.151740	2756.100000
526.526927	2228.700000
528.901496	1854.000000
531.277484	1577.000000
533.650818	1350.800000
536.025570	1192.600000
538.395637	1103.100000
540.765088	1012.700000
543.135957	898.400000
545.502146	833.200000
547.869753	738.600000
550.234714	736.800000
552.599062	712.800000
554.962798	683.500000
557.327951	623.000000
559.688431	595.300000
562.050330	568.200000
564.409589	567.800000
566.766209	550.700000
569.126274	527.100000
571.479649	500.000000
573.836468	480.900000
576.190651	480.800000
578.544227	471.200000
580.897194	456.600000
583.247530	431.600000
585.599282	420.700000
587.944358	424.700000
590.294898	406.700000
592.638765	402.400000
594.988092	390.200000
597.332772	394.200000
599.674826	362.300000
602.018298	385.100000
604.359147	370.400000
606.699394	367.200000
609.037020	389.400000
611.378081	439.000000
613.714504	448.100000
616.052345	456.100000
618.387567	439.600000
620.720174	427.600000
623.054197	405.000000
625.385607	405.900000
627.716418	391.300000
630.046631	366.500000
632.376246	364.500000
634.701239	381.300000
637.031673	360.300000
639.357485	349.400000
641.680691	340.900000
644.005312	336.200000
646.327329	346.500000
648.648751	343.800000
650.967570	336.300000
653.287805	312.400000
655.607447	321.600000
657.924488	322.000000
660.240937	321.900000
662.554788	314.300000
664.870055	326.700000
667.182725	304.200000
669.496810	328.400000
671.806295	314.200000
674.117196	333.700000
676.425504	322.000000
678.733224	311.700000
681.042359	309.600000
683.346901	308.400000
685.650856	301.300000
687.954226	309.600000
690.259010	305.000000
692.559208	308.800000
694.860820	291.200000
697.161848	294.700000
699.458293	294.600000
701.756154	297.900000
704.053431	287.600000
706.350125	269.000000
708.642243	268.400000
710.937772	261.900000
713.228728	272.800000
715.521098	269.100000
717.810892	273.200000
720.100107	288.500000
722.388741	275.000000
724.674804	257.900000
726.962280	278.500000
729.247186	263.500000
731.531513	263.800000
733.813272	274.000000
736.096445	275.300000
738.379041	267.000000
740.657082	269.900000
742.936536	234.100000
745.215415	253.300000
747.493718	231.500000
749.767472	242.700000
752.042640	259.700000
754.317234	264.000000
756.589268	265.400000
758.862716	259.400000
761.133606	245.100000
763.401940	253.500000
765.671687	238.100000
767.938880	268.200000
770.205502	261.700000
772.471555	248.400000
774.735055	249.500000
776.999969	258.100000
779.264313	257.900000
781.524128	257.800000
783.785356	234.900000
786.046015	264.500000
788.304129	245.600000
790.559698	255.800000
792.818658	259.400000
795.071119	268.600000
797.328947	238.600000
799.582255	231.500000
801.833024	255.400000
804.085205	258.200000
806.334848	239.300000
808.585902	250.400000
810.832445	238.300000
813.080400	245.200000
815.325821	232.500000
817.572653	238.000000
819.818924	250.200000
822.060691	245.000000
824.305840	244.100000
826.544517	256.900000
828.786577	237.100000
831.024138	209.400000
833.263110	203.600000
835.499556	228.700000
837.737413	223.600000
839.972745	230.800000
842.205554	242.300000
844.439774	219.500000
846.671472	206.000000
848.902615	231.000000
851.133203	233.800000
853.363236	240.500000
855.592716	240.000000
857.817714	232.700000
860.046087	225.700000
862.269981	225.000000
864.495285	224.900000
866.716114	232.200000
868.940315	215.400000
871.160043	240.000000
873.381182	212.700000
875.601770	222.800000
877.819848	211.900000
880.039337	229.800000
882.254359	215.300000
884.468833	222.900000
886.682760	231.200000
888.896139	233.500000
891.108971	226.800000
893.321257	225.200000
895.531040	220.400000
897.740278	229.800000
899.948971	216.300000
902.155165	216.400000
904.362768	203.200000
906.567874	230.600000
908.772436	210.400000
910.974502	222.700000
913.177978	238.600000
915.378960	219.400000
917.579401	228.600000
919.781249	263.800000
921.976707	261.300000
924.175524	279.300000
926.369902	298.700000
928.567638	349.200000
930.760938	331.500000
932.955647	399.100000
935.147870	446.000000
937.339555	485.100000
939.530702	492.300000
941.719366	518.300000
943.907493	502.700000
946.093140	523.300000
948.282139	521.900000
950.466715	503.300000
952.650756	507.800000
954.838147	511.800000
957.017234	515.600000
959.199672	506.400000
961.381576	524.400000
963.561006	517.100000
965.737963	526.300000
967.916327	502.500000
970.096099	507.500000
972.269522	529.200000
974.446291	522.100000
976.618653	513.600000
978.792423	508.400000
980.961789	500.700000
983.134500	493.200000
985.304744	478.100000
987.474460	412.600000
989.643647	384.200000
991.808437	323.400000
993.976568	323.100000
996.140305	303.400000
998.305448	313.500000
1000.468133	295.100000
1002.630291	291.000000
1004.789993	291.500000
1006.949171	279.700000
1009.109755	271.400000
1011.267884	246.000000
1013.425489	230.900000
1015.582571	251.800000
1017.739130	241.200000
1019.891309	225.000000
1022.044894	210.200000
1024.197958	227.400000
1026.348574	228.800000
1028.500595	229.900000
1030.648243	215.000000
1032.799223	209.400000
1034.945832	209.900000
1037.091923	206.900000
1039.237494	216.100000
1041.384471	210.400000
1043.525159	193.000000
1045.669177	209.400000
1047.810754	215.000000
1049.951815	191.300000
1052.094280	205.600000
1054.230466	190.700000
1056.369978	207.200000
1058.505134	168.800000
1060.643615	205.600000
1062.777742	189.300000
1064.911356	201.200000
1067.046375	195.000000
1069.177044	199.000000
1071.309118	209.500000
1073.438763	205.800000
1075.567896	206.000000
1077.696517	209.200000
1079.824627	202.100000
1081.950311	183.800000
1084.075485	179.200000
1086.202063	171.300000
1088.324304	186.800000
1090.447948	192.900000
1092.567259	192.800000
1094.691798	175.400000
1096.810092	180.400000
1098.929791	181.800000
1101.047071	179.800000
1103.163845	188.500000
1105.280112	201.900000
1107.393964	177.700000
1109.509219	184.800000
1111.620152	163.000000
1113.734396	185.100000
1115.844320	186.300000
1117.955648	190.600000
1120.066471	179.400000
1122.172979	174.900000
1124.282795	190.300000
1126.388297	166.400000
1128.495202	164.800000
1130.595892	184.300000
1132.701794	170.600000
1134.803387	172.100000
1136.906383	155.100000
1139.008878	171.600000
1141.105166	162.200000
1143.206662	175.000000
1145.303855	154.400000
1147.400549	164.300000
1149.496745	159.500000
1151.592444	150.800000
1153.687645	150.500000
1155.780449	172.800000
1157.874655	173.900000
1159.962670	180.700000
1162.055883	163.900000
1164.142908	160.300000
1166.233232	192.500000
1168.319269	165.900000
1170.408603	174.900000
1172.491756	179.700000
1174.576311	170.500000
1176.662268	192.100000
1178.743943	163.600000
1180.827020	154.800000
1182.907711	161.600000
1184.987910	169.500000
1187.067618	176.100000
1189.146835	180.600000
1191.223670	169.400000
1193.298124	203.400000
1195.375870	175.100000
1197.449345	178.500000
1199.524221	159.800000
1201.594830	171.800000
1203.666841	178.900000
1205.736475	167.500000
1207.807510	146.500000
1209.878057	166.700000
1211.944343	164.200000
1214.012030	181.700000
1216.077345	173.400000
1218.144060	149.900000
1220.206519	162.800000
1222.272263	153.900000
1224.333754	181.100000
1226.396644	153.400000
1228.457167	163.500000
1230.517206	179.000000
1232.576763	150.300000
1234.633954	149.100000
1236.690664	153.100000
1238.745011	135.200000
1240.802638	170.700000
1242.857903	189.000000
1244.908927	178.200000
1246.961351	175.800000
1249.013295	140.400000
1251.062881	191.400000
1253.111988	148.300000
1255.160617	189.900000
1257.208767	191.900000
1259.256439	179.700000
1261.299880	169.700000
1263.346596	170.000000
1265.390959	175.700000
1267.434846	180.600000
1269.476382	175.000000
1271.515567	172.500000
1273.558026	152.800000
1275.596262	204.200000
1277.635897	172.100000
1279.675057	167.500000
1281.709998	162.900000
1283.746339	165.600000
1285.780334	174.600000
1287.815728	174.600000
1289.846908	164.600000
1291.879487	172.800000
1293.911593	175.000000
1295.941359	165.900000
1297.972523	183.700000
1299.999479	177.000000
1302.027833	169.700000
1304.051983	170.900000
1306.079397	174.600000
1308.102609	165.000000
1310.127219	159.600000
1312.149495	160.600000
1314.173168	186.400000
1316.194508	146.100000
1318.215380	167.000000
1320.235786	148.700000
1322.251997	161.600000
1324.269606	172.200000
1326.284888	142.900000
1328.303427	157.200000
1330.317778	163.700000
1332.329803	166.600000
1334.345085	150.000000
1336.356182	169.500000
1338.368676	157.000000
1340.376987	164.200000
1342.388554	188.300000
1344.394081	164.700000
1346.402864	153.200000
1348.407469	169.900000
1350.415328	145.600000
1352.422725	166.400000
1354.424091	149.500000
1356.426854	147.300000
1358.429156	151.000000
1360.430999	153.000000
1362.432382	153.000000
1364.431452	170.000000
1366.430063	148.900000
1368.428216	157.300000
1370.425911	144.400000
1372.419442	160.100000
1374.414370	149.300000
1376.408841	144.400000
1378.402855	158.800000
1380.394561	179.900000
1382.385813	170.400000
1384.374759	161.500000
1386.365100	165.800000
1388.354986	161.800000
1390.342569	154.200000
1392.329697	160.900000
1394.314525	134.900000
1396.300746	144.300000
1398.284668	142.600000
1400.268137	155.200000
1402.251154	149.200000
1404.231872	159.000000
1406.213986	156.900000
1408.193802	148.700000
1410.173168	153.100000
1412.148394	155.800000
1414.126860	138.600000
1416.103031	161.300000
1418.078754	131.800000
1420.054027	150.500000
1422.027009	139.300000
1423.999543	169.100000
1425.971630	139.800000
1427.943268	158.000000
1429.910778	145.900000
1431.883363	123.900000
1433.848141	136.700000
1435.817991	141.600000
1437.783718	144.500000
1439.750837	138.200000
1441.715673	151.500000
1443.676390	154.000000
1445.642174	130.500000
1447.602003	146.700000
1449.563225	152.300000
1451.525840	152.400000
1453.484340	135.900000
1455.442398	160.800000
1457.400013	147.900000
1459.357187	150.900000
1461.312085	167.400000
1463.268375	154.000000
1465.222391	150.200000
1467.175967	135.000000
1469.127270	141.300000
1471.079965	162.400000
1473.030389	151.000000
1474.980373	142.400000
1476.929919	155.900000
1478.877196	162.200000
1480.822206	147.800000
1482.768607	140.200000
1484.714572	133.500000
1486.660098	138.200000
1488.603360	147.700000
1490.546185	144.500000
1492.486747	140.500000
1494.428700	134.200000
1496.368392	136.000000
1498.307648	142.800000
1500.246469	135.300000
1502.183031	134.100000
1504.120984	144.400000
1506.056679	135.200000
1507.991939	128.100000
1509.924944	149.500000
1511.857516	152.900000
1513.789656	150.700000
1515.721364	149.800000
1517.650818	155.200000
1519.581663	135.900000
1521.512077	145.900000
1523.438417	146.600000
1525.366149	135.200000
1527.291630	144.900000
1529.216682	140.500000
1531.141305	148.500000
1533.065499	168.500000
1534.987446	137.700000
1536.910782	149.200000
1538.831873	137.900000
1540.750719	165.600000
1542.670955	172.100000
1544.588947	164.000000
1546.506513	135.200000
1548.421837	161.400000
1550.338551	160.600000
1552.251210	165.600000
1554.167073	160.900000
1556.080696	181.300000
1557.992082	172.300000
1559.904856	190.600000
1561.813581	166.400000
1563.723696	206.200000
1565.633387	199.600000
1567.542654	205.800000
1569.449688	224.800000
1571.354489	237.600000
1573.260679	261.100000
1575.164637	295.300000
1577.068175	329.400000
1578.971291	392.600000
1580.872179	428.400000
1582.774454	479.800000
1584.674502	522.700000
1586.575937	494.000000
1588.473339	433.200000
1590.370322	338.000000
1592.266887	287.600000
1594.164840	241.900000
1596.056958	227.300000
1597.952269	209.800000
1599.847163	188.100000
1601.739835	178.800000
1603.632091	174.100000
1605.522126	165.000000
1607.411747	183.600000
1609.300951	167.900000
1611.189741	147.000000
1613.076314	154.500000
1614.964273	168.700000
1616.848216	167.200000
1618.733547	161.600000
1620.618463	174.600000
1622.501166	164.100000
1624.385256	161.700000
1626.265335	141.500000
1628.146800	151.700000
1630.026055	152.200000
1631.906696	146.200000
1633.781533	123.200000
1635.661352	134.000000
1637.537165	128.700000
1639.412568	132.300000
1641.289358	139.400000
1643.160350	144.800000
1645.034524	125.500000
1646.904700	137.600000
1648.778056	131.800000
1650.649209	133.700000
1652.518160	131.000000
1654.388497	153.200000
1656.254840	141.000000
1658.122569	132.500000
1659.988100	142.100000
1661.855015	148.200000
1663.717942	133.900000
1665.582254	112.800000
1667.444370	133.100000
1669.306082	130.700000
1671.169178	118.700000
1673.030080	131.600000
1674.888788	125.900000
1676.747093	128.300000
1678.606783	121.900000
1680.460706	129.600000
1682.317801	137.400000
1684.174494	124.800000
1686.027211	118.600000
1687.883098	120.100000
1689.735012	112.000000
1691.586525	141.900000
1693.437637	122.400000
1695.288349	108.300000
1697.138660	106.300000
1698.986787	117.400000
1700.836297	103.900000
1702.680059	101.900000
1704.528770	111.800000
1706.371736	111.800000
1708.217867	110.700000
1710.060037	119.300000
1711.905371	103.500000
1713.744965	102.600000
1715.585943	115.200000
1717.428304	106.700000
1719.266709	96.900000
1721.106497	138.800000
1722.944110	106.500000
1724.781327	104.000000
1726.616371	108.800000
1728.452798	114.600000
1730.287053	114.000000
1732.120913	110.400000
1733.954380	126.300000
1735.783900	126.000000
1737.616579	114.400000
1739.445314	97.700000
1741.277207	127.800000
1743.105157	126.300000
1744.932715	107.200000
1746.759881	121.200000
1748.586656	114.400000
1750.413040	103.200000
1752.235487	110.900000
1754.061088	119.800000
1755.882755	105.900000
1757.705804	111.500000
1759.526692	124.900000
1761.347190	90.700000
1763.169070	121.600000
1764.985250	107.800000
1766.804582	99.200000
1768.619987	119.200000
1770.438542	105.800000
1772.253172	114.700000
1774.067416	111.300000
1775.881272	98.700000
1777.694742	104.600000
1779.506059	106.900000
1781.318757	127.600000
1783.131068	112.000000
1784.939462	119.300000
1786.749237	123.500000
1788.555096	96.100000
1790.364101	107.900000
1792.169193	103.900000
1793.975666	111.700000
1795.781755	105.300000
1797.583934	107.100000
1799.389256	100.900000
1801.190670	116.300000
1802.993464	118.100000
1804.792352	117.200000
1806.592621	99.900000
1808.392508	97.700000
1810.190254	102.800000
1811.987618	111.200000
1813.784603	116.300000
1815.581207	104.000000
1817.375672	104.300000
1819.171516	112.700000
1820.961706	113.300000
1822.756792	109.900000
1824.546225	106.400000
1826.338795	123.800000
1828.129230	102.900000
1829.917531	119.100000
1831.708967	116.400000
1833.494757	100.100000
1835.281927	95.800000
1837.066965	113.100000
1838.855137	108.800000
1840.639423	124.300000
1842.421580	120.600000
1844.205115	124.400000
1845.986522	103.200000
1847.769308	128.500000
1849.548214	105.600000
1851.328498	116.800000
1853.106656	122.800000
1854.886193	124.500000
1856.663605	117.900000
1858.438893	108.300000
1860.215560	114.100000
1861.990103	113.900000
1863.766025	123.700000
1865.536326	106.600000
1867.309755	111.800000
1869.081064	111.800000
1870.852003	109.800000
1872.624318	114.300000
1874.391020	102.700000
1876.160848	132.000000
1877.926812	111.900000
1879.695900	121.200000
1881.461126	107.900000
1883.225983	119.100000
1884.992218	95.500000
1886.754594	120.400000
1888.516603	117.200000
1890.278244	113.100000
1892.039519	110.500000
1893.800426	117.600000
1895.560967	106.500000
1897.319398	114.000000
1899.077464	92.600000
1900.833421	115.900000
1902.590756	110.600000
1904.347724	103.800000
1906.102587	128.100000
1907.855344	108.600000
1909.607738	102.200000
1911.361507	108.000000
1913.113173	95.700000
1914.862737	120.500000
1916.613677	112.200000
1918.364253	106.600000
1920.110990	98.700000
1921.859104	106.900000
1923.605118	100.700000
1925.352508	114.200000
1927.097799	92.500000
1928.840993	103.500000
1930.585563	100.700000
1932.328036	101.100000
1934.070149	93.800000
1935.811902	106.400000
1937.553296	114.600000
1939.292596	111.900000
1941.031536	87.400000
1942.770119	119.700000
1944.506609	109.400000
1946.242742	105.900000
1947.980249	102.400000
1949.713934	103.400000
1951.448994	101.100000
1953.181966	105.200000
1954.914581	88.000000
1956.646839	114.200000
1958.378741	109.400000
1960.108557	98.600000
1961.836289	94.500000
1963.565394	85.800000
1965.294145	91.600000
1967.020812	92.900000
1968.747125	110.500000
1970.474811	98.300000
1972.196961	91.100000
1973.922212	90.800000
1975.643657	100.500000
1977.368201	97.600000
1979.090666	92.800000
1980.809327	108.200000
1982.531087	113.300000
1984.249045	103.800000
1985.968376	97.700000
1987.683908	114.900000
1989.404261	100.000000
1991.120814	106.900000
1992.833571	90.200000
1994.549425	108.000000
1996.263205	107.600000
1997.976636	113.900000
1999.687996	95.100000
2001.400729	113.500000
2003.109670	100.600000
2004.821705	114.300000
2006.528230	99.300000
2008.237848	100.200000
2009.945398	78.400000
2011.652601	101.800000
2013.357738	93.400000
2015.062528	114.400000
2016.768690	103.000000
2018.471070	86.200000
2020.174822	112.900000
2021.876510	111.700000
2023.577854	99.500000
2025.278852	96.900000
2026.977790	113.800000
2028.678098	87.300000
2030.374632	100.700000
2032.072537	83.700000
2033.768383	97.700000
2035.467315	95.000000
2037.160761	105.100000
2038.855579	91.800000
2040.550053	88.100000
2042.240759	93.100000
2043.934549	78.000000
2045.624572	89.700000
2047.315966	108.100000
2049.005307	90.400000
2050.696018	86.200000
2052.382966	110.300000
2054.069575	91.400000
2055.757554	90.300000
2057.441773	80.900000
2059.127362	87.400000
2060.812612	80.300000
2062.495814	87.100000
2064.180385	83.100000
2065.859494	91.500000
2067.543388	92.400000
2069.221822	88.200000
2070.903332	82.600000
2072.581092	94.800000
2074.258514	82.600000
2075.937306	96.400000
2077.614056	81.300000
2079.288764	95.900000
2080.964841	90.600000
2082.638878	91.900000
2084.312579	68.800000
2085.985945	93.100000
2087.657273	83.900000
2089.328266	91.100000
2090.998925	78.000000
2092.669249	111.800000
2094.339240	84.800000
2096.007195	97.700000
2097.674817	68.000000
2099.340404	91.100000
2101.007361	86.100000
2102.672283	93.900000
2104.336874	76.300000
2105.999433	86.600000
2107.663360	84.900000
2109.325257	108.500000
2110.986822	103.200000
2112.648056	101.700000
2114.307262	85.500000
2115.966137	76.200000
2117.624683	72.800000
2119.282899	75.900000
2120.937391	80.100000
2122.594948	94.200000
2124.252176	98.600000
2125.905682	83.000000
2127.560556	83.500000
2129.211712	93.600000
2130.865929	102.300000
2132.516430	89.400000
2134.168297	93.600000
2135.814756	116.200000
2137.465970	77.200000
2139.113470	75.400000
2140.762337	87.600000
2142.409186	70.200000
2144.055708	90.400000
2145.701905	107.100000
2147.344394	73.800000
2148.989941	76.500000
2150.631781	81.000000
2152.276678	84.900000
2153.917870	79.900000
2155.558738	108.500000
2157.199282	86.500000
2158.837814	92.700000
2160.477712	96.100000
2162.113910	101.200000
2163.751475	89.300000
2165.388716	104.700000
2167.023948	91.900000
2168.658859	93.400000
2170.293448	90.400000
2171.927715	93.000000
2173.558289	97.600000
2175.191915	96.700000
2176.821849	92.800000
2178.453148	88.100000
2180.082442	77.400000
2181.711417	97.200000
2183.340073	96.400000
2184.968409	98.600000
2186.594742	93.900000
2188.220757	94.200000
2189.844771	75.200000
2191.470149	84.600000
2193.093528	96.800000
2194.718270	79.700000
2196.339332	84.800000
2197.960077	92.600000
2199.582187	72.000000
2201.202299	94.300000
2202.820414	90.300000
2204.438214	82.800000
2206.055699	81.300000
2207.672868	87.000000
2209.289722	87.400000
2210.906261	104.400000
2212.520806	65.200000
2214.133359	73.800000
2215.747276	77.900000
2217.359202	93.300000
2218.972491	74.700000
2220.583790	103.300000
2222.193099	85.700000
2223.803772	81.700000
2225.412456	72.600000
2227.020828	96.800000
2228.627212	75.400000
2230.234960	87.400000
2231.840721	96.800000
2233.446171	88.500000
2235.049636	88.300000
2236.654464	89.800000
2238.257309	91.700000
2239.858170	83.100000
2241.460393	90.400000
2243.060635	72.000000
2244.662239	78.000000
2246.260191	72.000000
2247.859505	95.400000
2249.456839	84.700000
2251.053864	78.700000
2252.652252	81.400000
2254.246991	104.900000
2255.839753	88.100000
2257.433878	80.800000
2259.029364	90.500000
2260.621206	96.500000
2262.212741	70.200000
2263.805637	90.700000
2265.393224	79.900000
2266.985508	83.800000
2268.572484	75.200000
2270.162489	96.500000
2271.747189	88.100000
2273.336583	91.800000
2274.920674	88.300000
2276.506127	93.600000
2278.089610	83.400000
2279.676120	97.900000
2281.258996	83.700000
2282.841568	91.200000
2284.423837	91.200000
2286.002477	91.900000
2287.584140	89.700000
2289.162175	94.800000
2290.743233	90.900000
2292.320665	91.900000
2293.896132	92.900000
2295.474622	72.000000
2297.049488	99.100000
2298.624053	85.000000
2300.198318	71.700000
2301.772282	77.800000
2303.345946	76.200000
2304.919309	69.000000
2306.489054	69.000000
2308.058500	71.200000
2309.630965	70.700000
2311.198154	57.700000
2312.768362	84.700000
2314.334955	68.200000
2315.902908	87.600000
2317.468905	87.000000
2319.034605	85.400000
2320.600008	68.600000
2322.163456	85.600000
2323.728264	75.000000
2325.289464	89.700000
2326.853678	81.300000
2328.412631	100.800000
2329.974597	78.500000
2331.534613	78.000000
2333.094333	79.500000
2334.652104	80.200000
2336.209580	71.300000
2337.766762	61.300000
2339.321997	84.900000
2340.876937	78.700000
2342.431584	60.800000
2343.985937	62.800000
2345.539996	91.300000
2347.093761	74.200000
2348.645583	81.100000
2350.195461	75.000000
2351.748347	69.500000
2353.295991	94.700000
2354.846642	69.000000
2356.393702	77.500000
2357.942121	84.200000
2359.490247	98.800000
2361.034785	72.300000
2362.580681	98.500000
2364.124639	70.000000
2365.669954	98.200000
2367.211684	62.700000
2368.754771	79.600000
2370.295923	90.100000
2371.836785	92.500000
2373.377358	74.300000
2374.917641	71.700000
2376.457636	87.300000
2377.994053	91.800000
2379.533471	62.800000
2381.069312	88.300000
2382.606509	62.700000
2384.140131	79.600000
2385.676754	77.500000
2387.211445	93.300000
2388.744207	78.000000
2390.276682	87.100000
2391.807230	80.700000
2393.340775	82.900000
2394.869109	77.000000
2396.398799	69.400000
2397.928204	76.200000
2399.457323	84.800000
2400.986158	77.000000
2402.509787	76.300000
2404.038053	97.700000
2405.561115	85.700000
2407.088811	80.100000
2408.609668	96.500000
2410.135158	93.800000
2411.657087	82.200000
2413.180372	80.100000
2414.701736	76.300000
2416.221180	77.100000
2417.741979	79.300000
2419.260859	70.800000
2420.779457	101.900000
2422.296138	84.000000
2423.814173	74.500000
2425.331927	78.200000
2426.846130	81.200000
2428.360052	63.700000
2429.873694	88.400000
2431.388691	91.700000
2432.900139	84.300000
2434.412942	99.400000
2435.923832	96.200000
2437.434442	90.900000
2438.943141	96.200000
2440.454827	87.800000
2441.962968	97.100000
2443.470832	89.300000
2444.978418	104.600000
2446.482463	93.400000
2447.989494	106.200000
2449.494616	84.100000
2450.999461	102.500000
2452.502399	114.500000
2454.005060	104.700000
2455.507445	97.700000
2457.007925	103.400000
2458.509758	94.100000
2460.009687	108.900000
2461.509340	102.400000
2463.008717	111.900000
2464.506192	117.500000
2466.001765	103.300000
2467.500319	87.800000
2468.995343	97.200000
2470.491721	97.400000
2471.984571	84.500000
2473.478775	95.600000
2474.972705	88.500000
2476.463112	82.300000
2477.956495	95.700000
2479.447981	96.100000
2480.937570	104.000000
2482.426887	84.100000
2483.914309	91.600000
2485.404706	79.300000
2486.891584	78.500000
2488.379814	73.400000
2489.864528	88.800000
2491.348971	81.600000
2492.834766	77.700000
2494.318668	87.800000
2495.803922	78.700000
2497.284042	86.400000
2498.767134	91.000000
2500.248336	88.100000
2501.729269	65.800000
2503.208313	92.300000
2504.687088	80.000000
2506.165595	70.200000
2507.643834	75.200000
2509.121804	95.600000
2510.596270	78.000000
2512.073704	64.600000
2513.547635	91.400000
2515.022916	85.600000
2516.497931	93.800000
2517.969444	74.500000
2519.442307	90.100000
2520.913288	79.200000
2522.385619	81.200000
2523.852837	83.300000
2525.323020	66.000000
2526.791323	80.800000
2528.259361	85.200000
2529.727134	65.900000
2531.194642	84.500000
2532.661885	84.600000
2534.125636	76.100000
2535.590737	67.700000
2537.053961	82.200000
2538.518535	67.800000
2539.979619	74.600000
2541.442053	66.000000
2542.904224	86.500000
2544.362909	69.000000
2545.826166	77.700000
2547.284326	83.600000
2548.743835	88.700000
2550.198251	65.500000
2551.657236	75.200000
2553.114350	78.600000
2554.569593	99.400000
2556.024575	75.200000
2557.477687	69.500000
2558.932148	74.800000
2560.384740	81.000000
2561.837072	56.100000
2563.287536	69.000000
2564.740956	62.000000
2566.189294	83.500000
2567.640588	77.400000
2569.090015	63.900000
2570.535970	76.700000
2571.984881	84.600000
2573.430320	62.800000
2574.877108	74.600000
2576.322032	77.400000
2577.766699	81.800000
2579.212713	68.900000
2580.655260	93.600000
2582.099155	61.400000
2583.539585	87.900000
2584.981362	81.300000
2586.421280	96.200000
2587.862545	85.800000
2589.300349	93.800000
2590.741102	77.000000
2592.176792	89.100000
2593.615432	86.000000
2595.052215	92.300000
2596.487141	77.600000
2597.925016	73.100000
2599.357832	84.400000
2600.791996	74.000000
2602.224306	86.000000
2603.657962	77.500000
2605.089765	86.300000
2606.521315	72.600000
2607.952611	76.600000
2609.382055	73.300000
2610.811248	67.300000
2612.238589	75.900000
2613.667277	77.000000
2615.095712	78.900000
2616.520700	79.500000
2617.947035	81.500000
2619.371521	73.100000
2620.797353	99.600000
2622.219741	77.400000
2623.643475	86.200000
2625.065362	107.200000
2626.487000	92.400000
2627.906792	109.300000
2629.327930	111.600000
2630.748818	91.900000
2632.166268	93.100000
2633.586657	101.900000
2635.003609	113.400000
2636.420313	98.900000
2637.836768	111.700000
2639.252975	91.100000
2640.668933	130.300000
2642.083051	112.700000
2643.496922	143.600000
2644.908953	145.100000
2646.322329	143.100000
2647.732275	156.800000
2649.145156	163.200000
2650.554610	170.400000
2651.963817	167.600000
2653.371187	190.300000
2654.781493	219.200000
2656.189962	225.600000
2657.596596	262.700000
2659.002985	271.500000
2660.407540	285.900000
2661.813439	311.900000
2663.217505	337.100000
2664.621326	345.900000
2666.024904	363.400000
2667.426649	392.600000
2668.829738	434.300000
2670.229409	455.100000
2671.630424	476.900000
2673.028023	478.400000
2674.428552	466.800000
2675.825666	478.000000
2677.224123	516.700000
2678.620752	475.400000
2680.017139	477.600000
2681.413285	453.100000
2682.807604	437.100000
2684.203266	411.100000
2685.595518	371.100000
2686.989114	385.800000
2688.380885	336.500000
2689.773998	340.500000
2691.165288	307.200000
2692.554755	263.600000
2693.943982	238.300000
2695.332970	229.400000
2696.723300	219.200000
2698.108645	196.700000
2699.496914	196.900000
2700.883363	148.500000
2702.269573	162.800000
2703.655545	144.500000
2705.038117	138.400000
2706.422032	142.100000
2707.805709	135.000000
2709.189148	127.600000
2710.569191	102.500000
2711.950576	112.800000
2713.330145	118.400000
2714.711056	117.700000
2716.090151	95.500000
2717.467433	107.900000
2718.846056	89.700000
2720.222866	107.200000
2721.599440	82.500000
2722.975778	82.100000
2724.350304	100.300000
2725.726171	92.600000
2727.098651	88.900000
2728.474047	95.200000
2729.844483	110.200000
2731.216260	77.300000
2732.587802	90.800000
2733.957536	83.000000
2735.328611	83.400000
2736.697877	70.500000
2738.066911	75.800000
2739.434137	78.800000
2740.801131	67.100000
2742.167892	75.200000
2743.534420	76.900000
2744.899143	80.400000
2746.263635	69.800000
2747.627894	63.700000
2748.991921	73.500000
2750.355717	53.500000
2751.716139	64.700000
2753.079472	76.000000
2754.437862	83.000000
2755.799162	80.100000
2757.157091	75.500000
2758.517930	56.500000
2759.876968	69.700000
2761.232638	63.600000
2762.591216	57.700000
2763.946428	60.000000
2765.301410	58.200000
2766.654595	68.700000
2768.010687	69.500000
2769.363415	56.400000
2770.715914	62.100000
2772.068185	51.600000
2773.421795	65.400000
2774.772043	76.500000
2776.120498	79.700000
2777.471857	65.400000
2778.819857	56.000000
2780.169196	57.300000
2781.516742	54.500000
2782.864061	65.300000
2784.211154	72.800000
2785.556456	75.200000
2786.901532	55.000000
2788.246382	49.900000
2789.591005	79.500000
2790.932277	62.900000
2792.274887	66.500000
2793.617271	59.700000
2794.959431	60.100000
2796.298241	60.200000
2797.639950	62.000000
2798.978312	66.600000
2800.318011	70.300000
2801.655924	78.300000
2802.992053	58.500000
2804.327958	71.000000
2805.665201	84.800000
2807.000660	51.000000
2808.335896	65.000000
2809.669349	50.800000
2811.004140	81.800000
2812.335589	70.700000
2813.669934	73.800000
2814.999381	60.300000
2816.330165	63.200000
2817.660727	66.900000
2818.989510	68.000000
2820.319629	64.900000
2821.647970	71.300000
2822.976090	68.800000
2824.302432	69.300000
2825.630111	62.900000
2826.954457	70.000000
2828.280138	50.700000
2829.604044	65.200000
2830.927731	67.300000
2832.252753	52.800000
2833.574445	54.700000
2834.895919	65.800000
2836.217174	62.100000
2837.538210	62.300000
2838.857474	71.600000
2840.178073	57.100000
2841.496900	47.900000
2842.815509	75.100000
2844.132347	56.300000
2845.448968	63.800000
2846.765372	51.700000
2848.080007	76.600000
2849.395976	59.500000
2850.708625	66.500000
2852.022610	55.600000
2853.336377	72.700000
2854.649929	62.800000
2855.961713	60.900000
2857.271731	55.400000
2858.583084	55.200000
2859.891122	63.900000
2861.200495	76.000000
2862.509652	71.300000
2863.818594	55.400000
2865.125773	65.500000
2866.431188	58.900000
2867.737938	50.800000
2869.042925	69.300000
2870.347699	64.200000
2871.650711	58.400000
2872.956605	47.200000
2874.257643	57.800000
2875.560016	50.400000
2876.860629	51.800000
2878.162576	51.900000
2879.464310	61.700000
2880.762739	52.200000
2882.062503	56.700000
2883.360508	64.700000
2884.658302	55.400000
2885.954340	44.100000
2887.251711	54.700000
2888.547326	49.400000
2889.842730	58.500000
2891.137924	33.700000
2892.429819	52.800000
2893.724591	52.300000
2895.016066	61.500000
2896.308874	59.000000
2897.601472	41.300000
2898.890776	62.300000
2900.181412	38.700000
2901.470297	48.900000
2902.760515	53.300000
2904.047440	63.000000
2905.335699	49.100000
2906.622207	60.700000
2907.908508	50.000000
2909.194600	57.000000
2910.478944	64.100000
2911.766160	55.000000
2913.048548	53.700000
2914.332269	63.800000
2915.614244	46.500000
2916.896012	56.200000
2918.176034	67.500000
2919.458926	68.200000
2920.740073	63.100000
2922.017938	71.600000
2923.298672	55.500000
2924.576125	50.600000
2925.853372	68.100000
2927.128878	58.000000
2928.407251	37.400000
2929.680809	58.800000
2930.957235	53.100000
2932.231920	40.500000
2933.504865	55.500000
2934.779140	62.000000
2936.051676	65.900000
2937.324008	54.100000
2938.593066	65.500000
2939.864990	41.000000
2941.135176	67.800000
2942.405159	60.300000
2943.674938	75.600000
2944.942980	53.100000
2946.209287	61.600000
2947.475391	41.700000
2948.742825	55.200000
2950.008525	39.500000
2951.274022	51.200000
2952.539317	39.100000
2953.801347	58.800000
2955.064708	55.100000
2956.327866	59.900000
2957.589293	57.500000
2958.852049	51.000000
2960.113074	63.300000
2961.372367	59.000000
2962.631461	52.700000
2963.890354	61.500000
2965.149047	54.200000
2966.407540	61.400000
2967.664304	40.700000
2968.920868	63.200000
2970.175705	49.200000
2971.431871	42.100000
2972.684781	48.500000
2973.939021	62.200000
2975.193062	37.700000
2976.445377	51.800000
2977.697494	47.700000
2978.947886	52.000000
2980.201133	55.700000
2981.449603	59.000000
2982.700927	38.900000
2983.949003	53.700000
2985.196881	54.100000
2986.444562	60.600000
2987.692047	56.200000
2988.937810	55.400000
2990.183376	59.500000
2991.430270	51.300000
2992.673920	44.400000
2993.918898	59.600000
2995.160633	49.600000
2996.405218	41.900000
2997.648085	50.600000
2998.887711	55.700000
3000.130187	45.700000
3001.369424	36.700000
3002.609988	61.600000
3003.848835	58.000000
3005.087488	61.500000
3006.324425	42.400000
3007.562689	32.500000
3008.799239	57.000000
3010.035594	56.500000
3011.271756	50.100000
3012.506205	60.100000
3013.740460	52.400000
3014.974522	40.300000
3016.206872	54.000000
3017.437510	37.300000
3018.670994	38.800000
3019.902766	49.200000
3021.132828	50.800000
3022.362698	38.100000
3023.590858	58.200000
3024.820344	37.200000
3026.048122	60.200000
3027.275708	41.400000
3028.504620	66.200000
3029.728790	46.500000
3030.955803	50.400000
3032.179592	41.600000
3033.404708	44.500000
3034.628117	61.100000
3035.851337	63.600000
3037.072851	49.300000
3038.297206	42.900000
3039.516826	58.300000
3040.737771	50.200000
3041.958528	45.600000
3043.177581	29.600000
3044.397960	44.700000
3045.615122	44.000000
3046.833609	42.400000
3048.050394	57.600000
3049.266992	38.300000
3050.483401	50.700000
3051.696598	41.600000
3052.912632	51.400000
3054.125454	54.400000
3055.341113	54.100000
3056.552049	32.900000
3057.764310	53.700000
3058.976385	45.800000
3060.188273	50.900000
3061.398463	49.500000
3062.608467	50.900000
3063.818286	37.400000
3065.026408	32.700000
3066.234344	32.100000
3067.440586	32.800000
3068.648151	42.100000
3069.854023	42.300000
3071.059709	42.500000
3072.265210	48.300000
3073.469018	38.400000
3074.674150	51.600000
3075.877590	41.700000
3077.079337	26.800000
3078.280901	41.600000
3079.482281	40.000000
3080.683477	45.500000
3081.882983	55.800000
3083.082305	38.900000
3084.282951	55.400000
3085.481907	30.900000
3086.677669	39.500000
3087.876260	34.200000
3089.071657	55.600000
3090.268377	38.100000
3091.461905	43.300000
3092.658261	47.000000
3093.852931	46.100000
3095.044410	32.000000
3096.240220	63.800000
3097.431337	47.700000
3098.623776	41.100000
3099.813028	41.600000
3101.005106	35.200000
3102.195499	46.000000
3103.382707	27.900000
3104.571238	54.200000
3105.761091	52.800000
3106.947759	43.300000
3108.134248	37.500000
3109.320557	47.100000
3110.508188	29.200000
3111.692638	44.500000
3112.875407	45.100000
3114.061000	50.200000
3115.244912	50.000000
3116.427146	36.400000
3117.609201	41.800000
3118.791079	42.400000
3119.972778	27.500000
3121.152799	24.900000
3122.331144	52.900000
3123.512310	17.000000
3124.690300	36.400000
3125.868113	44.800000
3127.045749	46.800000
3128.221710	48.900000
3129.397494	45.200000
3130.574600	34.200000
3131.750031	30.100000
3132.923789	42.400000
3134.095875	40.200000
3135.269281	52.500000
3136.442512	56.000000
3137.614070	33.600000
3138.786950	25.100000
3139.956662	34.200000
3141.127695	36.800000
3142.297057	36.100000
3143.464750	45.500000
3144.635258	35.600000
3145.801107	53.400000
3146.971266	42.700000
3148.136767	29.000000
3149.302095	41.100000
3150.467249	39.600000
3151.632229	29.500000
3152.798530	41.700000
3153.960177	40.500000
3155.123145	39.700000
3156.285939	25.000000
3157.448561	52.500000
3158.609518	56.000000
3159.770302	30.300000
3160.930914	48.200000
3162.089863	47.900000
3163.248639	49.800000
3164.407244	44.500000
3165.565677	49.800000
3166.723938	36.500000
3167.880537	30.600000
3169.035475	49.000000
3170.191732	54.800000
3171.346329	49.800000
3172.500754	38.200000
3173.653520	36.100000
3174.806116	38.300000
3175.958541	42.200000
3177.110797	37.700000
3178.262883	33.700000
3179.411822	37.500000
3180.563568	38.100000
3181.713656	32.500000
3182.862088	38.300000
3184.010351	31.900000
3185.158444	42.400000
3186.306369	41.900000
3187.452639	49.000000
3188.598740	34.900000
3189.743186	54.400000
3190.887465	33.500000
3192.031576	53.400000
3193.177005	45.700000
3194.319294	45.500000
3195.461417	30.900000
3196.603372	35.700000
3197.745161	24.200000
3198.886782	50.800000
3200.025267	30.500000
3201.165070	32.900000
3202.306191	32.400000
3203.444177	46.700000
3204.580514	32.300000
3205.716685	49.700000
3206.854174	49.800000
3207.990013	41.300000
3209.127170	32.000000
3210.259714	42.000000
3211.396540	27.400000
3212.528754	15.000000
3213.662286	39.100000
3214.795652	24.000000
3215.925891	45.300000
3217.058928	30.400000
3218.188839	22.700000
3219.320067	30.900000
3220.448169	41.100000
3221.579068	38.300000
3222.708324	21.100000
3223.835935	39.400000
3224.960425	31.800000
3226.089190	36.200000
3227.214833	38.000000
3228.340313	51.700000
3229.464152	42.600000
3230.590785	31.200000
3231.712821	38.700000
3232.836173	30.500000
3233.959363	28.700000
3235.082391	49.700000
3236.203779	40.700000
3237.325006	49.900000
3238.444594	50.700000
3239.564021	41.700000
3240.681810	47.100000
3241.802392	54.400000
3242.919859	37.100000
3244.037167	63.100000
3245.154313	39.900000
3246.269824	62.900000
3247.386650	59.200000
3248.500365	62.200000
3249.616870	48.900000
3250.731741	48.000000
3251.843503	53.600000
3252.955106	38.000000
3254.068023	45.000000
3255.180782	42.700000
3256.290434	35.800000
3257.401400	52.800000
3258.512208	48.500000
3259.621385	41.300000
3260.728930	44.200000
3261.837790	42.300000
3262.946491	31.800000
3264.052090	32.700000
3265.159003	39.800000
3266.264288	43.200000
3267.370886	39.600000
3268.474384	60.500000
3269.579196	26.900000
3270.683851	34.100000
3271.785407	56.700000
3272.886808	39.000000
3273.989522	33.200000
3275.092079	37.700000
3276.191540	30.200000
3277.293785	58.200000
3278.392934	40.000000
3279.490459	36.000000
3280.587828	36.600000
3281.687980	45.300000
3282.785038	25.800000
3283.881941	34.000000
3284.978689	32.000000
3286.070879	47.300000
3287.167317	37.700000
3288.262134	42.200000
3289.356795	29.300000
3290.449835	31.700000
3291.542721	28.900000
3292.633986	29.000000
3293.726564	46.900000
3294.817521	39.200000
3295.906859	37.600000
3296.996044	38.600000
3298.086542	25.100000
3299.173955	24.900000
3300.261216	17.400000
3301.349789	38.500000
3302.438209	35.900000
3303.522082	63.900000
3304.610197	33.800000
3305.695231	37.400000
3306.778648	29.200000
3307.863378	31.100000
3308.946493	34.500000
3310.030919	35.800000
3311.112267	44.900000
3312.194927	43.700000
3313.275973	38.200000
3314.356868	37.500000
3315.436150	24.900000
3316.515281	47.000000
3317.595723	13.600000
3318.673092	35.000000
3319.751771	22.200000
3320.828840	30.600000
3321.905758	15.300000
3322.981065	42.600000
3324.056223	29.000000
3325.132692	31.700000
3326.206091	36.800000
3327.279341	39.400000
3328.353902	36.500000
3329.426853	18.000000
3330.498197	18.500000
3331.570851	40.800000
3332.640438	15.100000
3333.711336	42.500000
3334.780627	27.400000
3335.851229	46.900000
3336.920224	26.000000
3337.987613	23.300000
3339.053397	39.200000
3340.123407	36.700000
3341.190354	32.900000
3342.254239	49.800000
3343.320892	34.200000
3344.385940	34.700000
3345.449385	40.900000
3346.512684	29.100000
3347.575836	37.600000
3348.638842	34.300000
3349.701702	40.200000
3350.762960	35.300000
3351.821161	25.400000
3352.883583	50.900000
3353.942948	21.500000
3355.002168	52.400000
3356.062698	23.300000
3357.118718	41.100000
3358.177503	39.200000
3359.231780	37.500000
3360.288820	18.100000
3361.344263	39.200000
3362.401014	50.300000
3363.456168	38.600000
3364.509724	31.000000
3365.561683	40.700000
3366.616404	43.100000
3367.668076	42.500000
3368.719605	30.700000
3369.772443	32.200000
3370.822233	38.300000
3371.873331	31.900000
3372.921384	26.300000
3373.972197	34.200000
3375.019964	61.300000
3376.067589	45.200000
3377.115071	39.000000
3378.160961	39.300000
3379.208159	36.000000
3380.252315	53.300000
3381.299229	30.400000
3382.344551	37.300000
3383.386833	36.200000
3384.428973	39.500000
3385.472421	18.600000
3386.515729	40.600000
3387.557446	23.600000
3388.599022	21.500000
3389.640458	21.300000
3390.680304	41.400000
3391.718563	16.400000
3392.758129	43.600000
3393.797554	26.600000
3394.835392	25.500000
3395.871643	23.900000
3396.907755	33.800000
3397.945174	32.000000
3398.979560	27.600000
3400.015253	26.600000
3401.050807	31.700000
3402.083330	28.800000
3403.118606	39.000000
3404.150851	32.500000
3405.182958	33.200000
3406.213481	29.900000
3407.245312	18.800000
3408.277003	32.300000
3409.305668	40.500000
3410.334194	28.300000
3411.364028	40.600000
3412.393723	16.300000
3413.420393	33.100000
3414.448370	44.100000
3415.473322	17.800000
3416.501024	24.000000
3417.525703	27.200000
3418.551688	28.500000
3419.576093	43.500000
3420.600362	23.900000
3421.623052	35.200000
3422.645606	20.400000
3423.669466	26.800000
3424.690306	32.200000
3425.711011	27.900000
3426.733021	43.200000
3427.752013	54.100000
3428.770870	33.300000
3429.791032	38.200000
3430.808178	28.100000
