-118.448435	-21.700000
-115.778835	2.200000
-113.112170	1.700000
-110.446257	-7.600000
-107.783276	6.500000
-105.118866	24.800000
-102.457386	12.100000
-99.794476	1.500000
-97.136674	-2.700000
-94.477441	11.500000
-91.818958	-5.600000
-89.163398	-8.100000
-86.506410	2.600000
-83.854519	14.200000
-81.201199	9.700000
-78.550799	11.200000
-75.898969	-8.700000
-73.252230	-9.300000
-70.604061	17.800000
-67.956636	-1.500000
-65.312124	10.100000
-62.666184	2.600000
-60.025325	18.200000
-57.383037	19.000000
-54.743657	2.700000
-52.102849	-3.200000
-49.462781	31.700000
-46.827785	1.600000
-44.191360	10.500000
-41.557839	5.900000
-38.922889	18.900000
-36.293004	21.900000
-33.659527	-15.300000
-31.031112	5.100000
-28.403430	4.300000
-25.774321	17.300000
-23.150268	9.200000
-20.522626	16.100000
-17.900037	19.700000
-15.278180	25.500000
-12.657053	35.800000
-10.036656	128.900000
-7.419147	354.400000
-4.800210	1240.100000
-2.184159	2916.500000
0.431164	6246.400000
3.045760	3443.900000
5.657473	442.700000
8.270615	61.100000
10.878723	24.400000
13.490413	20.300000
16.097072	25.700000
18.705159	15.700000
21.312522	11.100000
23.914860	0.000000
26.520776	13.900000
29.121670	2.000000
31.723992	5.700000
34.321297	9.500000
36.922177	-7.500000
39.518043	-1.400000
42.115336	17.200000
44.711910	3.100000
47.303475	-11.300000
49.896468	12.500000
52.486600	2.200000
55.078160	-16.200000
57.666860	-4.700000
60.256987	12.200000
62.842116	17.500000
65.428671	-8.900000
68.014513	-1.200000
70.597501	8.000000
73.181915	13.900000
75.759201	2.700000
78.340053	3.300000
80.918056	22.900000
83.495349	13.100000
86.074068	14.300000
88.647806	-4.600000
91.222970	3.600000
93.795291	5.600000
96.366904	-3.700000
98.935677	-1.200000
101.505877	8.400000
104.073239	9.000000
106.642026	3.300000
109.207977	1.600000
111.771093	8.300000
114.337765	10.300000
116.895216	27.000000
119.458352	15.800000
122.016529	27.800000
124.578259	28.900000
127.135034	63.300000
129.693234	64.900000
132.246482	123.300000
134.799031	153.800000
137.355131	222.000000
139.906284	302.700000
142.456738	384.600000
145.006496	444.000000
147.553434	511.300000
150.099676	545.200000
152.647344	559.700000
155.194317	560.700000
157.736353	537.600000
160.277696	520.200000
162.818346	526.500000
165.360422	524.300000
167.899687	535.100000
170.436142	541.500000
172.971907	513.600000
175.509097	517.000000
178.045595	522.500000
180.579288	510.400000
183.110178	537.500000
185.640379	510.800000
188.172005	558.800000
190.700830	529.400000
193.226856	546.900000
195.752197	532.700000
198.278962	535.200000
200.802930	510.500000
203.326214	521.600000
205.848813	478.100000
208.368619	499.500000
210.887742	500.100000
213.406182	513.600000
215.926046	530.400000
218.438909	510.400000
220.955303	512.400000
223.471015	554.100000
225.981838	552.700000
228.494085	573.500000
231.003549	567.200000
233.512335	542.200000
236.020443	559.900000
238.529974	555.100000
241.034625	566.200000
243.538601	588.400000
246.044000	574.400000
248.544524	565.100000
251.048571	563.800000
253.545648	554.800000
256.046247	549.500000
258.544075	556.100000
261.041230	557.000000
263.537712	558.600000
266.029331	550.000000
268.524470	567.700000
271.016843	555.600000
273.508545	554.100000
275.997483	529.300000
278.487846	543.500000
280.975447	559.600000
283.460288	570.100000
285.948643	580.800000
288.430059	601.100000
290.914989	587.900000
293.395074	601.300000
295.878671	606.100000
298.357425	632.300000
300.837603	658.600000
303.315028	639.100000
305.791790	641.100000
308.267889	623.000000
310.741239	601.700000
313.213927	601.700000
315.685954	581.100000
318.157320	575.700000
320.625942	614.600000
323.093904	609.100000
325.563289	576.300000
328.027850	551.900000
330.495916	554.100000
332.959162	567.500000
335.421750	570.800000
337.883682	560.000000
340.344957	543.800000
342.803498	544.100000
345.263461	517.100000
347.720691	513.700000
350.177267	494.900000
352.633189	523.400000
355.086382	467.400000
357.540996	472.800000
359.990809	497.900000
362.444119	486.600000
364.892629	471.100000
367.340489	464.600000
369.789770	473.600000
372.234258	451.200000
374.680168	441.000000
377.125429	449.400000
379.567970	417.300000
382.009864	443.500000
384.451111	453.300000
386.889642	434.400000
389.329595	427.600000
391.766834	417.300000
394.201361	440.000000
396.639376	441.900000
399.072614	414.200000
401.507274	423.500000
403.937160	408.700000
406.370532	425.900000
408.799134	423.200000
411.227095	427.700000
413.656476	405.200000
416.081092	416.400000
418.507130	415.800000
420.932527	386.300000
423.357284	406.700000
425.777283	402.500000
428.198703	406.900000
430.617426	383.200000
433.037570	408.400000
435.455019	378.900000
437.873888	376.200000
440.290064	362.300000
442.701493	348.200000
445.116398	343.200000
447.528613	343.100000
449.940194	328.700000
452.351141	321.800000
454.759402	324.700000
457.167030	311.500000
459.574027	341.900000
461.980391	317.200000
464.384073	298.600000
466.787125	332.400000
469.189547	324.600000
471.591340	321.200000
473.990454	326.300000
476.390988	350.200000
478.790893	338.100000
481.186075	339.100000
483.584724	346.900000
485.978653	359.000000
488.371956	394.000000
490.764633	390.500000
493.156685	423.900000
495.550156	423.800000
497.938914	511.800000
500.325006	580.900000
502.712518	739.900000
505.099406	936.500000
507.483631	1274.200000
509.869275	1828.500000
512.252256	2599.500000
514.632577	3504.800000
517.014317	4355.700000
519.393398	4618.800000
521.773898	4216.800000
524.151740	3555.500000
526.526927	2917.300000
528.901496	2388.100000
531.277484	2024.900000
533.650818	1765.700000
536.025570	1577.700000
538.395637	1391.200000
540.765088	1272.700000
543.135957	1176.700000
545.502146	1075.700000
547.869753	1002.700000
550.234714	934.700000
552.599062	874.500000
554.962798	829.500000
557.327951	810.800000
559.688431	760.700000
562.050330	742.300000
564.409589	728.400000
566.766209	702.100000
569.126274	696.000000
571.479649	656.600000
573.836468	638.600000
576.190651	617.100000
578.544227	588.900000
580.897194	586.200000
583.247530	567.600000
585.599282	549.900000
587.944358	538.800000
590.294898	542.400000
592.638765	516.600000
594.988092	494.700000
597.332772	490.100000
599.674826	484.700000
602.018298	497.200000
604.359147	483.300000
606.699394	465.600000
609.037020	507.000000
611.378081	502.000000
613.714504	537.100000
616.052345	570.600000
618.387567	574.300000
620.720174	553.500000
623.054197	540.700000
625.385607	548.100000
627.716418	501.000000
630.046631	483.300000
632.376246	461.900000
634.701239	464.700000
637.031673	470.500000
639.357485	489.400000
641.680691	464.700000
644.005312	456.100000
646.327329	411.800000
648.648751	457.100000
650.967570	447.000000
653.287805	448.700000
655.607447	451.900000
657.924488	429.100000
660.240937	430.900000
662.554788	450.100000
664.870055	415.000000
667.182725	419.400000
669.496810	429.200000
671.806295	414.400000
674.117196	433.800000
676.425504	442.400000
678.733224	430.200000
681.042359	424.600000
683.346901	430.900000
685.650856	421.100000
687.954226	387.500000
690.259010	420.100000
692.559208	409.500000
694.860820	410.200000
697.161848	384.100000
699.458293	372.600000
701.756154	365.800000
704.053431	352.300000
706.350125	376.900000
708.642243	371.100000
710.937772	368.300000
713.228728	371.400000
715.521098	341.600000
717.810892	379.900000
720.100107	337.800000
722.388741	359.600000
724.674804	366.700000
726.962280	366.400000
729.247186	357.900000
731.531513	379.800000
733.813272	353.400000
736.096445	368.100000
738.379041	340.000000
740.657082	356.400000
742.936536	365.100000
745.215415	360.900000
747.493718	344.100000
749.767472	331.900000
752.042640	329.300000
754.317234	340.200000
756.589268	345.000000
758.862716	338.100000
761.133606	319.300000
763.401940	335.700000
765.671687	340.600000
767.938880	345.400000
770.205502	342.500000
772.471555	335.600000
774.735055	327.700000
776.999969	347.200000
779.264313	348.400000
781.524128	344.500000
783.785356	344.300000
786.046015	336.600000
788.304129	332.500000
790.559698	326.800000
792.818658	324.900000
795.071119	323.300000
797.328947	323.000000
799.582255	330.200000
801.833024	344.100000
804.085205	333.900000
806.334848	323.800000
808.585902	348.200000
810.832445	346.600000
813.080400	333.700000
815.325821	336.600000
817.572653	353.900000
819.818924	322.500000
822.060691	334.200000
824.305840	325.400000
826.544517	328.900000
828.786577	328.300000
831.024138	326.400000
833.263110	320.000000
835.499556	299.200000
837.737413	315.900000
839.972745	300.500000
842.205554	309.600000
844.439774	310.200000
846.671472	290.500000
848.902615	327.900000
851.133203	312.900000
853.363236	323.100000
855.592716	291.500000
857.817714	292.900000
860.046087	297.800000
862.269981	304.500000
864.495285	299.500000
866.716114	290.900000
868.940315	299.500000
871.160043	302.800000
873.381182	281.000000
875.601770	306.400000
877.819848	293.000000
880.039337	280.200000
882.254359	305.800000
884.468833	296.100000
886.682760	315.200000
888.896139	309.900000
891.108971	297.900000
893.321257	315.500000
895.531040	306.500000
897.740278	310.900000
899.948971	298.600000
902.155165	306.600000
904.362768	320.700000
906.567874	302.200000
908.772436	292.800000
910.974502	304.000000
913.177978	297.100000
915.378960	314.900000
917.579401	314.500000
919.781249	338.100000
921.976707	351.800000
924.175524	381.100000
926.369902	378.900000
928.567638	411.200000
930.760938	441.300000
932.955647	488.500000
935.147870	534.500000
937.339555	609.700000
939.530702	627.900000
941.719366	662.700000
943.907493	643.300000
946.093140	637.200000
948.282139	663.600000
950.466715	674.100000
952.650756	640.700000
954.838147	642.000000
957.017234	639.100000
959.199672	672.100000
961.381576	644.400000
963.561006	635.700000
965.737963	669.600000
967.916327	684.000000
970.096099	667.600000
972.269522	686.800000
974.446291	662.100000
976.618653	678.400000
978.792423	662.500000
980.961789	650.400000
983.134500	623.400000
985.304744	618.400000
987.474460	582.900000
989.643647	532.000000
991.808437	489.900000
993.976568	459.700000
996.140305	398.200000
998.305448	412.400000
1000.468133	393.000000
1002.630291	367.000000
1004.789993	368.300000
1006.949171	381.200000
1009.109755	357.700000
1011.267884	351.600000
1013.425489	341.400000
1015.582571	318.400000
1017.739130	333.600000
1019.891309	343.600000
1022.044894	313.800000
1024.197958	293.800000
1026.348574	301.200000
1028.500595	297.300000
1030.648243	289.100000
1032.799223	283.700000
1034.945832	299.800000
1037.091923	284.000000
1039.237494	271.600000
1041.384471	273.000000
1043.525159	277.100000
1045.669177	261.300000
1047.810754	268.200000
1049.951815	280.400000
1052.094280	266.600000
1054.230466	264.200000
1056.369978	266.000000
1058.505134	269.100000
1060.643615	276.100000
1062.777742	275.100000
1064.911356	263.100000
1067.046375	268.600000
1069.177044	275.300000
1071.309118	285.000000
1073.438763	276.300000
1075.567896	274.900000
1077.696517	277.600000
1079.824627	257.300000
1081.950311	260.600000
1084.075485	272.500000
1086.202063	271.800000
1088.324304	254.800000
1090.447948	240.800000
1092.567259	254.100000
1094.691798	244.100000
1096.810092	260.500000
1098.929791	246.400000
1101.047071	265.800000
1103.163845	240.700000
1105.280112	260.300000
1107.393964	255.000000
1109.509219	258.900000
1111.620152	251.300000
1113.734396	257.500000
1115.844320	253.700000
1117.955648	248.900000
1120.066471	247.600000
1122.172979	242.800000
1124.282795	234.300000
1126.388297	254.000000
1128.495202	257.400000
1130.595892	267.700000
1132.701794	253.400000
1134.803387	242.800000
1136.906383	240.200000
1139.008878	239.300000
1141.105166	221.600000
1143.206662	212.700000
1145.303855	241.200000
1147.400549	245.700000
1149.496745	224.100000
1151.592444	228.100000
1153.687645	228.500000
1155.780449	237.400000
1157.874655	235.700000
1159.962670	228.700000
1162.055883	244.500000
1164.142908	248.000000
1166.233232	244.200000
1168.319269	240.700000
1170.408603	241.100000
1172.491756	249.000000
1174.576311	232.100000
1176.662268	262.200000
1178.743943	253.300000
1180.827020	248.400000
1182.907711	236.600000
1184.987910	256.300000
1187.067618	256.700000
1189.146835	257.700000
1191.223670	263.000000
1193.298124	270.100000
1195.375870	251.100000
1197.449345	259.700000
1199.524221	233.900000
1201.594830	245.500000
1203.666841	228.300000
1205.736475	264.200000
1207.807510	242.800000
1209.878057	259.300000
1211.944343	249.000000
1214.012030	231.800000
1216.077345	220.600000
1218.144060	209.200000
1220.206519	235.900000
1222.272263	232.500000
1224.333754	213.000000
1226.396644	224.900000
1228.457167	214.100000
1230.517206	263.000000
1232.576763	215.200000
1234.633954	246.100000
1236.690664	229.200000
1238.745011	227.200000
1240.802638	231.700000
1242.857903	248.900000
1244.908927	267.900000
1246.961351	233.000000
1249.013295	231.300000
1251.062881	242.700000
1253.111988	223.600000
1255.160617	228.400000
1257.208767	252.300000
1259.256439	265.000000
1261.299880	240.800000
1263.346596	264.000000
1265.390959	262.200000
1267.434846	239.900000
1269.476382	265.300000
1271.515567	246.800000
1273.558026	253.500000
1275.596262	250.200000
1277.635897	245.400000
1279.675057	232.200000
1281.709998	240.700000
1283.746339	235.800000
1285.780334	264.100000
1287.815728	260.900000
1289.846908	237.400000
1291.879487	248.700000
1293.911593	242.300000
1295.941359	250.200000
1297.972523	252.500000
1299.999479	268.900000
1302.027833	245.300000
1304.051983	241.000000
1306.079397	235.900000
1308.102609	235.500000
1310.127219	254.300000
1312.149495	249.500000
1314.173168	260.000000
1316.194508	245.400000
1318.215380	242.500000
1320.235786	248.900000
1322.251997	236.300000
1324.269606	243.100000
1326.284888	244.000000
1328.303427	244.800000
1330.317778	231.200000
1332.329803	251.400000
1334.345085	247.900000
1336.356182	242.800000
1338.368676	244.300000
1340.376987	246.400000
1342.388554	232.500000
1344.394081	219.200000
1346.402864	217.200000
1348.407469	236.900000
1350.415328	234.900000
1352.422725	212.400000
1354.424091	205.000000
1356.426854	230.000000
1358.429156	205.600000
1360.430999	240.300000
1362.432382	225.900000
1364.431452	225.700000
1366.430063	247.800000
1368.428216	211.600000
1370.425911	227.000000
1372.419442	249.300000
1374.414370	230.800000
1376.408841	231.000000
1378.402855	219.200000
1380.394561	230.400000
1382.385813	218.200000
1384.374759	233.500000
1386.365100	231.000000
1388.354986	223.300000
1390.342569	222.100000
1392.329697	220.400000
1394.314525	210.000000
1396.300746	223.600000
1398.284668	205.600000
1400.268137	210.100000
1402.251154	217.100000
1404.231872	229.700000
1406.213986	215.200000
1408.193802	208.500000
1410.173168	207.200000
1412.148394	238.900000
1414.126860	218.000000
1416.103031	227.500000
1418.078754	216.900000
1420.054027	205.800000
1422.027009	215.400000
1423.999543	207.400000
1425.971630	220.500000
1427.943268	216.700000
1429.910778	217.900000
1431.883363	208.900000
1433.848141	208.300000
1435.817991	207.000000
1437.783718	208.200000
1439.750837	202.700000
1441.715673	182.700000
1443.676390	226.100000
1445.642174	215.200000
1447.602003	218.900000
1449.563225	216.200000
1451.525840	222.000000
1453.484340	230.200000
1455.442398	231.500000
1457.400013	224.800000
1459.357187	232.900000
1461.312085	247.900000
1463.268375	251.400000
1465.222391	230.800000
1467.175967	232.700000
1469.127270	226.200000
1471.079965	235.900000
1473.030389	242.200000
1474.980373	236.400000
1476.929919	228.100000
1478.877196	217.500000
1480.822206	229.600000
1482.768607	192.400000
1484.714572	224.200000
1486.660098	197.900000
1488.603360	207.400000
1490.546185	211.600000
1492.486747	211.200000
1494.428700	215.200000
1496.368392	217.400000
1498.307648	214.500000
1500.246469	198.300000
1502.183031	210.700000
1504.120984	225.900000
1506.056679	222.200000
1507.991939	200.800000
1509.924944	196.000000
1511.857516	209.900000
1513.789656	221.500000
1515.721364	228.200000
1517.650818	234.200000
1519.581663	231.900000
1521.512077	220.100000
1523.438417	228.700000
1525.366149	231.500000
1527.291630	229.000000
1529.216682	237.100000
1531.141305	230.500000
1533.065499	238.000000
1534.987446	232.200000
1536.910782	235.000000
1538.831873	223.100000
1540.750719	225.700000
1542.670955	235.600000
1544.588947	246.700000
1546.506513	234.300000
1548.421837	233.300000
1550.338551	262.400000
1552.251210	247.300000
1554.167073	254.200000
1556.080696	249.900000
1557.992082	250.900000
1559.904856	252.700000
1561.813581	247.300000
1563.723696	271.900000
1565.633387	263.000000
1567.542654	269.600000
1569.449688	298.200000
1571.354489	294.200000
1573.260679	338.100000
1575.164637	356.400000
1577.068175	416.400000
1578.971291	455.500000
1580.872179	493.000000
1582.774454	597.900000
1584.674502	636.100000
1586.575937	669.600000
1588.473339	622.900000
1590.370322	574.100000
1592.266887	483.600000
1594.164840	408.800000
1596.056958	355.400000
1597.952269	300.900000
1599.847163	270.500000
1601.739835	263.900000
1603.632091	253.700000
1605.522126	234.200000
1607.411747	260.000000
1609.300951	264.700000
1611.189741	260.600000
1613.076314	250.600000
1614.964273	234.400000
1616.848216	255.600000
1618.733547	242.700000
1620.618463	226.200000
1622.501166	227.300000
1624.385256	232.300000
1626.265335	235.500000
1628.146800	220.200000
1630.026055	218.700000
1631.906696	211.600000
1633.781533	228.300000
1635.661352	224.500000
1637.537165	202.800000
1639.412568	199.100000
1641.289358	210.800000
1643.160350	209.100000
1645.034524	184.700000
1646.904700	195.700000
1648.778056	207.600000
1650.649209	201.600000
1652.518160	217.500000
1654.388497	192.800000
1656.254840	205.000000
1658.122569	191.800000
1659.988100	189.200000
1661.855015	186.200000
1663.717942	192.400000
1665.582254	187.800000
1667.444370	198.200000
1669.306082	187.700000
1671.169178	182.700000
1673.030080	188.700000
1674.888788	180.000000
1676.747093	189.800000
1678.606783	210.100000
1680.460706	190.200000
1682.317801	170.600000
1684.174494	192.300000
1686.027211	185.700000
1687.883098	184.900000
1689.735012	195.400000
1691.586525	186.500000
1693.437637	165.700000
1695.288349	167.800000
1697.138660	157.700000
1698.986787	167.900000
1700.836297	171.300000
1702.680059	170.600000
1704.528770	177.100000
1706.371736	188.800000
1708.217867	176.500000
1710.060037	175.700000
1711.905371	164.200000
1713.744965	180.900000
1715.585943	173.000000
1717.428304	164.100000
1719.266709	171.500000
1721.106497	173.200000
1722.944110	167.900000
1724.781327	165.200000
1726.616371	173.400000
1728.452798	179.700000
1730.287053	162.800000
1732.120913	185.400000
1733.954380	168.100000
1735.783900	184.800000
1737.616579	176.700000
1739.445314	180.400000
1741.277207	169.600000
1743.105157	165.700000
1744.932715	147.700000
1746.759881	179.300000
1748.586656	149.800000
1750.413040	168.200000
1752.235487	156.100000
1754.061088	142.400000
1755.882755	150.000000
1757.705804	167.500000
1759.526692	171.900000
1761.347190	158.600000
1763.169070	169.500000
1764.985250	172.300000
1766.804582	175.500000
1768.619987	162.600000
1770.438542	174.700000
1772.253172	168.200000
1774.067416	174.500000
1775.881272	143.000000
1777.694742	153.800000
1779.506059	167.300000
1781.318757	168.900000
1783.131068	160.600000
1784.939462	152.200000
1786.749237	160.100000
1788.555096	165.400000
1790.364101	160.700000
1792.169193	165.900000
1793.975666	160.000000
1795.781755	164.100000
1797.583934	168.200000
1799.389256	155.800000
1801.190670	163.000000
1802.993464	166.300000
1804.792352	161.600000
1806.592621	153.200000
1808.392508	145.500000
1810.190254	166.300000
1811.987618	163.300000
1813.784603	143.200000
1815.581207	165.700000
1817.375672	163.100000
1819.171516	156.200000
1820.961706	173.600000
1822.756792	151.800000
1824.546225	167.800000
1826.338795	153.600000
1828.129230	149.300000
1829.917531	159.100000
1831.708967	157.700000
1833.494757	161.600000
1835.281927	178.500000
1837.066965	171.900000
1838.855137	166.100000
1840.639423	152.700000
1842.421580	175.000000
1844.205115	180.000000
1845.986522	180.900000
1847.769308	176.000000
1849.548214	163.200000
1851.328498	159.300000
1853.106656	169.600000
1854.886193	182.000000
1856.663605	182.700000
1858.438893	168.800000
1860.215560	176.000000
1861.990103	187.500000
1863.766025	175.900000
1865.536326	176.000000
1867.309755	164.800000
1869.081064	174.100000
1870.852003	179.600000
1872.624318	171.900000
1874.391020	167.300000
1876.160848	180.600000
1877.926812	160.200000
1879.695900	194.800000
1881.461126	188.400000
1883.225983	181.900000
1884.992218	187.500000
1886.754594	170.400000
1888.516603	183.300000
1890.278244	176.600000
1892.039519	160.700000
1893.800426	190.200000
1895.560967	167.700000
1897.319398	167.200000
1899.077464	182.300000
1900.833421	193.600000
1902.590756	161.200000
1904.347724	166.200000
1906.102587	158.000000
1907.855344	169.600000
1909.607738	157.500000
1911.361507	175.100000
1913.113173	154.300000
1914.862737	155.600000
1916.613677	152.000000
1918.364253	151.500000
1920.110990	146.900000
1921.859104	176.500000
1923.605118	169.600000
1925.352508	161.600000
1927.097799	148.500000
1928.840993	160.100000
1930.585563	169.800000
1932.328036	162.500000
1934.070149	161.600000
1935.811902	143.300000
1937.553296	145.400000
1939.292596	134.700000
1941.031536	165.300000
1942.770119	162.700000
1944.506609	153.900000
1946.242742	167.750000
1947.980249	181.600000
1949.713934	166.700000
1951.448994	156.200000
1953.181966	161.100000
1954.914581	157.600000
1956.646839	150.600000
1958.378741	151.600000
1960.108557	172.900000
1961.836289	143.600000
1963.565394	152.500000
1965.294145	149.100000
1967.020812	166.700000
1968.747125	162.700000
1970.474811	156.600000
1972.196961	165.200000
1973.922212	159.300000
1975.643657	146.400000
1977.368201	156.700000
1979.090666	155.100000
1980.809327	150.900000
1982.531087	163.300000
1984.249045	146.100000
1985.968376	158.000000
1987.683908	147.800000
1989.404261	146.500000
1991.120814	138.900000
1992.833571	155.800000
1994.549425	147.400000
1996.263205	146.600000
1997.976636	156.300000
1999.687996	137.500000
2001.400729	134.900000
2003.109670	150.500000
2004.821705	141.500000
2006.528230	146.700000
2008.237848	146.300000
2009.945398	151.600000
2011.652601	150.000000
2013.357738	147.900000
2015.062528	146.900000
2016.768690	115.100000
2018.471070	146.300000
2020.174822	147.300000
2021.876510	150.600000
2023.577854	128.800000
2025.278852	149.900000
2026.977790	145.500000
2028.678098	135.100000
2030.374632	145.700000
2032.072537	136.300000
2033.768383	138.600000
2035.467315	125.900000
2037.160761	145.800000
2038.855579	126.100000
2040.550053	157.500000
2042.240759	122.200000
2043.934549	141.900000
2045.624572	122.400000
2047.315966	132.400000
2049.005307	134.500000
2050.696018	138.700000
2052.382966	156.300000
2054.069575	151.400000
2055.757554	150.800000
2057.441773	147.900000
2059.127362	173.900000
2060.812612	138.400000
2062.495814	144.800000
2064.180385	127.200000
2065.859494	125.500000
2067.543388	149.300000
2069.221822	138.400000
2070.903332	149.200000
2072.581092	139.400000
2074.258514	132.000000
2075.937306	155.300000
2077.614056	126.700000
2079.288764	162.600000
2080.964841	144.900000
2082.638878	139.300000
2084.312579	143.100000
2085.985945	137.800000
2087.657273	120.000000
2089.328266	138.700000
2090.998925	124.000000
2092.669249	148.500000
2094.339240	135.100000
2096.007195	155.700000
2097.674817	140.300000
2099.340404	138.500000
2101.007361	150.400000
2102.672283	144.100000
2104.336874	137.000000
2105.999433	153.200000
2107.663360	147.800000
2109.325257	133.500000
2110.986822	137.700000
2112.648056	153.300000
2114.307262	141.600000
2115.966137	157.400000
2117.624683	152.300000
2119.282899	137.000000
2120.937391	135.800000
2122.594948	135.500000
2124.252176	132.400000
2125.905682	154.400000
2127.560556	136.900000
2129.211712	141.100000
2130.865929	138.700000
2132.516430	131.300000
2134.168297	118.700000
2135.814756	121.600000
2137.465970	150.600000
2139.113470	142.000000
2140.762337	130.400000
2142.409186	149.000000
2144.055708	135.400000
2145.701905	130.100000
2147.344394	133.800000
2148.989941	144.100000
2150.631781	136.400000
2152.276678	131.700000
2153.917870	123.500000
2155.558738	138.800000
2157.199282	117.100000
2158.837814	150.800000
2160.477712	111.100000
2162.113910	133.400000
2163.751475	132.700000
2165.388716	159.300000
2167.023948	126.200000
2168.658859	139.800000
2170.293448	116.700000
2171.927715	137.300000
2173.558289	147.400000
2175.191915	133.900000
2176.821849	132.500000
2178.453148	152.000000
2180.082442	135.100000
2181.711417	135.500000
2183.340073	151.300000
2184.968409	133.500000
2186.594742	142.200000
2188.220757	149.300000
2189.844771	136.900000
2191.470149	137.400000
2193.093528	140.300000
2194.718270	138.100000
2196.339332	115.200000
2197.960077	117.700000
2199.582187	137.600000
2201.202299	127.800000
2202.820414	132.700000
2204.438214	132.300000
2206.055699	123.900000
2207.672868	136.500000
2209.289722	146.100000
2210.906261	144.400000
2212.520806	131.100000
2214.133359	117.000000
2215.747276	159.500000
2217.359202	135.600000
2218.972491	142.000000
2220.583790	154.600000
2222.193099	136.200000
2223.803772	134.000000
2225.412456	126.500000
2227.020828	138.000000
2228.627212	127.500000
2230.234960	143.800000
2231.840721	138.300000
2233.446171	123.200000
2235.049636	125.600000
2236.654464	130.000000
2238.257309	120.500000
2239.858170	133.500000
2241.460393	122.600000
2243.060635	123.600000
2244.662239	133.300000
2246.260191	125.300000
2247.859505	124.700000
2249.456839	135.700000
2251.053864	137.000000
2252.652252	129.500000
2254.246991	139.100000
2255.839753	144.900000
2257.433878	133.300000
2259.029364	131.800000
2260.621206	118.800000
2262.212741	120.000000
2263.805637	138.800000
2265.393224	138.100000
2266.985508	138.000000
2268.572484	152.900000
2270.162489	139.300000
2271.747189	156.300000
2273.336583	136.000000
2274.920674	133.900000
2276.506127	130.100000
2278.089610	145.100000
2279.676120	141.900000
2281.258996	140.100000
2282.841568	125.600000
2284.423837	127.400000
2286.002477	108.800000
2287.584140	132.000000
2289.162175	136.100000
2290.743233	138.900000
2292.320665	135.800000
2293.896132	132.700000
2295.474622	114.200000
2297.049488	139.300000
2298.624053	114.300000
2300.198318	112.700000
2301.772282	120.900000
2303.345946	117.500000
2304.919309	113.500000
2306.489054	122.700000
2308.058500	116.200000
2309.630965	123.200000
2311.198154	118.900000
2312.768362	116.900000
2314.334955	118.700000
2315.902908	111.400000
2317.468905	120.000000
2319.034605	89.700000
2320.600008	118.600000
2322.163456	114.400000
2323.728264	127.400000
2325.289464	125.500000
2326.853678	138.600000
2328.412631	131.400000
2329.974597	134.000000
2331.534613	115.400000
2333.094333	97.900000
2334.652104	123.900000
2336.209580	134.700000
2337.766762	125.400000
2339.321997	128.100000
2340.876937	119.800000
2342.431584	107.600000
2343.985937	129.900000
2345.539996	123.500000
2347.093761	123.100000
2348.645583	122.800000
2350.195461	124.300000
2351.748347	108.200000
2353.295991	133.200000
2354.846642	118.700000
2356.393702	123.400000
2357.942121	134.200000
2359.490247	128.100000
2361.034785	121.300000
2362.580681	134.200000
2364.124639	125.000000
2365.669954	121.000000
2367.211684	122.400000
2368.754771	120.900000
2370.295923	135.400000
2371.836785	146.100000
2373.377358	95.900000
2374.917641	114.700000
2376.457636	108.700000
2377.994053	123.800000
2379.533471	100.200000
2381.069312	115.300000
2382.606509	124.200000
2384.140131	123.600000
2385.676754	105.000000
2387.211445	113.000000
2388.744207	110.900000
2390.276682	119.200000
2391.807230	121.900000
2393.340775	118.200000
2394.869109	128.600000
2396.398799	140.600000
2397.928204	126.200000
2399.457323	115.900000
2400.986158	121.500000
2402.509787	133.100000
2404.038053	130.700000
2405.561115	137.700000
2407.088811	132.700000
2408.609668	122.300000
2410.135158	109.900000
2411.657087	119.700000
2413.180372	107.200000
2414.701736	133.000000
2416.221180	97.100000
2417.741979	125.600000
2419.260859	112.000000
2420.779457	119.800000
2422.296138	127.600000
2423.814173	129.800000
2425.331927	109.400000
2426.846130	141.100000
2428.360052	133.100000
2429.873694	143.100000
2431.388691	117.900000
2432.900139	147.300000
2434.412942	119.800000
2435.923832	136.100000
2437.434442	118.900000
2438.943141	126.800000
2440.454827	128.900000
2441.962968	134.800000
2443.470832	111.300000
2444.978418	117.400000
2446.482463	130.000000
2447.989494	128.900000
2449.494616	137.900000
2450.999461	127.600000
2452.502399	157.700000
2454.005060	150.700000
2455.507445	150.500000
2457.007925	155.600000
2458.509758	158.900000
2460.009687	132.300000
2461.509340	125.000000
2463.008717	135.300000
2464.506192	137.900000
2466.001765	134.600000
2467.500319	138.200000
2468.995343	153.600000
2470.491721	134.300000
2471.984571	131.000000
2473.478775	104.900000
2474.972705	120.500000
2476.463112	107.200000
2477.956495	135.100000
2479.447981	126.100000
2480.937570	134.200000
2482.426887	136.200000
2483.914309	126.000000
2485.404706	115.300000
2486.891584	139.200000
2488.379814	125.600000
2489.864528	126.300000
2491.348971	130.100000
2492.834766	118.600000
2494.318668	107.100000
2495.803922	137.600000
2497.284042	114.300000
2498.767134	105.600000
2500.248336	146.000000
2501.729269	129.700000
2503.208313	107.400000
2504.687088	126.200000
2506.165595	120.200000
2507.643834	120.600000
2509.121804	97.700000
2510.596270	116.600000
2512.073704	106.900000
2513.547635	118.200000
2515.022916	108.200000
2516.497931	105.700000
2517.969444	110.000000
2519.442307	124.400000
2520.913288	106.500000
2522.385619	120.000000
2523.852837	101.400000
2525.323020	114.200000
2526.791323	124.700000
2528.259361	141.300000
2529.727134	122.200000
2531.194642	117.100000
2532.661885	119.300000
2534.125636	104.000000
2535.590737	110.300000
2537.053961	90.000000
2538.518535	90.000000
2539.979619	115.600000
2541.442053	94.800000
2542.904224	124.800000
2544.362909	94.200000
2545.826166	109.500000
2547.284326	96.500000
2548.743835	107.000000
2550.198251	116.700000
2551.657236	117.400000
2553.114350	112.900000
2554.569593	103.000000
2556.024575	94.900000
2557.477687	106.300000
2558.932148	91.800000
2560.384740	107.700000
2561.837072	107.100000
2563.287536	115.200000
2564.740956	110.700000
2566.189294	103.600000
2567.640588	118.900000
2569.090015	109.500000
2570.535970	115.500000
2571.984881	110.300000
2573.430320	115.900000
2574.877108	114.800000
2576.322032	130.900000
2577.766699	111.900000
2579.212713	124.200000
2580.655260	129.200000
2582.099155	111.100000
2583.539585	128.300000
2584.981362	108.800000
2586.421280	113.700000
2587.862545	124.000000
2589.300349	112.400000
2590.741102	111.900000
2592.176792	103.200000
2593.615432	121.700000
2595.052215	121.000000
2596.487141	107.900000
2597.925016	117.300000
2599.357832	102.000000
2600.791996	119.600000
2602.224306	108.000000
2603.657962	131.400000
2605.089765	95.700000
2606.521315	123.300000
2607.952611	134.700000
2609.382055	115.200000
2610.811248	100.900000
2612.238589	121.900000
2613.667277	118.300000
2615.095712	118.900000
2616.520700	108.900000
2617.947035	130.600000
2619.371521	116.600000
2620.797353	120.200000
2622.219741	118.700000
2623.643475	114.800000
2625.065362	128.200000
2626.487000	102.100000
2627.906792	112.400000
2629.327930	143.000000
2630.748818	133.900000
2632.166268	133.500000
2633.586657	146.400000
2635.003609	150.800000
2636.420313	140.600000
2637.836768	156.300000
2639.252975	157.400000
2640.668933	157.700000
2642.083051	163.700000
2643.496922	168.000000
2644.908953	157.600000
2646.322329	186.000000
2647.732275	162.900000
2649.145156	194.900000
2650.554610	193.200000
2651.963817	224.300000
2653.371187	218.200000
2654.781493	232.000000
2656.189962	266.900000
2657.596596	278.000000
2659.002985	277.300000
2660.407540	312.200000
2661.813439	345.300000
2663.217505	380.300000
2664.621326	390.100000
2666.024904	429.100000
2667.426649	457.400000
2668.829738	487.700000
2670.229409	513.300000
2671.630424	541.500000
2673.028023	548.900000
2674.428552	562.000000
2675.825666	593.200000
2677.224123	616.100000
2678.620752	622.200000
2680.017139	614.500000
2681.413285	574.900000
2682.807604	566.200000
2684.203266	563.400000
2685.595518	550.600000
2686.989114	530.700000
2688.380885	470.200000
2689.773998	467.800000
2691.165288	420.700000
2692.554755	382.600000
2693.943982	376.800000
2695.332970	317.000000
2696.723300	300.200000
2698.108645	257.800000
2699.496914	252.400000
2700.883363	231.500000
2702.269573	222.900000
2703.655545	224.900000
2705.038117	199.700000
2706.422032	196.200000
2707.805709	174.400000
2709.189148	171.300000
2710.569191	175.500000
2711.950576	158.700000
2713.330145	157.200000
2714.711056	151.800000
2716.090151	162.300000
2717.467433	127.400000
2718.846056	143.000000
2720.222866	138.700000
2721.599440	137.000000
2722.975778	124.500000
2724.350304	110.200000
2725.726171	141.400000
2727.098651	115.000000
2728.474047	127.100000
2729.844483	129.400000
2731.216260	102.000000
2732.587802	109.300000
2733.957536	113.600000
2735.328611	118.000000
2736.697877	122.200000
2738.066911	130.100000
2739.434137	101.900000
2740.801131	98.100000
2742.167892	109.800000
2743.534420	101.900000
2744.899143	96.400000
2746.263635	114.000000
2747.627894	116.500000
2748.991921	121.600000
2750.355717	103.700000
2751.716139	106.400000
2753.079472	78.400000
2754.437862	122.700000
2755.799162	106.300000
2757.157091	105.300000
2758.517930	116.600000
2759.876968	86.600000
2761.232638	112.700000
2762.591216	93.000000
2763.946428	104.100000
2765.301410	86.200000
2766.654595	102.800000
2768.010687	114.500000
2769.363415	93.400000
2770.715914	104.300000
2772.068185	93.800000
2773.421795	107.400000
2774.772043	104.000000
2776.120498	102.600000
2777.471857	112.300000
2778.819857	106.800000
2780.169196	95.600000
2781.516742	94.300000
2782.864061	95.700000
2784.211154	116.000000
2785.556456	93.200000
2786.901532	95.700000
2788.246382	99.400000
2789.591005	108.700000
2790.932277	99.900000
2792.274887	107.600000
2793.617271	76.600000
2794.959431	117.300000
2796.298241	101.900000
2797.639950	107.000000
2798.978312	107.700000
2800.318011	90.300000
2801.655924	102.800000
2802.992053	98.000000
2804.327958	96.400000
2805.665201	113.400000
2807.000660	104.600000
2808.335896	100.000000
2809.669349	98.500000
2811.004140	103.400000
2812.335589	94.400000
2813.669934	109.600000
2814.999381	94.000000
2816.330165	109.400000
2817.660727	110.900000
2818.989510	95.900000
2820.319629	83.300000
2821.647970	89.000000
2822.976090	86.400000
2824.302432	98.400000
2825.630111	92.600000
2826.954457	75.800000
2828.280138	77.500000
2829.604044	96.600000
2830.927731	87.300000
2832.252753	88.900000
2833.574445	106.400000
2834.895919	75.600000
2836.217174	80.100000
2837.538210	88.200000
2838.857474	108.600000
2840.178073	93.200000
2841.496900	82.100000
2842.815509	81.500000
2844.132347	75.100000
2845.448968	99.800000
2846.765372	81.400000
2848.080007	87.700000
2849.395976	90.800000
2850.708625	69.300000
2852.022610	90.000000
2853.336377	75.700000
2854.649929	102.300000
2855.961713	75.400000
2857.271731	69.000000
2858.583084	64.600000
2859.891122	80.600000
2861.200495	89.000000
2862.509652	78.700000
2863.818594	99.900000
2865.125773	87.900000
2866.431188	88.600000
2867.737938	103.900000
2869.042925	97.900000
2870.347699	92.400000
2871.650711	96.100000
2872.956605	101.200000
2874.257643	96.900000
2875.560016	81.800000
2876.860629	87.200000
2878.162576	80.300000
2879.464310	81.500000
2880.762739	98.400000
2882.062503	93.500000
2883.360508	76.100000
2884.658302	87.200000
2885.954340	73.000000
2887.251711	78.900000
2888.547326	80.900000
2889.842730	92.200000
2891.137924	93.400000
2892.429819	68.500000
2893.724591	89.800000
2895.016066	77.300000
2896.308874	55.900000
2897.601472	84.200000
2898.890776	75.900000
2900.181412	74.200000
2901.470297	76.000000
2902.760515	89.900000
2904.047440	86.200000
2905.335699	106.800000
2906.622207	87.100000
2907.908508	90.900000
2909.194600	69.900000
2910.478944	73.200000
2911.766160	86.300000
2913.048548	102.600000
2914.332269	92.600000
2915.614244	102.800000
2916.896012	83.400000
2918.176034	87.200000
2919.458926	84.800000
2920.740073	66.000000
2922.017938	84.500000
2923.298672	104.700000
2924.576125	75.900000
2925.853372	76.800000
2927.128878	93.500000
2928.407251	89.500000
2929.680809	96.300000
2930.957235	71.800000
2932.231920	76.100000
2933.504865	85.400000
2934.779140	69.900000
2936.051676	62.100000
2937.324008	70.000000
2938.593066	78.300000
2939.864990	82.300000
2941.135176	69.900000
2942.405159	87.100000
2943.674938	88.500000
2944.942980	60.500000
2946.209287	95.400000
2947.475391	90.300000
2948.742825	84.200000
2950.008525	71.800000
2951.274022	81.300000
2952.539317	80.000000
2953.801347	72.700000
2955.064708	75.700000
2956.327866	80.800000
2957.589293	72.600000
2958.852049	98.100000
2960.113074	78.900000
2961.372367	68.900000
2962.631461	75.400000
2963.890354	79.400000
2965.149047	69.900000
2966.407540	61.600000
2967.664304	82.500000
2968.920868	73.100000
2970.175705	80.700000
2971.431871	82.200000
2972.684781	76.500000
2973.939021	63.300000
2975.193062	82.900000
2976.445377	81.300000
2977.697494	69.100000
2978.947886	81.400000
2980.201133	71.900000
2981.449603	80.900000
2982.700927	65.700000
2983.949003	83.800000
2985.196881	75.200000
2986.444562	71.800000
2987.692047	93.000000
2988.937810	73.700000
2990.183376	83.200000
2991.430270	81.100000
2992.673920	87.900000
2993.918898	82.200000
2995.160633	69.400000
2996.405218	76.800000
2997.648085	84.600000
2998.887711	63.500000
3000.130187	87.300000
3001.369424	67.000000
3002.609988	56.800000
3003.848835	99.400000
3005.087488	90.500000
3006.324425	77.300000
3007.562689	65.100000
3008.799239	66.200000
3010.035594	71.000000
3011.271756	71.500000
3012.506205	81.400000
3013.740460	85.300000
3014.974522	76.700000
3016.206872	69.700000
3017.437510	62.700000
3018.670994	81.900000
3019.902766	72.700000
3021.132828	71.200000
3022.362698	60.800000
3023.590858	72.900000
3024.820344	91.500000
3026.048122	76.500000
3027.275708	69.600000
3028.504620	73.000000
3029.728790	78.800000
3030.955803	59.100000
3032.179592	78.400000
3033.404708	84.900000
3034.628117	52.600000
3035.851337	65.300000
3037.072851	75.400000
3038.297206	70.000000
3039.516826	67.900000
3040.737771	55.700000
3041.958528	73.500000
3043.177581	76.500000
3044.397960	80.900000
3045.615122	82.800000
3046.833609	87.300000
3048.050394	73.700000
3049.266992	55.200000
3050.483401	57.000000
3051.696598	61.400000
3052.912632	71.100000
3054.125454	50.600000
3055.341113	71.900000
3056.552049	71.800000
3057.764310	67.700000
3058.976385	80.100000
3060.188273	87.700000
3061.398463	79.800000
3062.608467	69.300000
3063.818286	59.600000
3065.026408	64.800000
3066.234344	50.300000
3067.440586	60.100000
3068.648151	68.200000
3069.854023	66.750000
3071.059709	65.300000
3072.265210	78.700000
3073.469018	70.900000
3074.674150	62.400000
3075.877590	63.300000
3077.079337	55.700000
3078.280901	60.400000
3079.482281	77.500000
3080.683477	58.100000
3081.882983	83.500000
3083.082305	45.400000
3084.282951	67.300000
3085.481907	77.900000
3086.677669	67.300000
3087.876260	61.800000
3089.071657	86.200000
3090.268377	67.800000
3091.461905	74.200000
3092.658261	61.100000
3093.852931	58.100000
3095.044410	65.500000
3096.240220	61.500000
3097.431337	52.100000
3098.623776	68.900000
3099.813028	45.200000
3101.005106	50.300000
3102.195499	65.900000
3103.382707	71.400000
3104.571238	73.500000
3105.761091	67.600000
3106.947759	72.300000
3108.134248	65.900000
3109.320557	53.800000
3110.508188	58.200000
3111.692638	57.100000
3112.875407	71.100000
3114.061000	60.200000
3115.244912	72.700000
3116.427146	47.400000
3117.609201	56.400000
3118.791079	68.000000
3119.972778	65.900000
3121.152799	69.800000
3122.331144	54.800000
3123.512310	51.900000
3124.690300	74.400000
3125.868113	47.600000
3127.045749	39.800000
3128.221710	59.700000
3129.397494	75.000000
3130.574600	51.900000
3131.750031	46.700000
3132.923789	50.200000
3134.095875	67.400000
3135.269281	57.100000
3136.442512	73.500000
3137.614070	58.300000
3138.786950	81.700000
3139.956662	60.300000
3141.127695	42.600000
3142.297057	52.000000
3143.464750	72.000000
3144.635258	47.600000
3145.801107	67.700000
3146.971266	55.300000
3148.136767	45.800000
3149.302095	62.100000
3150.467249	67.600000
3151.632229	58.500000
3152.798530	62.900000
3153.960177	68.800000
3155.123145	73.600000
3156.285939	68.600000
3157.448561	67.200000
3158.609518	63.500000
3159.770302	49.700000
3160.930914	54.700000
3162.089863	60.700000
3163.248639	47.600000
3164.407244	62.400000
3165.565677	46.500000
3166.723938	51.500000
3167.880537	61.800000
3169.035475	49.500000
3170.191732	68.100000
3171.346329	40.700000
3172.500754	72.000000
3173.653520	50.200000
3174.806116	59.100000
3175.958541	61.700000
3177.110797	60.200000
3178.262883	63.800000
3179.411822	44.100000
3180.563568	57.700000
3181.713656	51.600000
3182.862088	65.400000
3184.010351	49.800000
3185.158444	54.700000
3186.306369	64.200000
3187.452639	61.000000
3188.598740	58.200000
3189.743186	49.100000
3190.887465	51.100000
3192.031576	65.700000
3193.177005	69.500000
3194.319294	70.600000
3195.461417	50.700000
3196.603372	58.700000
3197.745161	47.000000
3198.886782	71.700000
3200.025267	34.700000
3201.165070	46.500000
3202.306191	56.500000
3203.444177	54.700000
3204.580514	53.700000
3205.716685	49.700000
3206.854174	39.900000
3207.990013	41.300000
3209.127170	36.200000
3210.259714	76.300000
3211.396540	45.300000
3212.528754	57.600000
3213.662286	48.200000
3214.795652	60.900000
3215.925891	40.400000
3217.058928	63.100000
3218.188839	39.900000
3219.320067	54.500000
3220.448169	48.300000
3221.579068	56.800000
3222.708324	60.300000
3223.835935	63.800000
3224.960425	59.100000
3226.089190	51.700000
3227.214833	56.500000
3228.340313	50.000000
3229.464152	54.300000
3230.590785	45.200000
3231.712821	40.500000
3232.836173	81.200000
3233.959363	36.400000
3235.082391	67.000000
3236.203779	69.300000
3237.325006	54.400000
3238.444594	30.400000
3239.564021	92.000000
3240.681810	58.300000
3241.802392	72.700000
3242.919859	80.500000
3244.037167	79.300000
3245.154313	74.300000
3246.269824	85.100000
3247.386650	82.500000
3248.500365	82.300000
3249.616870	53.200000
3250.731741	81.200000
3251.843503	66.200000
3252.955106	56.100000
3254.068023	69.500000
3255.180782	61.500000
3256.290434	62.200000
3257.401400	44.500000
3258.512208	37.500000
3259.621385	50.500000
3260.728930	38.000000
3261.837790	63.800000
3262.946491	33.900000
3264.052090	51.300000
3265.159003	45.800000
3266.264288	73.100000
3267.370886	61.200000
3268.474384	46.400000
3269.579196	52.500000
3270.683851	58.600000
3271.785407	68.700000
3272.886808	55.000000
3273.989522	56.400000
3275.092079	64.300000
3276.191540	58.200000
3277.293785	44.500000
3278.392934	54.400000
3279.490459	75.100000
3280.587828	57.800000
3281.687980	63.000000
3282.785038	33.300000
3283.881941	55.900000
3284.978689	40.600000
3286.070879	63.500000
3287.167317	43.500000
3288.262134	41.100000
3289.356795	33.900000
3290.449835	52.800000
3291.542721	27.800000
3292.633986	48.000000
3293.726564	41.100000
3294.817521	39.600000
3295.906859	29.000000
3296.996044	44.500000
3298.086542	37.700000
3299.173955	64.600000
3300.261216	54.700000
3301.349789	45.500000
3302.438209	55.200000
3303.522082	45.100000
3304.610197	44.800000
3305.695231	41.200000
3306.778648	29.700000
3307.863378	62.900000
3308.946493	51.300000
3310.030919	43.000000
3311.112267	42.700000
3312.194927	58.700000
3313.275973	35.500000
3314.356868	59.100000
3315.436150	45.200000
3316.515281	50.900000
3317.595723	53.600000
3318.673092	46.800000
3319.751771	48.900000
3320.828840	70.800000
3321.905758	25.000000
3322.981065	48.200000
3324.056223	63.500000
3325.132692	41.400000
3326.206091	38.100000
3327.279341	53.800000
3328.353902	65.000000
3329.426853	44.000000
3330.498197	45.300000
3331.570851	47.100000
3332.640438	46.200000
3333.711336	63.900000
3334.780627	24.100000
3335.851229	62.000000
3336.920224	58.000000
3337.987613	45.200000
3339.053397	44.600000
3340.123407	49.400000
3341.190354	48.400000
3342.254239	42.400000
3343.320892	67.300000
3344.385940	36.000000
3345.449385	52.500000
3346.512684	44.100000
3347.575836	55.000000
3348.638842	58.200000
3349.701702	51.800000
3350.762960	48.100000
3351.821161	52.900000
3352.883583	51.300000
3353.942948	47.000000
3355.002168	51.300000
3356.062698	40.100000
3357.118718	49.400000
3358.177503	39.300000
3359.231780	49.800000
3360.288820	54.200000
3361.344263	56.500000
3362.401014	35.900000
3363.456168	56.800000
3364.509724	39.300000
3365.561683	54.000000
3366.616404	61.000000
3367.668076	51.600000
3368.719605	50.600000
3369.772443	41.800000
3370.822233	36.900000
3371.873331	47.700000
3372.921384	43.400000
3373.972197	60.500000
3375.019964	54.400000
3376.067589	35.300000
3377.115071	38.200000
3378.160961	51.000000
3379.208159	53.300000
3380.252315	47.400000
3381.299229	42.100000
3382.344551	65.900000
3383.386833	49.500000
3384.428973	44.200000
3385.472421	34.400000
3386.515729	63.800000
3387.557446	42.300000
3388.599022	54.300000
3389.640458	26.500000
3390.680304	26.900000
3391.718563	56.300000
3392.758129	49.200000
3393.797554	38.000000
3394.835392	38.500000
3395.871643	53.500000
3396.907755	50.000000
3397.945174	47.000000
3398.979560	66.500000
3400.015253	29.400000
3401.050807	59.800000
3402.083330	36.300000
3403.118606	25.200000
3404.150851	41.800000
3405.182958	49.600000
3406.213481	32.000000
3407.245312	45.900000
3408.277003	42.400000
3409.305668	45.100000
3410.334194	31.600000
3411.364028	35.700000
3412.393723	47.000000
3413.420393	62.800000
3414.448370	45.100000
3415.473322	35.500000
3416.501024	38.600000
3417.525703	52.800000
3418.551688	33.600000
3419.576093	48.600000
3420.600362	41.200000
3421.623052	49.200000
3422.645606	40.300000
3423.669466	52.000000
3424.690306	34.500000
3425.711011	39.400000
3426.733021	39.100000
3427.752013	71.700000
3428.770870	41.900000
3429.791032	43.300000
3430.808178	16.900000
