-118.448435	10.000000
-115.778835	7.900000
-113.112170	-2.100000
-110.446257	-0.100000
-107.783276	13.700000
-105.118866	-0.800000
-102.457386	-4.600000
-99.794476	6.400000
-97.136674	-0.700000
-94.477441	13.800000
-91.818958	6.100000
-89.163398	-5.600000
-86.506410	2.600000
-83.854519	6.600000
-81.201199	3.400000
-78.550799	5.000000
-75.898969	16.300000
-73.252230	-7.300000
-70.604061	-11.200000
-67.956636	10.800000
-65.312124	1.900000
-62.666184	-10.800000
-60.025325	-6.000000
-57.383037	0.600000
-54.743657	-6.900000
-52.102849	-8.600000
-49.462781	6.500000
-46.827785	11.600000
-44.191360	-3.200000
-41.557839	-7.600000
-38.922889	9.600000
-36.293004	4.500000
-33.659527	1.200000
-31.031112	4.800000
-28.403430	13.100000
-25.774321	-3.800000
-23.150268	17.100000
-20.522626	5.700000
-17.900037	36.400000
-15.278180	33.000000
-12.657053	50.300000
-10.036656	134.800000
-7.419147	421.900000
-4.800210	1362.500000
-2.184159	3924.500000
0.431164	8492.400000
3.045760	3861.200000
5.657473	509.500000
8.270615	72.000000
10.878723	33.800000
13.490413	44.100000
16.097072	23.800000
18.705159	9.100000
21.312522	1.600000
23.914860	-0.300000
26.520776	-0.900000
29.121670	-0.700000
31.723992	13.500000
34.321297	0.800000
36.922177	8.100000
39.518043	-2.500000
42.115336	1.400000
44.711910	-8.700000
47.303475	12.500000
49.896468	8.400000
52.486600	-0.300000
55.078160	0.600000
57.666860	0.800000
60.256987	15.200000
62.842116	9.100000
65.428671	-25.900000
68.014513	-8.100000
70.597501	12.300000
73.181915	2.700000
75.759201	-8.200000
78.340053	0.000000
80.918056	4.000000
83.495349	0.300000
86.074068	-0.400000
88.647806	5.700000
91.222970	-0.200000
93.795291	9.100000
96.366904	10.700000
98.935677	0.100000
101.505877	5.700000
104.073239	13.500000
106.642026	-4.100000
109.207977	25.300000
111.771093	18.200000
114.337765	1.500000
116.895216	11.400000
119.458352	-9.200000
122.016529	33.400000
124.578259	43.400000
127.135034	39.700000
129.693234	42.900000
132.246482	91.400000
134.799031	117.400000
137.355131	187.200000
139.906284	258.400000
142.456738	297.900000
145.006496	360.600000
147.553434	392.800000
150.099676	403.400000
152.647344	437.900000
155.194317	440.800000
157.736353	421.100000
160.277696	413.100000
162.818346	428.700000
165.360422	420.300000
167.899687	412.600000
170.436142	396.700000
172.971907	417.000000
175.509097	426.900000
178.045595	416.000000
180.579288	406.100000
183.110178	396.400000
185.640379	413.000000
188.172005	420.100000
190.700830	411.200000
193.226856	405.000000
195.752197	400.500000
198.278962	408.400000
200.802930	404.100000
203.326214	386.100000
205.848813	391.200000
208.368619	432.200000
210.887742	394.900000
213.406182	413.200000
215.926046	398.300000
218.438909	424.200000
220.955303	426.900000
223.471015	422.400000
225.981838	419.700000
228.494085	440.400000
231.003549	430.600000
233.512335	434.600000
236.020443	454.200000
238.529974	436.400000
241.034625	458.900000
243.538601	443.100000
246.044000	448.700000
248.544524	444.300000
251.048571	435.900000
253.545648	441.900000
256.046247	446.200000
258.544075	442.500000
261.041230	427.500000
263.537712	434.200000
266.029331	444.300000
268.524470	447.100000
271.016843	438.400000
273.508545	428.000000
275.997483	462.200000
278.487846	450.000000
280.975447	449.600000
283.460288	443.800000
285.948643	451.500000
288.430059	453.600000
290.914989	477.100000
293.395074	485.300000
295.878671	491.200000
298.357425	503.600000
300.837603	499.000000
303.315028	515.700000
305.791790	508.300000
308.267889	465.300000
310.741239	490.800000
313.213927	448.500000
315.685954	469.500000
318.157320	474.700000
320.625942	508.100000
323.093904	485.900000
325.563289	463.500000
328.027850	474.800000
330.495916	436.600000
332.959162	448.300000
335.421750	424.500000
337.883682	442.300000
340.344957	420.800000
342.803498	425.300000
345.263461	411.200000
347.720691	412.500000
350.177267	407.900000
352.633189	386.800000
355.086382	394.000000
357.540996	400.200000
359.990809	383.600000
362.444119	391.200000
364.892629	391.200000
367.340489	351.900000
369.789770	356.900000
372.234258	355.200000
374.680168	351.900000
377.125429	360.900000
379.567970	343.100000
382.009864	363.800000
384.451111	337.400000
386.889642	348.100000
389.329595	345.600000
391.766834	328.400000
394.201361	328.000000
396.639376	330.900000
399.072614	315.400000
401.507274	330.200000
403.937160	322.500000
406.370532	330.700000
408.799134	317.000000
411.227095	321.400000
413.656476	314.500000
416.081092	348.900000
418.507130	325.300000
420.932527	333.200000
423.357284	337.400000
425.777283	336.500000
428.198703	323.100000
430.617426	308.900000
433.037570	314.600000
435.455019	309.600000
437.873888	295.400000
440.290064	274.300000
442.701493	269.500000
445.116398	272.300000
447.528613	280.200000
449.940194	266.400000
452.351141	254.300000
454.759402	254.500000
457.167030	232.100000
459.574027	248.600000
461.980391	227.500000
464.384073	253.600000
466.787125	221.300000
469.189547	245.600000
471.591340	240.000000
473.990454	245.800000
476.390988	240.600000
478.790893	241.500000
481.186075	266.400000
483.584724	259.200000
485.978653	266.800000
488.371956	280.200000
490.764633	287.400000
493.156685	320.600000
495.550156	321.600000
497.938914	379.800000
500.325006	425.000000
502.712518	527.600000
505.099406	727.900000
507.483631	1013.800000
509.869275	1405.200000
512.252256	1995.400000
514.632577	2724.700000
517.014317	3402.400000
519.393398	3561.800000
521.773898	3304.200000
524.151740	2780.300000
526.526927	2238.200000
528.901496	1853.500000
531.277484	1603.000000
533.650818	1387.700000
536.025570	1225.100000
538.395637	1101.800000
540.765088	969.300000
543.135957	886.300000
545.502146	817.700000
547.869753	770.500000
550.234714	710.100000
552.599062	680.100000
554.962798	643.300000
557.327951	618.800000
559.688431	579.700000
562.050330	556.500000
564.409589	535.000000
566.766209	536.600000
569.126274	503.500000
571.479649	503.100000
573.836468	468.600000
576.190651	480.400000
578.544227	464.500000
580.897194	433.000000
583.247530	436.000000
585.599282	433.600000
587.944358	419.100000
590.294898	387.100000
592.638765	394.300000
594.988092	396.500000
597.332772	378.400000
599.674826	368.300000
602.018298	358.500000
604.359147	352.700000
606.699394	353.900000
609.037020	365.400000
611.378081	401.700000
613.714504	405.300000
616.052345	445.500000
618.387567	442.600000
620.720174	415.100000
623.054197	433.600000
625.385607	385.300000
627.716418	371.000000
630.046631	357.300000
632.376246	344.500000
634.701239	357.900000
637.031673	343.400000
639.357485	352.800000
641.680691	354.200000
644.005312	356.200000
646.327329	325.100000
648.648751	322.200000
650.967570	332.300000
653.287805	315.700000
655.607447	322.400000
657.924488	313.100000
660.240937	320.800000
662.554788	305.100000
664.870055	320.700000
667.182725	303.800000
669.496810	292.400000
671.806295	331.900000
674.117196	308.800000
676.425504	321.000000
678.733224	319.400000
681.042359	306.000000
683.346901	300.300000
685.650856	324.600000
687.954226	279.800000
690.259010	293.400000
692.559208	284.000000
694.860820	293.700000
697.161848	275.200000
699.458293	264.100000
701.756154	265.000000
704.053431	247.500000
706.350125	267.500000
708.642243	263.300000
710.937772	242.000000
713.228728	256.800000
715.521098	254.900000
717.810892	265.100000
720.100107	262.200000
722.388741	273.900000
724.674804	260.700000
726.962280	269.500000
729.247186	257.000000
731.531513	234.900000
733.813272	253.200000
736.096445	258.100000
738.379041	244.500000
740.657082	231.000000
742.936536	261.500000
745.215415	251.000000
747.493718	249.100000
749.767472	259.400000
752.042640	251.200000
754.317234	231.800000
756.589268	238.500000
758.862716	241.600000
761.133606	231.400000
763.401940	238.400000
765.671687	237.500000
767.938880	248.600000
770.205502	242.100000
772.471555	243.300000
774.735055	243.500000
776.999969	243.600000
779.264313	257.000000
781.524128	240.700000
783.785356	235.200000
786.046015	246.600000
788.304129	250.300000
790.559698	244.700000
792.818658	258.300000
795.071119	251.600000
797.328947	253.800000
799.582255	245.800000
801.833024	219.900000
804.085205	248.400000
806.334848	241.800000
808.585902	228.100000
810.832445	240.300000
813.080400	249.200000
815.325821	227.200000
817.572653	248.900000
819.818924	231.600000
822.060691	264.500000
824.305840	234.800000
826.544517	217.600000
828.786577	221.600000
831.024138	221.700000
833.263110	222.900000
835.499556	223.900000
837.737413	215.100000
839.972745	218.600000
842.205554	239.000000
844.439774	223.400000
846.671472	231.600000
848.902615	225.200000
851.133203	221.200000
853.363236	206.900000
855.592716	205.900000
857.817714	208.100000
860.046087	228.000000
862.269981	223.700000
864.495285	216.000000
866.716114	224.900000
868.940315	208.700000
871.160043	233.000000
873.381182	198.600000
875.601770	231.900000
877.819848	207.000000
880.039337	218.400000
882.254359	225.000000
884.468833	227.800000
886.682760	222.500000
888.896139	201.200000
891.108971	209.600000
893.321257	230.400000
895.531040	202.900000
897.740278	210.900000
899.948971	227.700000
902.155165	215.200000
904.362768	209.400000
906.567874	213.800000
908.772436	223.400000
910.974502	225.500000
913.177978	227.200000
915.378960	234.000000
917.579401	241.700000
919.781249	238.700000
921.976707	255.600000
924.175524	255.900000
926.369902	285.700000
928.567638	323.300000
930.760938	351.000000
932.955647	386.300000
935.147870	413.600000
937.339555	455.500000
939.530702	509.100000
941.719366	500.600000
943.907493	523.200000
946.093140	519.800000
948.282139	507.600000
950.466715	494.000000
952.650756	504.400000
954.838147	508.400000
957.017234	511.500000
959.199672	496.800000
961.381576	504.900000
963.561006	527.100000
965.737963	530.500000
967.916327	492.400000
970.096099	531.100000
972.269522	517.700000
974.446291	513.700000
976.618653	520.600000
978.792423	502.000000
980.961789	511.100000
983.134500	495.400000
985.304744	474.200000
987.474460	438.300000
989.643647	413.300000
991.808437	360.200000
993.976568	344.200000
996.140305	330.700000
998.305448	306.700000
1000.468133	282.100000
1002.630291	300.900000
1004.789993	289.600000
1006.949171	278.700000
1009.109755	258.000000
1011.267884	271.500000
1013.425489	278.400000
1015.582571	247.200000
1017.739130	230.900000
1019.891309	252.100000
1022.044894	234.200000
1024.197958	221.600000
1026.348574	241.400000
1028.500595	239.900000
1030.648243	211.100000
1032.799223	228.100000
1034.945832	215.300000
1037.091923	211.200000
1039.237494	203.700000
1041.384471	199.000000
1043.525159	216.700000
1045.669177	202.400000
1047.810754	209.000000
1049.951815	208.700000
1052.094280	216.800000
1054.230466	220.100000
1056.369978	199.400000
1058.505134	202.000000
1060.643615	193.800000
1062.777742	210.100000
1064.911356	211.300000
1067.046375	199.200000
1069.177044	196.300000
1071.309118	182.800000
1073.438763	207.000000
1075.567896	208.000000
1077.696517	188.600000
1079.824627	182.000000
1081.950311	188.700000
1084.075485	202.800000
1086.202063	173.300000
1088.324304	208.000000
1090.447948	196.200000
1092.567259	180.800000
1094.691798	206.100000
1096.810092	189.900000
1098.929791	175.500000
1101.047071	182.800000
1103.163845	198.000000
1105.280112	190.900000
1107.393964	168.800000
1109.509219	188.600000
1111.620152	189.600000
1113.734396	195.300000
1115.844320	175.700000
1117.955648	163.200000
1120.066471	155.700000
1122.172979	180.400000
1124.282795	179.700000
1126.388297	181.300000
1128.495202	179.200000
1130.595892	162.700000
1132.701794	174.600000
1134.803387	193.200000
1136.906383	172.700000
1139.008878	170.800000
1141.105166	171.200000
1143.206662	190.200000
1145.303855	170.400000
1147.400549	164.800000
1149.496745	162.000000
1151.592444	166.300000
1153.687645	154.100000
1155.780449	169.700000
1157.874655	176.800000
1159.962670	166.600000
1162.055883	157.600000
1164.142908	181.300000
1166.233232	180.900000
1168.319269	171.800000
1170.408603	156.400000
1172.491756	175.500000
1174.576311	172.100000
1176.662268	174.500000
1178.743943	168.800000
1180.827020	183.900000
1182.907711	173.700000
1184.987910	182.500000
1187.067618	156.100000
1189.146835	151.000000
1191.223670	181.300000
1193.298124	165.100000
1195.375870	167.500000
1197.449345	163.800000
1199.524221	175.400000
1201.594830	158.800000
1203.666841	187.800000
1205.736475	177.400000
1207.807510	163.400000
1209.878057	154.400000
1211.944343	160.400000
1214.012030	169.700000
1216.077345	163.600000
1218.144060	124.500000
1220.206519	156.400000
1222.272263	149.400000
1224.333754	164.200000
1226.396644	176.500000
1228.457167	153.300000
1230.517206	149.400000
1232.576763	162.700000
1234.633954	176.000000
1236.690664	158.900000
1238.745011	167.100000
1240.802638	155.000000
1242.857903	152.800000
1244.908927	171.000000
1246.961351	157.400000
1249.013295	162.100000
1251.062881	151.500000
1253.111988	175.900000
1255.160617	146.300000
1257.208767	144.700000
1259.256439	153.200000
1261.299880	169.700000
1263.346596	168.600000
1265.390959	169.400000
1267.434846	181.900000
1269.476382	170.000000
1271.515567	155.600000
1273.558026	162.400000
1275.596262	158.700000
1277.635897	165.900000
1279.675057	182.600000
1281.709998	162.400000
1283.746339	166.900000
1285.780334	153.300000
1287.815728	164.200000
1289.846908	162.000000
1291.879487	162.700000
1293.911593	155.000000
1295.941359	174.400000
1297.972523	174.400000
1299.999479	165.300000
1302.027833	157.900000
1304.051983	162.200000
1306.079397	156.700000
1308.102609	161.600000
1310.127219	157.900000
1312.149495	171.500000
1314.173168	152.300000
1316.194508	164.500000
1318.215380	164.200000
1320.235786	155.600000
1322.251997	164.600000
1324.269606	171.100000
1326.284888	163.600000
1328.303427	161.700000
1330.317778	166.800000
1332.329803	176.900000
1334.345085	186.200000
1336.356182	165.100000
1338.368676	162.500000
1340.376987	175.500000
1342.388554	176.400000
1344.394081	172.000000
1346.402864	192.400000
1348.407469	158.300000
1350.415328	172.700000
1352.422725	170.800000
1354.424091	150.800000
1356.426854	176.100000
1358.429156	169.000000
1360.430999	153.900000
1362.432382	174.200000
1364.431452	164.400000
1366.430063	159.400000
1368.428216	185.800000
1370.425911	156.700000
1372.419442	166.400000
1374.414370	152.000000
1376.408841	162.200000
1378.402855	159.200000
1380.394561	171.600000
1382.385813	155.300000
1384.374759	160.800000
1386.365100	149.800000
1388.354986	143.600000
1390.342569	157.600000
1392.329697	155.600000
1394.314525	143.000000
1396.300746	161.500000
1398.284668	156.000000
1400.268137	149.700000
1402.251154	148.100000
1404.231872	154.800000
1406.213986	156.200000
1408.193802	147.500000
1410.173168	143.800000
1412.148394	141.700000
1414.126860	144.200000
1416.103031	130.900000
1418.078754	153.300000
1420.054027	160.000000
1422.027009	154.700000
1423.999543	139.700000
1425.971630	147.400000
1427.943268	146.700000
1429.910778	136.300000
1431.883363	143.200000
1433.848141	133.500000
1435.817991	120.900000
1437.783718	142.700000
1439.750837	144.000000
1441.715673	146.500000
1443.676390	128.400000
1445.642174	144.300000
1447.602003	147.500000
1449.563225	148.200000
1451.525840	154.500000
1453.484340	146.500000
1455.442398	161.000000
1457.400013	136.800000
1459.357187	158.200000
1461.312085	157.100000
1463.268375	148.100000
1465.222391	157.100000
1467.175967	142.700000
1469.127270	149.500000
1471.079965	147.900000
1473.030389	150.900000
1474.980373	146.500000
1476.929919	149.100000
1478.877196	155.700000
1480.822206	123.200000
1482.768607	142.000000
1484.714572	140.500000
1486.660098	147.600000
1488.603360	145.200000
1490.546185	138.500000
1492.486747	141.300000
1494.428700	140.900000
1496.368392	151.700000
1498.307648	135.700000
1500.246469	142.200000
1502.183031	129.200000
1504.120984	137.000000
1506.056679	151.600000
1507.991939	135.200000
1509.924944	161.300000
1511.857516	138.100000
1513.789656	133.700000
1515.721364	150.700000
1517.650818	145.900000
1519.581663	155.100000
1521.512077	143.900000
1523.438417	135.400000
1525.366149	150.400000
1527.291630	140.900000
1529.216682	154.100000
1531.141305	137.700000
1533.065499	149.500000
1534.987446	150.800000
1536.910782	141.800000
1538.831873	154.700000
1540.750719	159.700000
1542.670955	149.800000
1544.588947	178.800000
1546.506513	161.400000
1548.421837	167.500000
1550.338551	162.100000
1552.251210	184.400000
1554.167073	163.800000
1556.080696	200.600000
1557.992082	189.100000
1559.904856	199.100000
1561.813581	207.100000
1563.723696	227.300000
1565.633387	229.600000
1567.542654	252.400000
1569.449688	273.300000
1571.354489	302.400000
1573.260679	384.400000
1575.164637	426.500000
1577.068175	509.200000
1578.971291	602.200000
1580.872179	700.500000
1582.774454	734.600000
1584.674502	715.100000
1586.575937	619.800000
1588.473339	515.000000
1590.370322	398.600000
1592.266887	343.600000
1594.164840	303.700000
1596.056958	268.400000
1597.952269	237.600000
1599.847163	218.000000
1601.739835	197.200000
1603.632091	180.800000
1605.522126	200.300000
1607.411747	165.600000
1609.300951	197.000000
1611.189741	165.300000
1613.076314	191.700000
1614.964273	169.900000
1616.848216	179.900000
1618.733547	186.500000
1620.618463	190.100000
1622.501166	195.900000
1624.385256	174.900000
1626.265335	160.000000
1628.146800	160.800000
1630.026055	153.500000
1631.906696	128.600000
1633.781533	129.900000
1635.661352	149.800000
1637.537165	126.500000
1639.412568	149.500000
1641.289358	131.000000
1643.160350	117.100000
1645.034524	123.300000
1646.904700	132.400000
1648.778056	145.300000
1650.649209	141.900000
1652.518160	122.500000
1654.388497	129.000000
1656.254840	130.400000
1658.122569	133.900000
1659.988100	116.900000
1661.855015	122.700000
1663.717942	121.100000
1665.582254	119.900000
1667.444370	131.200000
1669.306082	126.800000
1671.169178	125.100000
1673.030080	108.500000
1674.888788	109.800000
1676.747093	125.400000
1678.606783	125.800000
1680.460706	116.100000
1682.317801	120.300000
1684.174494	143.500000
1686.027211	111.900000
1687.883098	116.700000
1689.735012	112.300000
1691.586525	115.100000
1693.437637	120.200000
1695.288349	114.400000
1697.138660	126.800000
1698.986787	107.700000
1700.836297	110.200000
1702.680059	126.200000
1704.528770	96.700000
1706.371736	107.700000
1708.217867	115.600000
1710.060037	112.200000
1711.905371	126.300000
1713.744965	114.200000
1715.585943	103.700000
1717.428304	104.800000
1719.266709	106.600000
1721.106497	122.600000
1722.944110	115.800000
1724.781327	99.800000
1726.616371	118.100000
1728.452798	116.300000
1730.287053	92.500000
1732.120913	117.900000
1733.954380	109.800000
1735.783900	111.800000
1737.616579	118.400000
1739.445314	123.000000
1741.277207	116.900000
1743.105157	110.900000
1744.932715	113.700000
1746.759881	117.600000
1748.586656	128.300000
1750.413040	108.600000
1752.235487	117.900000
1754.061088	110.700000
1755.882755	113.200000
1757.705804	113.400000
1759.526692	106.900000
1761.347190	107.600000
1763.169070	105.500000
1764.985250	108.100000
1766.804582	114.000000
1768.619987	107.200000
1770.438542	109.000000
1772.253172	105.100000
1774.067416	120.200000
1775.881272	104.600000
1777.694742	112.600000
1779.506059	111.500000
1781.318757	90.000000
1783.131068	130.400000
1784.939462	105.800000
1786.749237	114.800000
1788.555096	123.700000
1790.364101	105.000000
1792.169193	111.200000
1793.975666	107.700000
1795.781755	109.700000
1797.583934	97.200000
1799.389256	106.700000
1801.190670	105.300000
1802.993464	118.400000
1804.792352	108.500000
1806.592621	100.900000
1808.392508	126.400000
1810.190254	78.800000
1811.987618	99.600000
1813.784603	110.700000
1815.581207	112.300000
1817.375672	111.000000
1819.171516	96.200000
1820.961706	127.300000
1822.756792	103.700000
1824.546225	122.200000
1826.338795	82.700000
1828.129230	107.800000
1829.917531	120.500000
1831.708967	111.900000
1833.494757	104.900000
1835.281927	129.800000
1837.066965	100.900000
1838.855137	106.700000
1840.639423	104.500000
1842.421580	118.700000
1844.205115	107.700000
1845.986522	110.300000
1847.769308	113.700000
1849.548214	114.600000
1851.328498	111.000000
1853.106656	109.400000
1854.886193	121.800000
1856.663605	104.300000
1858.438893	106.800000
1860.215560	109.500000
1861.990103	111.000000
1863.766025	112.500000
1865.536326	115.300000
1867.309755	106.400000
1869.081064	108.400000
1870.852003	117.900000
1872.624318	114.400000
1874.391020	104.200000
1876.160848	123.900000
1877.926812	124.500000
1879.695900	119.400000
1881.461126	112.900000
1883.225983	106.700000
1884.992218	95.700000
1886.754594	108.300000
1888.516603	111.400000
1890.278244	128.800000
1892.039519	115.800000
1893.800426	129.900000
1895.560967	107.600000
1897.319398	96.100000
1899.077464	128.400000
1900.833421	112.400000
1902.590756	107.000000
1904.347724	103.300000
1906.102587	88.300000
1907.855344	94.800000
1909.607738	123.300000
1911.361507	101.100000
1913.113173	102.900000
1914.862737	106.900000
1916.613677	106.800000
1918.364253	115.500000
1920.110990	102.900000
1921.859104	110.300000
1923.605118	114.800000
1925.352508	105.300000
1927.097799	101.600000
1928.840993	92.800000
1930.585563	92.600000
1932.328036	110.000000
1934.070149	105.300000
1935.811902	123.000000
1937.553296	87.200000
1939.292596	94.100000
1941.031536	112.000000
1942.770119	115.400000
1944.506609	88.600000
1946.242742	103.350000
1947.980249	118.100000
1949.713934	94.100000
1951.448994	102.200000
1953.181966	101.300000
1954.914581	101.800000
1956.646839	100.100000
1958.378741	94.300000
1960.108557	110.800000
1961.836289	120.000000
1963.565394	107.100000
1965.294145	114.200000
1967.020812	113.900000
1968.747125	94.000000
1970.474811	113.900000
1972.196961	105.600000
1973.922212	92.300000
1975.643657	87.100000
1977.368201	102.900000
1979.090666	95.100000
1980.809327	94.100000
1982.531087	83.800000
1984.249045	92.600000
1985.968376	95.800000
1987.683908	88.800000
1989.404261	125.200000
1991.120814	110.500000
1992.833571	101.400000
1994.549425	108.600000
1996.263205	96.700000
1997.976636	94.300000
1999.687996	105.600000
2001.400729	101.300000
2003.109670	118.500000
2004.821705	103.400000
2006.528230	98.400000
2008.237848	100.600000
2009.945398	97.600000
2011.652601	100.600000
2013.357738	95.500000
2015.062528	91.000000
2016.768690	121.700000
2018.471070	112.100000
2020.174822	106.400000
2021.876510	96.600000
2023.577854	107.800000
2025.278852	112.300000
2026.977790	107.100000
2028.678098	104.600000
2030.374632	93.100000
2032.072537	105.500000
2033.768383	107.700000
2035.467315	106.400000
2037.160761	105.900000
2038.855579	106.900000
2040.550053	102.300000
2042.240759	88.500000
2043.934549	109.400000
2045.624572	108.600000
2047.315966	77.100000
2049.005307	84.700000
2050.696018	91.400000
2052.382966	95.900000
2054.069575	102.800000
2055.757554	96.700000
2057.441773	91.100000
2059.127362	93.800000
2060.812612	86.000000
2062.495814	103.400000
2064.180385	97.800000
2065.859494	111.100000
2067.543388	101.300000
2069.221822	97.700000
2070.903332	115.400000
2072.581092	94.000000
2074.258514	98.700000
2075.937306	97.900000
2077.614056	87.800000
2079.288764	85.900000
2080.964841	99.600000
2082.638878	106.400000
2084.312579	107.700000
2085.985945	101.400000
2087.657273	104.100000
2089.328266	88.300000
2090.998925	98.600000
2092.669249	81.400000
2094.339240	99.700000
2096.007195	87.900000
2097.674817	101.200000
2099.340404	98.400000
2101.007361	94.700000
2102.672283	88.000000
2104.336874	102.600000
2105.999433	91.800000
2107.663360	81.800000
2109.325257	77.200000
2110.986822	103.100000
2112.648056	79.000000
2114.307262	95.500000
2115.966137	105.900000
2117.624683	109.400000
2119.282899	97.500000
2120.937391	99.300000
2122.594948	85.500000
2124.252176	109.200000
2125.905682	85.500000
2127.560556	103.700000
2129.211712	93.000000
2130.865929	83.700000
2132.516430	90.200000
2134.168297	85.300000
2135.814756	77.200000
2137.465970	103.900000
2139.113470	81.900000
2140.762337	79.500000
2142.409186	109.200000
2144.055708	108.100000
2145.701905	81.100000
2147.344394	84.200000
2148.989941	93.900000
2150.631781	105.800000
2152.276678	87.900000
2153.917870	103.900000
2155.558738	76.300000
2157.199282	82.500000
2158.837814	100.600000
2160.477712	78.400000
2162.113910	75.500000
2163.751475	95.100000
2165.388716	103.300000
2167.023948	80.500000
2168.658859	101.600000
2170.293448	98.400000
2171.927715	101.200000
2173.558289	95.400000
2175.191915	78.500000
2176.821849	91.200000
2178.453148	93.400000
2180.082442	81.300000
2181.711417	108.100000
2183.340073	88.100000
2184.968409	87.300000
2186.594742	100.200000
2188.220757	100.600000
2189.844771	76.100000
2191.470149	86.600000
2193.093528	90.300000
2194.718270	89.000000
2196.339332	89.200000
2197.960077	89.700000
2199.582187	99.200000
2201.202299	92.400000
2202.820414	96.900000
2204.438214	98.200000
2206.055699	81.200000
2207.672868	105.800000
2209.289722	100.100000
2210.906261	99.200000
2212.520806	94.300000
2214.133359	104.700000
2215.747276	91.700000
2217.359202	86.200000
2218.972491	104.400000
2220.583790	75.700000
2222.193099	94.200000
2223.803772	67.200000
2225.412456	89.500000
2227.020828	105.100000
2228.627212	75.000000
2230.234960	117.400000
2231.840721	81.900000
2233.446171	91.900000
2235.049636	77.100000
2236.654464	93.100000
2238.257309	79.500000
2239.858170	102.700000
2241.460393	87.500000
2243.060635	102.400000
2244.662239	80.200000
2246.260191	75.500000
2247.859505	87.600000
2249.456839	84.300000
2251.053864	105.600000
2252.652252	89.200000
2254.246991	95.000000
2255.839753	89.900000
2257.433878	81.300000
2259.029364	74.100000
2260.621206	84.100000
2262.212741	98.800000
2263.805637	88.700000
2265.393224	90.800000
2266.985508	79.500000
2268.572484	90.800000
2270.162489	91.800000
2271.747189	92.100000
2273.336583	100.100000
2274.920674	89.300000
2276.506127	85.700000
2278.089610	80.600000
2279.676120	96.400000
2281.258996	103.300000
2282.841568	69.900000
2284.423837	95.400000
2286.002477	87.600000
2287.584140	95.100000
2289.162175	96.200000
2290.743233	88.600000
2292.320665	85.200000
2293.896132	81.800000
2295.474622	77.100000
2297.049488	85.800000
2298.624053	88.700000
2300.198318	87.600000
2301.772282	93.000000
2303.345946	78.400000
2304.919309	88.100000
2306.489054	95.300000
2308.058500	98.400000
2309.630965	90.600000
2311.198154	93.300000
2312.768362	85.000000
2314.334955	101.200000
2315.902908	90.500000
2317.468905	91.800000
2319.034605	76.700000
2320.600008	92.200000
2322.163456	91.900000
2323.728264	105.100000
2325.289464	103.500000
2326.853678	98.000000
2328.412631	95.100000
2329.974597	73.800000
2331.534613	100.300000
2333.094333	97.800000
2334.652104	82.400000
2336.209580	76.900000
2337.766762	100.000000
2339.321997	81.400000
2340.876937	100.200000
2342.431584	77.500000
2343.985937	98.600000
2345.539996	86.300000
2347.093761	97.300000
2348.645583	82.900000
2350.195461	96.700000
2351.748347	89.500000
2353.295991	88.600000
2354.846642	90.600000
2356.393702	79.800000
2357.942121	75.300000
2359.490247	112.600000
2361.034785	78.600000
2362.580681	80.900000
2364.124639	100.800000
2365.669954	96.000000
2367.211684	73.400000
2368.754771	97.100000
2370.295923	81.700000
2371.836785	78.100000
2373.377358	73.700000
2374.917641	79.600000
2376.457636	97.200000
2377.994053	83.300000
2379.533471	82.600000
2381.069312	81.900000
2382.606509	93.800000
2384.140131	72.900000
2385.676754	77.900000
2387.211445	88.000000
2388.744207	85.800000
2390.276682	81.200000
2391.807230	83.600000
2393.340775	70.300000
2394.869109	74.500000
2396.398799	71.100000
2397.928204	70.100000
2399.457323	84.500000
2400.986158	77.400000
2402.509787	85.400000
2404.038053	84.400000
2405.561115	70.200000
2407.088811	90.700000
2408.609668	92.400000
2410.135158	68.200000
2411.657087	99.300000
2413.180372	94.100000
2414.701736	89.600000
2416.221180	89.400000
2417.741979	92.600000
2419.260859	94.100000
2420.779457	108.300000
2422.296138	83.400000
2423.814173	80.200000
2425.331927	96.900000
2426.846130	101.000000
2428.360052	101.400000
2429.873694	121.800000
2431.388691	104.300000
2432.900139	92.900000
2434.412942	97.000000
2435.923832	104.600000
2437.434442	116.000000
2438.943141	111.900000
2440.454827	119.200000
2441.962968	152.900000
2443.470832	120.900000
2444.978418	115.900000
2446.482463	143.600000
2447.989494	128.900000
2449.494616	142.000000
2450.999461	137.600000
2452.502399	132.800000
2454.005060	158.000000
2455.507445	116.900000
2457.007925	141.400000
2458.509758	126.700000
2460.009687	116.900000
2461.509340	122.500000
2463.008717	124.200000
2464.506192	127.600000
2466.001765	126.200000
2467.500319	132.300000
2468.995343	120.200000
2470.491721	97.600000
2471.984571	103.800000
2473.478775	104.100000
2474.972705	113.200000
2476.463112	102.700000
2477.956495	122.800000
2479.447981	94.800000
2480.937570	101.300000
2482.426887	111.200000
2483.914309	96.700000
2485.404706	101.200000
2486.891584	104.300000
2488.379814	115.600000
2489.864528	97.100000
2491.348971	101.600000
2492.834766	102.700000
2494.318668	91.200000
2495.803922	108.800000
2497.284042	96.200000
2498.767134	109.200000
2500.248336	81.800000
2501.729269	99.700000
2503.208313	82.300000
2504.687088	80.800000
2506.165595	109.800000
2507.643834	92.100000
2509.121804	75.200000
2510.596270	68.400000
2512.073704	94.100000
2513.547635	99.100000
2515.022916	79.900000
2516.497931	99.400000
2517.969444	105.400000
2519.442307	100.600000
2520.913288	94.200000
2522.385619	95.000000
2523.852837	92.000000
2525.323020	84.600000
2526.791323	84.400000
2528.259361	84.900000
2529.727134	90.800000
2531.194642	83.300000
2532.661885	83.500000
2534.125636	83.800000
2535.590737	102.000000
2537.053961	94.700000
2538.518535	67.000000
2539.979619	86.900000
2541.442053	77.300000
2542.904224	79.500000
2544.362909	67.500000
2545.826166	86.800000
2547.284326	91.000000
2548.743835	98.000000
2550.198251	88.600000
2551.657236	85.000000
2553.114350	94.700000
2554.569593	91.700000
2556.024575	73.700000
2557.477687	95.300000
2558.932148	88.700000
2560.384740	90.600000
2561.837072	90.700000
2563.287536	88.400000
2564.740956	99.700000
2566.189294	81.700000
2567.640588	75.800000
2569.090015	87.500000
2570.535970	88.100000
2571.984881	91.200000
2573.430320	106.100000
2574.877108	102.600000
2576.322032	91.500000
2577.766699	99.600000
2579.212713	93.800000
2580.655260	77.200000
2582.099155	112.500000
2583.539585	92.700000
2584.981362	97.200000
2586.421280	94.000000
2587.862545	101.400000
2589.300349	101.300000
2590.741102	90.300000
2592.176792	96.200000
2593.615432	103.900000
2595.052215	98.400000
2596.487141	83.600000
2597.925016	101.900000
2599.357832	83.100000
2600.791996	85.500000
2602.224306	109.100000
2603.657962	100.500000
2605.089765	89.100000
2606.521315	104.400000
2607.952611	101.000000
2609.382055	94.200000
2610.811248	96.300000
2612.238589	86.600000
2613.667277	102.400000
2615.095712	98.400000
2616.520700	96.700000
2617.947035	83.800000
2619.371521	103.200000
2620.797353	102.400000
2622.219741	97.400000
2623.643475	88.300000
2625.065362	93.500000
2626.487000	115.800000
2627.906792	108.300000
2629.327930	120.900000
2630.748818	116.000000
2632.166268	120.400000
2633.586657	120.700000
2635.003609	133.300000
2636.420313	136.700000
2637.836768	120.600000
2639.252975	135.400000
2640.668933	153.600000
2642.083051	140.800000
2643.496922	146.700000
2644.908953	151.500000
2646.322329	173.200000
2647.732275	162.000000
2649.145156	169.900000
2650.554610	191.900000
2651.963817	196.600000
2653.371187	207.700000
2654.781493	218.400000
2656.189962	220.000000
2657.596596	255.300000
2659.002985	280.700000
2660.407540	297.900000
2661.813439	304.100000
2663.217505	321.800000
2664.621326	364.300000
2666.024904	410.800000
2667.426649	460.600000
2668.829738	499.800000
2670.229409	566.200000
2671.630424	590.600000
2673.028023	665.300000
2674.428552	748.400000
2675.825666	828.200000
2677.224123	909.300000
2678.620752	951.400000
2680.017139	1070.900000
2681.413285	1092.600000
2682.807604	1146.100000
2684.203266	1213.700000
2685.595518	1196.200000
2686.989114	1202.500000
2688.380885	1192.900000
2689.773998	1119.000000
2691.165288	1062.000000
2692.554755	983.500000
2693.943982	903.200000
2695.332970	803.100000
2696.723300	747.200000
2698.108645	696.500000
2699.496914	637.200000
2700.883363	570.700000
2702.269573	512.300000
2703.655545	452.000000
2705.038117	422.700000
2706.422032	374.300000
2707.805709	347.700000
2709.189148	328.100000
2710.569191	299.600000
2711.950576	287.200000
2713.330145	264.200000
2714.711056	231.900000
2716.090151	221.900000
2717.467433	203.700000
2718.846056	194.900000
2720.222866	175.100000
2721.599440	197.000000
2722.975778	178.500000
2724.350304	164.900000
2725.726171	158.400000
2727.098651	156.400000
2728.474047	142.800000
2729.844483	129.600000
2731.216260	122.400000
2732.587802	131.900000
2733.957536	153.900000
2735.328611	109.300000
2736.697877	127.100000
2738.066911	102.200000
2739.434137	121.500000
2740.801131	121.000000
2742.167892	113.600000
2743.534420	115.000000
2744.899143	97.000000
2746.263635	118.600000
2747.627894	87.400000
2748.991921	114.700000
2750.355717	103.500000
2751.716139	91.000000
2753.079472	87.900000
2754.437862	98.900000
2755.799162	85.500000
2757.157091	96.000000
2758.517930	100.600000
2759.876968	88.700000
2761.232638	93.700000
2762.591216	87.400000
2763.946428	92.000000
2765.301410	79.200000
2766.654595	91.300000
2768.010687	96.400000
2769.363415	63.100000
2770.715914	87.400000
2772.068185	81.100000
2773.421795	78.400000
2774.772043	94.100000
2776.120498	70.700000
2777.471857	77.500000
2778.819857	86.600000
2780.169196	70.800000
2781.516742	88.500000
2782.864061	73.100000
2784.211154	67.500000
2785.556456	94.400000
2786.901532	75.800000
2788.246382	84.200000
2789.591005	77.300000
2790.932277	80.800000
2792.274887	84.700000
2793.617271	88.400000
2794.959431	73.600000
2796.298241	81.600000
2797.639950	70.300000
2798.978312	82.000000
2800.318011	75.400000
2801.655924	77.200000
2802.992053	65.400000
2804.327958	67.400000
2805.665201	75.700000
2807.000660	81.600000
2808.335896	80.200000
2809.669349	80.000000
2811.004140	69.500000
2812.335589	86.800000
2813.669934	79.000000
2814.999381	74.400000
2816.330165	76.000000
2817.660727	71.200000
2818.989510	86.200000
2820.319629	73.100000
2821.647970	93.600000
2822.976090	61.800000
2824.302432	79.500000
2825.630111	77.200000
2826.954457	78.800000
2828.280138	71.300000
2829.604044	91.100000
2830.927731	71.000000
2832.252753	72.300000
2833.574445	81.500000
2834.895919	74.200000
2836.217174	68.300000
2837.538210	65.700000
2838.857474	81.000000
2840.178073	81.600000
2841.496900	71.300000
2842.815509	74.700000
2844.132347	79.200000
2845.448968	64.700000
2846.765372	69.300000
2848.080007	87.900000
2849.395976	75.000000
2850.708625	70.500000
2852.022610	89.900000
2853.336377	71.500000
2854.649929	79.700000
2855.961713	54.500000
2857.271731	53.700000
2858.583084	74.400000
2859.891122	82.500000
2861.200495	71.700000
2862.509652	69.700000
2863.818594	64.100000
2865.125773	72.300000
2866.431188	71.700000
2867.737938	85.300000
2869.042925	55.200000
2870.347699	65.500000
2871.650711	62.800000
2872.956605	55.100000
2874.257643	78.900000
2875.560016	45.900000
2876.860629	86.800000
2878.162576	68.400000
2879.464310	71.300000
2880.762739	69.100000
2882.062503	75.600000
2883.360508	68.700000
2884.658302	54.700000
2885.954340	82.900000
2887.251711	61.600000
2888.547326	57.900000
2889.842730	69.100000
2891.137924	54.400000
2892.429819	70.700000
2893.724591	61.500000
2895.016066	75.100000
2896.308874	52.700000
2897.601472	70.000000
2898.890776	74.300000
2900.181412	72.200000
2901.470297	51.200000
2902.760515	58.100000
2904.047440	46.800000
2905.335699	80.800000
2906.622207	60.800000
2907.908508	61.900000
2909.194600	57.000000
2910.478944	67.500000
2911.766160	57.100000
2913.048548	75.700000
2914.332269	79.200000
2915.614244	65.200000
2916.896012	75.300000
2918.176034	77.500000
2919.458926	48.500000
2920.740073	75.100000
2922.017938	55.300000
2923.298672	66.600000
2924.576125	68.900000
2925.853372	70.600000
2927.128878	44.300000
2928.407251	67.200000
2929.680809	80.500000
2930.957235	66.900000
2932.231920	66.100000
2933.504865	75.500000
2934.779140	57.400000
2936.051676	62.600000
2937.324008	71.500000
2938.593066	61.400000
2939.864990	60.300000
2941.135176	53.800000
2942.405159	80.400000
2943.674938	66.800000
2944.942980	66.500000
2946.209287	60.200000
2947.475391	52.200000
2948.742825	52.300000
2950.008525	55.900000
2951.274022	64.600000
2952.539317	67.300000
2953.801347	56.000000
2955.064708	50.600000
2956.327866	57.800000
2957.589293	73.800000
2958.852049	66.500000
2960.113074	67.600000
2961.372367	44.900000
2962.631461	58.000000
2963.890354	55.800000
2965.149047	57.500000
2966.407540	67.700000
2967.664304	61.400000
2968.920868	58.200000
2970.175705	57.100000
2971.431871	69.800000
2972.684781	55.400000
2973.939021	72.500000
2975.193062	59.100000
2976.445377	65.100000
2977.697494	63.600000
2978.947886	48.900000
2980.201133	70.100000
2981.449603	70.200000
2982.700927	44.900000
2983.949003	57.800000
2985.196881	45.900000
2986.444562	53.000000
2987.692047	71.700000
2988.937810	57.800000
2990.183376	50.600000
2991.430270	65.500000
2992.673920	63.900000
2993.918898	57.600000
2995.160633	70.900000
2996.405218	57.800000
2997.648085	62.900000
2998.887711	58.100000
3000.130187	52.100000
3001.369424	58.100000
3002.609988	53.200000
3003.848835	65.800000
3005.087488	56.400000
3006.324425	69.300000
3007.562689	71.700000
3008.799239	45.900000
3010.035594	54.900000
3011.271756	68.000000
3012.506205	50.200000
3013.740460	57.600000
3014.974522	66.400000
3016.206872	68.600000
3017.437510	47.900000
3018.670994	59.300000
3019.902766	54.200000
3021.132828	40.500000
3022.362698	38.500000
3023.590858	40.000000
3024.820344	56.200000
3026.048122	56.700000
3027.275708	68.600000
3028.504620	49.500000
3029.728790	61.400000
3030.955803	46.000000
3032.179592	55.400000
3033.404708	60.600000
3034.628117	51.000000
3035.851337	53.400000
3037.072851	34.700000
3038.297206	62.400000
3039.516826	61.800000
3040.737771	62.800000
3041.958528	64.500000
3043.177581	48.500000
3044.397960	51.200000
3045.615122	59.200000
3046.833609	42.100000
3048.050394	42.300000
3049.266992	63.900000
3050.483401	57.700000
3051.696598	47.600000
3052.912632	64.300000
3054.125454	53.100000
3055.341113	62.200000
3056.552049	52.200000
3057.764310	53.100000
3058.976385	49.400000
3060.188273	54.100000
3061.398463	71.300000
3062.608467	47.700000
3063.818286	53.600000
3065.026408	53.900000
3066.234344	44.700000
3067.440586	45.600000
3068.648151	57.200000
3069.854023	56.550000
3071.059709	55.900000
3072.265210	45.400000
3073.469018	52.700000
3074.674150	64.000000
3075.877590	66.000000
3077.079337	63.900000
3078.280901	35.400000
3079.482281	50.100000
3080.683477	47.900000
3081.882983	48.700000
3083.082305	64.000000
3084.282951	44.500000
3085.481907	51.100000
3086.677669	58.800000
3087.876260	66.300000
3089.071657	52.600000
3090.268377	30.800000
3091.461905	48.900000
3092.658261	54.900000
3093.852931	51.500000
3095.044410	34.200000
3096.240220	68.000000
3097.431337	47.200000
3098.623776	31.900000
3099.813028	53.600000
3101.005106	58.000000
3102.195499	55.100000
3103.382707	43.700000
3104.571238	57.700000
3105.761091	60.600000
3106.947759	46.700000
3108.134248	61.800000
3109.320557	56.000000
3110.508188	58.300000
3111.692638	36.500000
3112.875407	43.300000
3114.061000	57.900000
3115.244912	33.400000
3116.427146	48.100000
3117.609201	38.900000
3118.791079	54.400000
3119.972778	56.000000
3121.152799	55.200000
3122.331144	52.000000
3123.512310	48.000000
3124.690300	57.600000
3125.868113	56.300000
3127.045749	53.300000
3128.221710	38.700000
3129.397494	36.800000
3130.574600	48.800000
3131.750031	35.400000
3132.923789	57.700000
3134.095875	59.400000
3135.269281	55.900000
3136.442512	61.900000
3137.614070	27.600000
3138.786950	43.800000
3139.956662	46.300000
3141.127695	48.200000
3142.297057	64.300000
3143.464750	34.900000
3144.635258	22.900000
3145.801107	53.200000
3146.971266	55.600000
3148.136767	47.100000
3149.302095	62.500000
3150.467249	44.500000
3151.632229	36.400000
3152.798530	42.400000
3153.960177	44.600000
3155.123145	67.400000
3156.285939	75.600000
3157.448561	66.200000
3158.609518	27.000000
3159.770302	34.900000
3160.930914	37.600000
3162.089863	51.500000
3163.248639	42.100000
3164.407244	60.800000
3165.565677	51.900000
3166.723938	37.700000
3167.880537	59.600000
3169.035475	42.500000
3170.191732	30.400000
3171.346329	48.600000
3172.500754	41.400000
3173.653520	58.300000
3174.806116	41.800000
3175.958541	48.800000
3177.110797	57.000000
3178.262883	32.000000
3179.411822	46.400000
3180.563568	38.300000
3181.713656	33.900000
3182.862088	60.700000
3184.010351	46.500000
3185.158444	48.400000
3186.306369	38.900000
3187.452639	40.200000
3188.598740	61.500000
3189.743186	37.700000
3190.887465	43.700000
3192.031576	34.100000
3193.177005	41.900000
3194.319294	31.300000
3195.461417	50.600000
3196.603372	37.500000
3197.745161	37.600000
3198.886782	45.800000
3200.025267	25.900000
3201.165070	45.500000
3202.306191	28.800000
3203.444177	46.900000
3204.580514	35.700000
3205.716685	48.600000
3206.854174	27.000000
3207.990013	51.800000
3209.127170	50.500000
3210.259714	38.200000
3211.396540	54.700000
3212.528754	42.600000
3213.662286	51.200000
3214.795652	47.500000
3215.925891	42.400000
3217.058928	55.700000
3218.188839	46.500000
3219.320067	45.900000
3220.448169	35.400000
3221.579068	35.300000
3222.708324	46.400000
3223.835935	43.500000
3224.960425	49.700000
3226.089190	54.800000
3227.214833	34.300000
3228.340313	40.900000
3229.464152	57.700000
3230.590785	45.900000
3231.712821	46.000000
3232.836173	61.200000
3233.959363	59.800000
3235.082391	73.500000
3236.203779	74.000000
3237.325006	73.200000
3238.444594	78.500000
3239.564021	88.500000
3240.681810	75.900000
3241.802392	80.200000
3242.919859	77.300000
3244.037167	80.800000
3245.154313	84.600000
3246.269824	92.100000
3247.386650	75.800000
3248.500365	74.000000
3249.616870	89.700000
3250.731741	77.700000
3251.843503	64.900000
3252.955106	52.100000
3254.068023	58.800000
3255.180782	45.300000
3256.290434	32.400000
3257.401400	48.000000
3258.512208	42.400000
3259.621385	51.200000
3260.728930	42.100000
3261.837790	53.100000
3262.946491	34.300000
3264.052090	55.200000
3265.159003	33.000000
3266.264288	37.400000
3267.370886	40.300000
3268.474384	41.200000
3269.579196	51.500000
3270.683851	43.300000
3271.785407	35.300000
3272.886808	42.300000
3273.989522	59.500000
3275.092079	38.800000
3276.191540	44.400000
3277.293785	38.500000
3278.392934	36.800000
3279.490459	37.900000
3280.587828	42.600000
3281.687980	50.300000
3282.785038	48.800000
3283.881941	54.900000
3284.978689	57.200000
3286.070879	38.000000
3287.167317	42.000000
3288.262134	31.400000
3289.356795	46.600000
3290.449835	42.800000
3291.542721	28.000000
3292.633986	51.700000
3293.726564	30.400000
3294.817521	36.500000
3295.906859	32.400000
3296.996044	46.900000
3298.086542	38.700000
3299.173955	32.600000
3300.261216	46.200000
3301.349789	41.500000
3302.438209	41.100000
3303.522082	37.600000
3304.610197	35.000000
3305.695231	42.200000
3306.778648	52.200000
3307.863378	31.200000
3308.946493	41.600000
3310.030919	26.900000
3311.112267	45.000000
3312.194927	43.100000
3313.275973	28.500000
3314.356868	48.300000
3315.436150	40.100000
3316.515281	37.600000
3317.595723	43.500000
3318.673092	40.400000
3319.751771	47.800000
3320.828840	29.800000
3321.905758	37.900000
3322.981065	29.700000
3324.056223	34.000000
3325.132692	42.900000
3326.206091	30.400000
3327.279341	35.700000
3328.353902	33.400000
3329.426853	56.800000
3330.498197	44.700000
3331.570851	38.500000
3332.640438	64.100000
3333.711336	57.000000
3334.780627	47.100000
3335.851229	35.200000
3336.920224	40.900000
3337.987613	54.800000
3339.053397	55.300000
3340.123407	48.200000
3341.190354	25.900000
3342.254239	49.400000
3343.320892	36.700000
3344.385940	23.400000
3345.449385	58.800000
3346.512684	68.200000
3347.575836	47.100000
3348.638842	41.700000
3349.701702	49.200000
3350.762960	43.000000
3351.821161	41.800000
3352.883583	47.900000
3353.942948	32.900000
3355.002168	42.400000
3356.062698	34.800000
3357.118718	33.600000
3358.177503	61.900000
3359.231780	40.800000
3360.288820	34.200000
3361.344263	40.800000
3362.401014	40.200000
3363.456168	41.000000
3364.509724	40.400000
3365.561683	21.400000
3366.616404	50.200000
3367.668076	26.000000
3368.719605	39.500000
3369.772443	23.200000
3370.822233	58.400000
3371.873331	45.600000
3372.921384	43.700000
3373.972197	22.000000
3375.019964	34.600000
3376.067589	26.400000
3377.115071	24.200000
3378.160961	37.100000
3379.208159	47.800000
3380.252315	46.400000
3381.299229	47.000000
3382.344551	26.900000
3383.386833	29.500000
3384.428973	37.000000
3385.472421	16.300000
3386.515729	36.900000
3387.557446	61.700000
3388.599022	34.900000
3389.640458	41.500000
3390.680304	24.500000
3391.718563	33.600000
3392.758129	33.100000
3393.797554	42.300000
3394.835392	39.000000
3395.871643	43.400000
3396.907755	43.700000
3397.945174	51.100000
3398.979560	33.400000
3400.015253	25.500000
3401.050807	47.400000
3402.083330	31.300000
3403.118606	35.500000
3404.150851	26.600000
3405.182958	43.400000
3406.213481	29.800000
3407.245312	27.300000
3408.277003	30.100000
3409.305668	23.500000
3410.334194	42.200000
3411.364028	32.500000
3412.393723	40.500000
3413.420393	38.300000
3414.448370	24.800000
3415.473322	29.100000
3416.501024	30.300000
3417.525703	30.500000
3418.551688	46.600000
3419.576093	45.300000
3420.600362	45.400000
3421.623052	37.500000
3422.645606	27.700000
3423.669466	28.200000
3424.690306	26.800000
3425.711011	20.100000
3426.733021	29.900000
3427.752013	23.600000
3428.770870	32.600000
3429.791032	35.400000
3430.808178	26.200000
