-118.448435	1.900000
-115.778835	-5.000000
-113.112170	5.700000
-110.446257	19.400000
-107.783276	10.600000
-105.118866	2.800000
-102.457386	-3.000000
-99.794476	5.300000
-97.136674	-8.300000
-94.477441	-6.900000
-91.818958	-2.900000
-89.163398	15.300000
-86.506410	-5.100000
-83.854519	-0.300000
-81.201199	10.600000
-78.550799	7.500000
-75.898969	1.800000
-73.252230	-2.500000
-70.604061	-2.700000
-67.956636	17.100000
-65.312124	-17.100000
-62.666184	10.100000
-60.025325	-13.700000
-57.383037	11.900000
-54.743657	-1.100000
-52.102849	-4.200000
-49.462781	7.600000
-46.827785	-10.800000
-44.191360	-1.800000
-41.557839	15.000000
-38.922889	-3.700000
-36.293004	9.600000
-33.659527	-2.800000
-31.031112	24.700000
-28.403430	4.600000
-25.774321	23.100000
-23.150268	18.500000
-20.522626	29.100000
-17.900037	42.900000
-15.278180	55.600000
-12.657053	98.400000
-10.036656	239.400000
-7.419147	826.000000
-4.800210	2713.100000
-2.184159	6427.600000
0.431164	11831.900000
3.045760	8940.600000
5.657473	1320.800000
8.270615	127.700000
10.878723	51.400000
13.490413	46.000000
16.097072	28.100000
18.705159	14.500000
21.312522	27.500000
23.914860	16.200000
26.520776	12.900000
29.121670	13.000000
31.723992	18.400000
34.321297	2.400000
36.922177	5.400000
39.518043	7.200000
42.115336	11.800000
44.711910	20.100000
47.303475	-4.400000
49.896468	9.800000
52.486600	18.600000
55.078160	-0.400000
57.666860	-10.800000
60.256987	-2.500000
62.842116	7.700000
65.428671	7.200000
68.014513	2.500000
70.597501	2.800000
73.181915	-2.700000
75.759201	19.500000
78.340053	9.400000
80.918056	11.500000
83.495349	22.900000
86.074068	-0.100000
88.647806	5.500000
91.222970	1.700000
93.795291	5.100000
96.366904	-7.400000
98.935677	-5.700000
101.505877	-4.100000
104.073239	-4.500000
106.642026	-0.200000
109.207977	14.000000
111.771093	8.200000
114.337765	2.900000
116.895216	11.100000
119.458352	14.600000
122.016529	17.600000
124.578259	29.300000
127.135034	43.500000
129.693234	65.200000
132.246482	116.800000
134.799031	156.500000
137.355131	216.000000
139.906284	282.700000
142.456738	350.300000
145.006496	416.700000
147.553434	438.200000
150.099676	471.700000
152.647344	495.700000
155.194317	498.500000
157.736353	478.000000
160.277696	483.800000
162.818346	475.500000
165.360422	473.400000
167.899687	467.900000
170.436142	459.200000
172.971907	445.700000
175.509097	459.100000
178.045595	467.900000
180.579288	469.100000
183.110178	470.100000
185.640379	450.700000
188.172005	473.500000
190.700830	475.900000
193.226856	468.600000
195.752197	434.600000
198.278962	467.600000
200.802930	440.400000
203.326214	465.100000
205.848813	423.500000
208.368619	429.800000
210.887742	468.400000
213.406182	463.100000
215.926046	447.800000
218.438909	470.000000
220.955303	458.700000
223.471015	474.300000
225.981838	482.400000
228.494085	516.300000
231.003549	493.500000
233.512335	491.900000
236.020443	487.500000
238.529974	498.400000
241.034625	515.300000
243.538601	507.400000
246.044000	493.700000
248.544524	510.500000
251.048571	483.000000
253.545648	478.900000
256.046247	510.700000
258.544075	501.900000
261.041230	495.600000
263.537712	502.000000
266.029331	496.200000
268.524470	504.000000
271.016843	515.300000
273.508545	496.200000
275.997483	525.500000
278.487846	513.900000
280.975447	532.300000
283.460288	511.800000
285.948643	532.900000
288.430059	527.500000
290.914989	564.300000
293.395074	549.100000
295.878671	583.700000
298.357425	577.700000
300.837603	612.400000
303.315028	588.200000
305.791790	595.900000
308.267889	563.400000
310.741239	542.500000
313.213927	543.700000
315.685954	550.800000
318.157320	591.900000
320.625942	592.000000
323.093904	570.600000
325.563289	545.000000
328.027850	504.000000
330.495916	531.400000
332.959162	511.400000
335.421750	503.800000
337.883682	461.300000
340.344957	501.100000
342.803498	464.200000
345.263461	497.000000
347.720691	474.200000
350.177267	468.500000
352.633189	470.600000
355.086382	465.400000
357.540996	437.100000
359.990809	459.700000
362.444119	454.200000
364.892629	442.600000
367.340489	428.800000
369.789770	436.100000
372.234258	414.200000
374.680168	410.000000
377.125429	417.600000
379.567970	428.400000
382.009864	401.000000
384.451111	430.300000
386.889642	402.400000
389.329595	409.900000
391.766834	398.500000
394.201361	410.600000
396.639376	408.400000
399.072614	401.200000
401.507274	405.700000
403.937160	397.400000
406.370532	404.000000
408.799134	382.900000
411.227095	394.000000
413.656476	386.200000
416.081092	411.000000
418.507130	408.000000
420.932527	383.700000
423.357284	377.800000
425.777283	370.000000
428.198703	392.300000
430.617426	392.500000
433.037570	387.900000
435.455019	353.200000
437.873888	354.600000
440.290064	383.200000
442.701493	345.000000
445.116398	342.200000
447.528613	328.900000
449.940194	311.100000
452.351141	316.600000
454.759402	312.700000
457.167030	312.300000
459.574027	300.800000
461.980391	293.500000
464.384073	283.000000
466.787125	305.700000
469.189547	298.500000
471.591340	306.100000
473.990454	307.900000
476.390988	316.900000
478.790893	309.000000
481.186075	320.500000
483.584724	319.500000
485.978653	349.400000
488.371956	366.300000
490.764633	345.400000
493.156685	386.300000
495.550156	409.500000
497.938914	448.000000
500.325006	529.000000
502.712518	631.900000
505.099406	793.300000
507.483631	1116.600000
509.869275	1592.300000
512.252256	2253.600000
514.632577	3074.500000
517.014317	3768.900000
519.393398	3908.800000
521.773898	3561.200000
524.151740	2955.400000
526.526927	2394.000000
528.901496	1959.100000
531.277484	1641.100000
533.650818	1413.500000
536.025570	1256.800000
538.395637	1127.900000
540.765088	999.000000
543.135957	946.200000
545.502146	849.500000
547.869753	802.900000
550.234714	742.200000
552.599062	708.400000
554.962798	666.800000
557.327951	660.800000
559.688431	639.400000
562.050330	605.900000
564.409589	557.900000
566.766209	554.600000
569.126274	561.600000
571.479649	520.900000
573.836468	539.300000
576.190651	501.800000
578.544227	468.000000
580.897194	480.800000
583.247530	457.700000
585.599282	438.200000
587.944358	443.500000
590.294898	434.500000
592.638765	426.300000
594.988092	432.300000
597.332772	420.400000
599.674826	401.800000
602.018298	405.400000
604.359147	390.400000
606.699394	400.700000
609.037020	428.100000
611.378081	405.400000
613.714504	431.200000
616.052345	462.500000
618.387567	464.700000
620.720174	467.900000
623.054197	442.300000
625.385607	408.500000
627.716418	398.300000
630.046631	377.100000
632.376246	360.600000
634.701239	393.300000
637.031673	360.100000
639.357485	357.700000
641.680691	381.300000
644.005312	375.700000
646.327329	370.700000
648.648751	352.700000
650.967570	368.200000
653.287805	340.700000
655.607447	370.100000
657.924488	344.900000
660.240937	347.400000
662.554788	361.400000
664.870055	369.400000
667.182725	331.400000
669.496810	332.600000
671.806295	351.500000
674.117196	355.300000
676.425504	355.200000
678.733224	338.900000
681.042359	341.000000
683.346901	317.800000
685.650856	337.800000
687.954226	347.700000
690.259010	315.900000
692.559208	298.700000
694.860820	319.000000
697.161848	303.300000
699.458293	307.600000
701.756154	302.800000
704.053431	296.800000
706.350125	276.300000
708.642243	282.700000
710.937772	294.200000
713.228728	312.100000
715.521098	283.600000
717.810892	268.000000
720.100107	281.300000
722.388741	251.500000
724.674804	293.600000
726.962280	266.600000
729.247186	302.300000
731.531513	297.100000
733.813272	287.100000
736.096445	267.100000
738.379041	275.800000
740.657082	277.500000
742.936536	270.000000
745.215415	286.500000
747.493718	293.500000
749.767472	269.500000
752.042640	256.500000
754.317234	271.700000
756.589268	263.800000
758.862716	270.300000
761.133606	262.500000
763.401940	271.200000
765.671687	263.200000
767.938880	259.000000
770.205502	253.300000
772.471555	273.300000
774.735055	278.900000
776.999969	263.500000
779.264313	269.700000
781.524128	245.300000
783.785356	269.000000
786.046015	269.200000
788.304129	277.800000
790.559698	257.000000
792.818658	262.200000
795.071119	261.100000
797.328947	263.300000
799.582255	257.300000
801.833024	270.300000
804.085205	253.600000
806.334848	261.200000
808.585902	256.200000
810.832445	269.500000
813.080400	300.400000
815.325821	263.200000
817.572653	250.500000
819.818924	269.800000
822.060691	266.700000
824.305840	246.000000
826.544517	257.800000
828.786577	254.100000
831.024138	256.400000
833.263110	259.400000
835.499556	250.500000
837.737413	262.000000
839.972745	240.800000
842.205554	241.700000
844.439774	251.300000
846.671472	265.000000
848.902615	245.300000
851.133203	247.300000
853.363236	238.900000
855.592716	227.600000
857.817714	232.100000
860.046087	251.400000
862.269981	235.200000
864.495285	232.900000
866.716114	234.200000
868.940315	249.100000
871.160043	232.100000
873.381182	241.000000
875.601770	231.200000
877.819848	243.100000
880.039337	255.000000
882.254359	250.500000
884.468833	246.000000
886.682760	252.700000
888.896139	254.800000
891.108971	241.700000
893.321257	233.900000
895.531040	247.500000
897.740278	257.600000
899.948971	249.500000
902.155165	253.300000
904.362768	247.200000
906.567874	254.000000
908.772436	260.800000
910.974502	255.200000
913.177978	263.700000
915.378960	273.800000
917.579401	252.000000
919.781249	267.000000
921.976707	276.900000
924.175524	294.100000
926.369902	335.300000
928.567638	347.600000
930.760938	393.800000
932.955647	432.700000
935.147870	459.200000
937.339555	508.300000
939.530702	537.400000
941.719366	544.200000
943.907493	533.600000
946.093140	555.300000
948.282139	538.300000
950.466715	556.000000
952.650756	542.500000
954.838147	536.300000
957.017234	543.000000
959.199672	551.000000
961.381576	572.000000
963.561006	571.400000
965.737963	572.100000
967.916327	580.700000
970.096099	569.400000
972.269522	571.500000
974.446291	570.000000
976.618653	560.300000
978.792423	575.800000
980.961789	568.000000
983.134500	544.300000
985.304744	516.500000
987.474460	487.400000
989.643647	440.600000
991.808437	408.000000
993.976568	371.300000
996.140305	378.600000
998.305448	344.800000
1000.468133	351.300000
1002.630291	343.600000
1004.789993	333.300000
1006.949171	324.100000
1009.109755	314.200000
1011.267884	298.000000
1013.425489	298.600000
1015.582571	301.500000
1017.739130	266.700000
1019.891309	276.600000
1022.044894	269.200000
1024.197958	245.900000
1026.348574	283.400000
1028.500595	257.200000
1030.648243	278.100000
1032.799223	255.300000
1034.945832	261.100000
1037.091923	249.700000
1039.237494	246.200000
1041.384471	245.700000
1043.525159	236.900000
1045.669177	241.000000
1047.810754	274.900000
1049.951815	258.400000
1052.094280	250.200000
1054.230466	250.800000
1056.369978	258.300000
1058.505134	250.900000
1060.643615	237.400000
1062.777742	251.100000
1064.911356	241.800000
1067.046375	249.000000
1069.177044	249.000000
1071.309118	245.400000
1073.438763	235.100000
1075.567896	247.400000
1077.696517	222.700000
1079.824627	224.500000
1081.950311	237.800000
1084.075485	225.600000
1086.202063	231.600000
1088.324304	230.000000
1090.447948	237.900000
1092.567259	232.600000
1094.691798	242.300000
1096.810092	214.100000
1098.929791	226.500000
1101.047071	216.900000
1103.163845	231.200000
1105.280112	223.300000
1107.393964	219.700000
1109.509219	222.200000
1111.620152	231.400000
1113.734396	202.400000
1115.844320	202.800000
1117.955648	222.200000
1120.066471	234.200000
1122.172979	216.800000
1124.282795	211.200000
1126.388297	221.400000
1128.495202	204.300000
1130.595892	216.300000
1132.701794	208.600000
1134.803387	225.400000
1136.906383	217.800000
1139.008878	206.600000
1141.105166	209.800000
1143.206662	230.000000
1145.303855	221.600000
1147.400549	202.400000
1149.496745	186.600000
1151.592444	213.400000
1153.687645	227.900000
1155.780449	219.600000
1157.874655	188.600000
1159.962670	202.300000
1162.055883	207.700000
1164.142908	229.400000
1166.233232	211.900000
1168.319269	200.600000
1170.408603	208.900000
1172.491756	211.400000
1174.576311	213.600000
1176.662268	201.300000
1178.743943	208.500000
1180.827020	197.300000
1182.907711	226.400000
1184.987910	196.000000
1187.067618	229.900000
1189.146835	221.400000
1191.223670	210.500000
1193.298124	201.600000
1195.375870	209.900000
1197.449345	213.000000
1199.524221	199.200000
1201.594830	199.600000
1203.666841	211.900000
1205.736475	187.400000
1207.807510	204.200000
1209.878057	173.200000
1211.944343	218.300000
1214.012030	199.300000
1216.077345	213.200000
1218.144060	181.700000
1220.206519	200.700000
1222.272263	191.600000
1224.333754	212.200000
1226.396644	189.500000
1228.457167	195.200000
1230.517206	196.700000
1232.576763	198.100000
1234.633954	196.600000
1236.690664	200.400000
1238.745011	214.300000
1240.802638	203.000000
1242.857903	224.900000
1244.908927	205.300000
1246.961351	191.300000
1249.013295	205.800000
1251.062881	222.800000
1253.111988	199.300000
1255.160617	201.500000
1257.208767	235.400000
1259.256439	202.500000
1261.299880	205.900000
1263.346596	219.000000
1265.390959	221.100000
1267.434846	204.800000
1269.476382	201.000000
1271.515567	205.400000
1273.558026	218.100000
1275.596262	225.500000
1277.635897	220.700000
1279.675057	218.600000
1281.709998	232.400000
1283.746339	189.000000
1285.780334	208.100000
1287.815728	193.300000
1289.846908	203.900000
1291.879487	218.500000
1293.911593	236.200000
1295.941359	210.300000
1297.972523	212.700000
1299.999479	220.300000
1302.027833	220.500000
1304.051983	215.800000
1306.079397	228.900000
1308.102609	212.000000
1310.127219	224.700000
1312.149495	215.700000
1314.173168	206.700000
1316.194508	203.500000
1318.215380	198.600000
1320.235786	211.500000
1322.251997	223.000000
1324.269606	191.100000
1326.284888	204.600000
1328.303427	213.900000
1330.317778	229.800000
1332.329803	208.300000
1334.345085	214.200000
1336.356182	226.400000
1338.368676	205.800000
1340.376987	226.400000
1342.388554	212.100000
1344.394081	221.700000
1346.402864	220.500000
1348.407469	222.700000
1350.415328	221.700000
1352.422725	206.300000
1354.424091	217.200000
1356.426854	192.200000
1358.429156	222.000000
1360.430999	225.200000
1362.432382	219.600000
1364.431452	207.200000
1366.430063	209.800000
1368.428216	212.700000
1370.425911	202.200000
1372.419442	212.700000
1374.414370	195.000000
1376.408841	207.900000
1378.402855	200.600000
1380.394561	219.000000
1382.385813	214.800000
1384.374759	192.200000
1386.365100	206.200000
1388.354986	194.700000
1390.342569	220.600000
1392.329697	203.600000
1394.314525	192.700000
1396.300746	213.800000
1398.284668	198.600000
1400.268137	190.900000
1402.251154	198.400000
1404.231872	210.000000
1406.213986	201.700000
1408.193802	206.000000
1410.173168	203.900000
1412.148394	205.500000
1414.126860	201.900000
1416.103031	183.700000
1418.078754	203.600000
1420.054027	189.900000
1422.027009	187.600000
1423.999543	196.800000
1425.971630	200.400000
1427.943268	212.200000
1429.910778	186.900000
1431.883363	194.700000
1433.848141	214.300000
1435.817991	178.600000
1437.783718	199.500000
1439.750837	212.000000
1441.715673	210.700000
1443.676390	191.600000
1445.642174	198.500000
1447.602003	205.400000
1449.563225	213.300000
1451.525840	201.800000
1453.484340	202.200000
1455.442398	220.200000
1457.400013	196.400000
1459.357187	217.800000
1461.312085	227.400000
1463.268375	209.600000
1465.222391	216.600000
1467.175967	211.400000
1469.127270	210.200000
1471.079965	198.200000
1473.030389	196.600000
1474.980373	213.100000
1476.929919	191.800000
1478.877196	182.700000
1480.822206	189.900000
1482.768607	196.500000
1484.714572	200.600000
1486.660098	188.100000
1488.603360	186.400000
1490.546185	209.900000
1492.486747	178.400000
1494.428700	183.500000
1496.368392	208.100000
1498.307648	191.500000
1500.246469	195.700000
1502.183031	207.200000
1504.120984	220.300000
1506.056679	199.200000
1507.991939	208.900000
1509.924944	214.000000
1511.857516	202.300000
1513.789656	214.000000
1515.721364	193.500000
1517.650818	209.100000
1519.581663	206.500000
1521.512077	227.300000
1523.438417	210.100000
1525.366149	197.300000
1527.291630	220.000000
1529.216682	234.800000
1531.141305	232.400000
1533.065499	236.100000
1534.987446	240.400000
1536.910782	233.700000
1538.831873	239.700000
1540.750719	237.300000
1542.670955	243.900000
1544.588947	245.100000
1546.506513	251.300000
1548.421837	251.100000
1550.338551	259.200000
1552.251210	284.300000
1554.167073	304.600000
1556.080696	280.500000
1557.992082	312.400000
1559.904856	299.400000
1561.813581	329.000000
1563.723696	344.000000
1565.633387	386.100000
1567.542654	405.600000
1569.449688	469.000000
1571.354489	539.100000
1573.260679	570.600000
1575.164637	667.500000
1577.068175	744.100000
1578.971291	807.900000
1580.872179	866.700000
1582.774454	830.100000
1584.674502	807.900000
1586.575937	764.400000
1588.473339	716.500000
1590.370322	627.000000
1592.266887	562.200000
1594.164840	489.600000
1596.056958	464.600000
1597.952269	420.300000
1599.847163	387.400000
1601.739835	328.600000
1603.632091	336.400000
1605.522126	317.400000
1607.411747	286.600000
1609.300951	269.800000
1611.189741	288.100000
1613.076314	266.800000
1614.964273	259.900000
1616.848216	253.500000
1618.733547	275.100000
1620.618463	263.500000
1622.501166	236.900000
1624.385256	243.400000
1626.265335	226.700000
1628.146800	219.900000
1630.026055	218.700000
1631.906696	204.100000
1633.781533	203.900000
1635.661352	195.100000
1637.537165	204.500000
1639.412568	194.500000
1641.289358	192.100000
1643.160350	196.400000
1645.034524	190.400000
1646.904700	170.000000
1648.778056	166.300000
1650.649209	169.600000
1652.518160	178.000000
1654.388497	174.800000
1656.254840	174.000000
1658.122569	164.600000
1659.988100	163.600000
1661.855015	181.000000
1663.717942	165.100000
1665.582254	162.300000
1667.444370	153.700000
1669.306082	144.600000
1671.169178	162.000000
1673.030080	146.400000
1674.888788	183.700000
1676.747093	148.800000
1678.606783	152.100000
1680.460706	160.200000
1682.317801	156.500000
1684.174494	148.100000
1686.027211	159.400000
1687.883098	147.700000
1689.735012	142.200000
1691.586525	148.400000
1693.437637	156.500000
1695.288349	140.100000
1697.138660	135.300000
1698.986787	140.000000
1700.836297	147.500000
1702.680059	145.800000
1704.528770	155.000000
1706.371736	150.500000
1708.217867	182.600000
1710.060037	120.300000
1711.905371	172.200000
1713.744965	143.100000
1715.585943	145.200000
1717.428304	152.800000
1719.266709	132.800000
1721.106497	143.100000
1722.944110	153.200000
1724.781327	142.400000
1726.616371	138.100000
1728.452798	143.200000
1730.287053	133.800000
1732.120913	139.400000
1733.954380	144.900000
1735.783900	137.300000
1737.616579	142.600000
1739.445314	144.100000
1741.277207	140.500000
1743.105157	147.100000
1744.932715	128.700000
1746.759881	122.000000
1748.586656	156.700000
1750.413040	123.500000
1752.235487	138.400000
1754.061088	135.500000
1755.882755	147.200000
1757.705804	130.200000
1759.526692	133.200000
1761.347190	142.300000
1763.169070	156.500000
1764.985250	147.600000
1766.804582	144.900000
1768.619987	139.000000
1770.438542	142.300000
1772.253172	121.500000
1774.067416	138.600000
1775.881272	135.700000
1777.694742	135.900000
1779.506059	141.400000
1781.318757	128.500000
1783.131068	114.300000
1784.939462	125.900000
1786.749237	124.100000
1788.555096	129.900000
1790.364101	128.400000
1792.169193	137.900000
1793.975666	127.000000
1795.781755	140.400000
1797.583934	129.800000
1799.389256	129.200000
1801.190670	135.100000
1802.993464	158.200000
1804.792352	120.000000
1806.592621	124.900000
1808.392508	126.900000
1810.190254	141.600000
1811.987618	135.000000
1813.784603	140.700000
1815.581207	112.200000
1817.375672	150.100000
1819.171516	122.400000
1820.961706	122.100000
1822.756792	145.200000
1824.546225	140.000000
1826.338795	133.800000
1828.129230	146.700000
1829.917531	114.100000
1831.708967	130.100000
1833.494757	146.900000
1835.281927	150.100000
1837.066965	133.300000
1838.855137	127.100000
1840.639423	136.300000
1842.421580	143.900000
1844.205115	144.200000
1845.986522	156.700000
1847.769308	155.100000
1849.548214	154.300000
1851.328498	148.700000
1853.106656	143.500000
1854.886193	140.000000
1856.663605	144.800000
1858.438893	156.700000
1860.215560	145.200000
1861.990103	138.900000
1863.766025	150.700000
1865.536326	144.100000
1867.309755	129.600000
1869.081064	139.300000
1870.852003	133.800000
1872.624318	156.800000
1874.391020	137.900000
1876.160848	146.600000
1877.926812	155.900000
1879.695900	146.400000
1881.461126	142.500000
1883.225983	134.500000
1884.992218	142.300000
1886.754594	149.600000
1888.516603	154.800000
1890.278244	132.600000
1892.039519	153.900000
1893.800426	139.700000
1895.560967	140.000000
1897.319398	147.000000
1899.077464	127.700000
1900.833421	136.500000
1902.590756	122.100000
1904.347724	123.300000
1906.102587	110.400000
1907.855344	133.800000
1909.607738	120.800000
1911.361507	137.200000
1913.113173	120.500000
1914.862737	102.600000
1916.613677	127.800000
1918.364253	121.100000
1920.110990	124.600000
1921.859104	135.600000
1923.605118	122.200000
1925.352508	134.300000
1927.097799	122.200000
1928.840993	128.700000
1930.585563	115.600000
1932.328036	121.300000
1934.070149	140.900000
1935.811902	139.300000
1937.553296	118.500000
1939.292596	126.500000
1941.031536	130.000000
1942.770119	116.800000
1944.506609	134.000000
1946.242742	133.800000
1947.980249	133.600000
1949.713934	130.800000
1951.448994	121.600000
1953.181966	124.600000
1954.914581	138.100000
1956.646839	119.600000
1958.378741	129.900000
1960.108557	124.600000
1961.836289	133.200000
1963.565394	120.100000
1965.294145	133.500000
1967.020812	124.700000
1968.747125	128.800000
1970.474811	129.500000
1972.196961	134.700000
1973.922212	123.100000
1975.643657	141.900000
1977.368201	115.800000
1979.090666	124.000000
1980.809327	139.500000
1982.531087	130.200000
1984.249045	114.700000
1985.968376	138.500000
1987.683908	126.400000
1989.404261	121.200000
1991.120814	133.800000
1992.833571	131.200000
1994.549425	132.600000
1996.263205	121.000000
1997.976636	120.500000
1999.687996	125.300000
2001.400729	128.400000
2003.109670	120.600000
2004.821705	119.500000
2006.528230	137.200000
2008.237848	108.800000
2009.945398	143.300000
2011.652601	122.500000
2013.357738	119.900000
2015.062528	131.100000
2016.768690	130.800000
2018.471070	116.600000
2020.174822	130.700000
2021.876510	130.300000
2023.577854	137.300000
2025.278852	113.000000
2026.977790	135.400000
2028.678098	122.100000
2030.374632	128.300000
2032.072537	140.000000
2033.768383	129.900000
2035.467315	125.100000
2037.160761	118.600000
2038.855579	118.800000
2040.550053	134.000000
2042.240759	130.000000
2043.934549	137.500000
2045.624572	107.400000
2047.315966	126.500000
2049.005307	137.300000
2050.696018	124.200000
2052.382966	125.600000
2054.069575	135.200000
2055.757554	119.700000
2057.441773	127.500000
2059.127362	105.100000
2060.812612	130.000000
2062.495814	120.700000
2064.180385	128.000000
2065.859494	122.600000
2067.543388	127.200000
2069.221822	124.000000
2070.903332	119.100000
2072.581092	106.800000
2074.258514	121.500000
2075.937306	116.100000
2077.614056	131.600000
2079.288764	127.400000
2080.964841	124.000000
2082.638878	136.000000
2084.312579	122.400000
2085.985945	122.400000
2087.657273	119.700000
2089.328266	105.700000
2090.998925	138.800000
2092.669249	127.100000
2094.339240	133.000000
2096.007195	126.500000
2097.674817	123.200000
2099.340404	120.800000
2101.007361	117.200000
2102.672283	116.600000
2104.336874	134.000000
2105.999433	126.600000
2107.663360	137.800000
2109.325257	120.200000
2110.986822	131.800000
2112.648056	107.800000
2114.307262	142.300000
2115.966137	131.100000
2117.624683	126.800000
2119.282899	114.600000
2120.937391	120.700000
2122.594948	114.000000
2124.252176	110.200000
2125.905682	98.300000
2127.560556	117.100000
2129.211712	102.000000
2130.865929	116.000000
2132.516430	120.900000
2134.168297	113.200000
2135.814756	111.200000
2137.465970	117.000000
2139.113470	121.400000
2140.762337	115.700000
2142.409186	123.800000
2144.055708	140.100000
2145.701905	111.000000
2147.344394	116.500000
2148.989941	123.000000
2150.631781	113.600000
2152.276678	94.900000
2153.917870	123.500000
2155.558738	102.700000
2157.199282	133.100000
2158.837814	113.400000
2160.477712	113.300000
2162.113910	115.000000
2163.751475	115.800000
2165.388716	111.000000
2167.023948	119.400000
2168.658859	122.600000
2170.293448	116.700000
2171.927715	118.400000
2173.558289	113.400000
2175.191915	123.000000
2176.821849	120.200000
2178.453148	100.400000
2180.082442	140.800000
2181.711417	124.500000
2183.340073	119.400000
2184.968409	105.900000
2186.594742	138.300000
2188.220757	124.800000
2189.844771	123.400000
2191.470149	116.700000
2193.093528	125.700000
2194.718270	127.500000
2196.339332	126.700000
2197.960077	118.900000
2199.582187	137.300000
2201.202299	120.700000
2202.820414	128.100000
2204.438214	123.600000
2206.055699	127.800000
2207.672868	127.200000
2209.289722	125.700000
2210.906261	130.900000
2212.520806	138.500000
2214.133359	115.600000
2215.747276	117.700000
2217.359202	125.500000
2218.972491	110.300000
2220.583790	111.700000
2222.193099	118.900000
2223.803772	110.000000
2225.412456	119.400000
2227.020828	124.200000
2228.627212	113.000000
2230.234960	114.500000
2231.840721	109.100000
2233.446171	116.800000
2235.049636	122.100000
2236.654464	107.400000
2238.257309	104.500000
2239.858170	107.300000
2241.460393	134.200000
2243.060635	107.700000
2244.662239	112.800000
2246.260191	113.900000
2247.859505	121.000000
2249.456839	123.100000
2251.053864	111.500000
2252.652252	124.200000
2254.246991	130.000000
2255.839753	122.800000
2257.433878	123.500000
2259.029364	112.700000
2260.621206	130.000000
2262.212741	127.500000
2263.805637	128.500000
2265.393224	127.100000
2266.985508	131.600000
2268.572484	114.800000
2270.162489	111.900000
2271.747189	126.500000
2273.336583	121.600000
2274.920674	126.000000
2276.506127	120.300000
2278.089610	111.200000
2279.676120	125.800000
2281.258996	135.500000
2282.841568	126.400000
2284.423837	118.300000
2286.002477	127.900000
2287.584140	113.400000
2289.162175	123.000000
2290.743233	131.700000
2292.320665	127.900000
2293.896132	124.100000
2295.474622	122.900000
2297.049488	114.000000
2298.624053	103.900000
2300.198318	120.700000
2301.772282	122.600000
2303.345946	128.300000
2304.919309	111.300000
2306.489054	104.900000
2308.058500	117.700000
2309.630965	105.700000
2311.198154	109.500000
2312.768362	102.600000
2314.334955	120.500000
2315.902908	120.600000
2317.468905	118.500000
2319.034605	112.900000
2320.600008	122.100000
2322.163456	119.200000
2323.728264	116.200000
2325.289464	121.400000
2326.853678	134.500000
2328.412631	111.300000
2329.974597	130.700000
2331.534613	134.800000
2333.094333	121.300000
2334.652104	123.000000
2336.209580	104.500000
2337.766762	123.200000
2339.321997	117.500000
2340.876937	110.500000
2342.431584	123.500000
2343.985937	101.200000
2345.539996	123.300000
2347.093761	114.500000
2348.645583	120.500000
2350.195461	114.500000
2351.748347	115.600000
2353.295991	128.400000
2354.846642	115.800000
2356.393702	106.700000
2357.942121	122.800000
2359.490247	103.900000
2361.034785	105.000000
2362.580681	105.100000
2364.124639	116.400000
2365.669954	126.100000
2367.211684	117.700000
2368.754771	115.100000
2370.295923	121.600000
2371.836785	91.500000
2373.377358	131.600000
2374.917641	108.000000
2376.457636	91.200000
2377.994053	110.300000
2379.533471	94.700000
2381.069312	103.800000
2382.606509	130.400000
2384.140131	114.000000
2385.676754	122.400000
2387.211445	106.700000
2388.744207	127.000000
2390.276682	111.900000
2391.807230	113.700000
2393.340775	119.500000
2394.869109	109.000000
2396.398799	127.300000
2397.928204	111.800000
2399.457323	128.100000
2400.986158	107.900000
2402.509787	93.100000
2404.038053	117.600000
2405.561115	131.600000
2407.088811	123.000000
2408.609668	115.400000
2410.135158	109.400000
2411.657087	125.100000
2413.180372	118.600000
2414.701736	132.000000
2416.221180	132.600000
2417.741979	111.900000
2419.260859	125.300000
2420.779457	117.500000
2422.296138	133.500000
2423.814173	118.500000
2425.331927	141.900000
2426.846130	118.900000
2428.360052	132.400000
2429.873694	125.600000
2431.388691	130.200000
2432.900139	121.900000
2434.412942	143.300000
2435.923832	139.100000
2437.434442	148.400000
2438.943141	137.300000
2440.454827	144.600000
2441.962968	139.800000
2443.470832	148.100000
2444.978418	145.500000
2446.482463	151.900000
2447.989494	140.200000
2449.494616	178.000000
2450.999461	156.100000
2452.502399	176.000000
2454.005060	155.900000
2455.507445	168.900000
2457.007925	160.600000
2458.509758	164.300000
2460.009687	164.000000
2461.509340	154.600000
2463.008717	155.500000
2464.506192	166.600000
2466.001765	180.100000
2467.500319	150.000000
2468.995343	134.700000
2470.491721	156.200000
2471.984571	155.200000
2473.478775	148.600000
2474.972705	152.000000
2476.463112	145.900000
2477.956495	132.300000
2479.447981	133.600000
2480.937570	127.100000
2482.426887	117.000000
2483.914309	137.600000
2485.404706	130.300000
2486.891584	142.900000
2488.379814	148.900000
2489.864528	146.600000
2491.348971	137.900000
2492.834766	129.300000
2494.318668	134.300000
2495.803922	143.400000
2497.284042	112.500000
2498.767134	119.500000
2500.248336	119.000000
2501.729269	109.900000
2503.208313	135.200000
2504.687088	139.200000
2506.165595	135.400000
2507.643834	137.600000
2509.121804	127.200000
2510.596270	145.100000
2512.073704	108.500000
2513.547635	118.200000
2515.022916	112.600000
2516.497931	127.200000
2517.969444	129.500000
2519.442307	151.300000
2520.913288	118.000000
2522.385619	117.900000
2523.852837	135.100000
2525.323020	105.800000
2526.791323	134.000000
2528.259361	111.900000
2529.727134	109.900000
2531.194642	124.800000
2532.661885	123.900000
2534.125636	113.400000
2535.590737	118.400000
2537.053961	124.200000
2538.518535	110.800000
2539.979619	102.600000
2541.442053	134.100000
2542.904224	111.100000
2544.362909	128.400000
2545.826166	121.600000
2547.284326	116.600000
2548.743835	124.700000
2550.198251	123.200000
2551.657236	109.900000
2553.114350	118.900000
2554.569593	126.200000
2556.024575	122.900000
2557.477687	127.000000
2558.932148	121.600000
2560.384740	138.200000
2561.837072	127.200000
2563.287536	109.200000
2564.740956	125.500000
2566.189294	131.900000
2567.640588	131.700000
2569.090015	123.300000
2570.535970	124.900000
2571.984881	123.400000
2573.430320	139.000000
2574.877108	122.700000
2576.322032	112.100000
2577.766699	143.900000
2579.212713	138.200000
2580.655260	126.500000
2582.099155	134.500000
2583.539585	110.700000
2584.981362	136.900000
2586.421280	135.000000
2587.862545	129.500000
2589.300349	124.700000
2590.741102	135.500000
2592.176792	125.300000
2593.615432	126.300000
2595.052215	114.400000
2596.487141	132.800000
2597.925016	114.300000
2599.357832	124.400000
2600.791996	126.200000
2602.224306	132.100000
2603.657962	140.300000
2605.089765	141.200000
2606.521315	137.800000
2607.952611	136.000000
2609.382055	133.100000
2610.811248	150.600000
2612.238589	151.000000
2613.667277	145.300000
2615.095712	170.100000
2616.520700	137.300000
2617.947035	138.900000
2619.371521	154.900000
2620.797353	147.200000
2622.219741	156.200000
2623.643475	149.000000
2625.065362	174.900000
2626.487000	158.900000
2627.906792	172.600000
2629.327930	175.800000
2630.748818	161.700000
2632.166268	182.800000
2633.586657	186.300000
2635.003609	183.300000
2636.420313	209.100000
2637.836768	198.300000
2639.252975	224.400000
2640.668933	225.300000
2642.083051	221.700000
2643.496922	244.800000
2644.908953	236.500000
2646.322329	262.300000
2647.732275	265.400000
2649.145156	278.200000
2650.554610	277.500000
2651.963817	325.100000
2653.371187	337.800000
2654.781493	358.300000
2656.189962	369.600000
2657.596596	410.300000
2659.002985	418.700000
2660.407540	447.500000
2661.813439	454.300000
2663.217505	507.000000
2664.621326	543.200000
2666.024904	571.000000
2667.426649	606.200000
2668.829738	630.600000
2670.229409	690.400000
2671.630424	722.400000
2673.028023	783.500000
2674.428552	816.400000
2675.825666	849.900000
2677.224123	903.000000
2678.620752	894.700000
2680.017139	934.700000
2681.413285	931.700000
2682.807604	964.700000
2684.203266	928.500000
2685.595518	918.400000
2686.989114	914.000000
2688.380885	910.700000
2689.773998	857.300000
2691.165288	818.900000
2692.554755	821.500000
2693.943982	740.100000
2695.332970	748.000000
2696.723300	726.300000
2698.108645	669.100000
2699.496914	624.400000
2700.883363	623.300000
2702.269573	579.600000
2703.655545	574.000000
2705.038117	528.000000
2706.422032	523.800000
2707.805709	479.900000
2709.189148	465.200000
2710.569191	428.400000
2711.950576	412.200000
2713.330145	362.400000
2714.711056	372.900000
2716.090151	325.500000
2717.467433	337.200000
2718.846056	311.200000
2720.222866	300.200000
2721.599440	294.100000
2722.975778	263.100000
2724.350304	244.200000
2725.726171	241.000000
2727.098651	239.800000
2728.474047	246.300000
2729.844483	216.000000
2731.216260	212.500000
2732.587802	217.300000
2733.957536	189.700000
2735.328611	186.300000
2736.697877	183.900000
2738.066911	170.500000
2739.434137	189.100000
2740.801131	144.000000
2742.167892	172.000000
2743.534420	162.000000
2744.899143	165.000000
2746.263635	168.100000
2747.627894	160.500000
2748.991921	156.500000
2750.355717	149.200000
2751.716139	147.500000
2753.079472	143.200000
2754.437862	138.800000
2755.799162	142.000000
2757.157091	141.700000
2758.517930	121.200000
2759.876968	135.000000
2761.232638	136.400000
2762.591216	131.200000
2763.946428	127.200000
2765.301410	138.800000
2766.654595	120.300000
2768.010687	119.600000
2769.363415	102.900000
2770.715914	129.100000
2772.068185	132.800000
2773.421795	116.500000
2774.772043	130.100000
2776.120498	124.500000
2777.471857	129.000000
2778.819857	122.500000
2780.169196	97.600000
2781.516742	115.600000
2782.864061	115.600000
2784.211154	113.000000
2785.556456	127.800000
2786.901532	120.500000
2788.246382	115.900000
2789.591005	117.400000
2790.932277	120.800000
2792.274887	104.800000
2793.617271	112.900000
2794.959431	118.200000
2796.298241	114.000000
2797.639950	120.400000
2798.978312	110.000000
2800.318011	111.400000
2801.655924	111.300000
2802.992053	118.600000
2804.327958	109.300000
2805.665201	99.300000
2807.000660	114.600000
2808.335896	97.200000
2809.669349	96.800000
2811.004140	122.200000
2812.335589	113.000000
2813.669934	105.200000
2814.999381	123.900000
2816.330165	119.300000
2817.660727	128.000000
2818.989510	107.600000
2820.319629	122.600000
2821.647970	116.700000
2822.976090	114.400000
2824.302432	98.400000
2825.630111	96.100000
2826.954457	113.100000
2828.280138	97.300000
2829.604044	98.600000
2830.927731	106.200000
2832.252753	106.000000
2833.574445	100.400000
2834.895919	86.400000
2836.217174	119.900000
2837.538210	91.100000
2838.857474	108.200000
2840.178073	108.800000
2841.496900	110.100000
2842.815509	92.000000
2844.132347	87.000000
2845.448968	106.700000
2846.765372	89.300000
2848.080007	101.100000
2849.395976	106.000000
2850.708625	92.300000
2852.022610	112.300000
2853.336377	79.200000
2854.649929	98.300000
2855.961713	84.900000
2857.271731	91.000000
2858.583084	91.300000
2859.891122	99.200000
2861.200495	80.700000
2862.509652	101.300000
2863.818594	101.800000
2865.125773	101.600000
2866.431188	98.500000
2867.737938	101.500000
2869.042925	102.700000
2870.347699	101.700000
2871.650711	84.000000
2872.956605	93.700000
2874.257643	104.400000
2875.560016	93.800000
2876.860629	80.900000
2878.162576	104.000000
2879.464310	86.600000
2880.762739	116.500000
2882.062503	88.600000
2883.360508	91.100000
2884.658302	90.800000
2885.954340	99.100000
2887.251711	90.000000
2888.547326	101.200000
2889.842730	100.900000
2891.137924	100.500000
2892.429819	99.400000
2893.724591	104.800000
2895.016066	105.400000
2896.308874	106.600000
2897.601472	81.100000
2898.890776	112.300000
2900.181412	88.900000
2901.470297	81.900000
2902.760515	104.700000
2904.047440	114.300000
2905.335699	91.000000
2906.622207	85.300000
2907.908508	81.200000
2909.194600	94.700000
2910.478944	98.200000
2911.766160	75.200000
2913.048548	105.700000
2914.332269	90.600000
2915.614244	99.500000
2916.896012	92.300000
2918.176034	93.800000
2919.458926	112.400000
2920.740073	87.200000
2922.017938	105.200000
2923.298672	81.900000
2924.576125	101.700000
2925.853372	84.900000
2927.128878	95.600000
2928.407251	72.300000
2929.680809	91.100000
2930.957235	95.800000
2932.231920	102.300000
2933.504865	101.300000
2934.779140	94.500000
2936.051676	106.100000
2937.324008	101.000000
2938.593066	86.100000
2939.864990	84.100000
2941.135176	91.400000
2942.405159	97.100000
2943.674938	87.300000
2944.942980	72.700000
2946.209287	70.800000
2947.475391	85.800000
2948.742825	96.700000
2950.008525	78.700000
2951.274022	89.300000
2952.539317	96.800000
2953.801347	67.700000
2955.064708	90.000000
2956.327866	75.200000
2957.589293	86.900000
2958.852049	93.200000
2960.113074	87.300000
2961.372367	72.800000
2962.631461	96.600000
2963.890354	71.400000
2965.149047	87.400000
2966.407540	80.800000
2967.664304	89.100000
2968.920868	80.000000
2970.175705	92.900000
2971.431871	82.800000
2972.684781	74.400000
2973.939021	69.500000
2975.193062	90.600000
2976.445377	78.600000
2977.697494	80.200000
2978.947886	99.900000
2980.201133	73.600000
2981.449603	92.600000
2982.700927	87.800000
2983.949003	69.200000
2985.196881	90.300000
2986.444562	88.200000
2987.692047	80.400000
2988.937810	75.500000
2990.183376	81.100000
2991.430270	85.100000
2992.673920	79.500000
2993.918898	91.200000
2995.160633	83.200000
2996.405218	80.600000
2997.648085	74.400000
2998.887711	84.300000
3000.130187	107.300000
3001.369424	69.200000
3002.609988	91.500000
3003.848835	83.600000
3005.087488	86.600000
3006.324425	81.500000
3007.562689	91.100000
3008.799239	82.000000
3010.035594	75.800000
3011.271756	88.200000
3012.506205	75.600000
3013.740460	76.400000
3014.974522	85.500000
3016.206872	88.000000
3017.437510	82.800000
3018.670994	85.700000
3019.902766	96.500000
3021.132828	90.900000
3022.362698	84.800000
3023.590858	59.100000
3024.820344	59.500000
3026.048122	81.500000
3027.275708	92.400000
3028.504620	58.800000
3029.728790	90.700000
3030.955803	66.100000
3032.179592	77.900000
3033.404708	74.400000
3034.628117	81.200000
3035.851337	82.800000
3037.072851	88.400000
3038.297206	89.300000
3039.516826	93.500000
3040.737771	88.400000
3041.958528	80.000000
3043.177581	64.600000
3044.397960	64.900000
3045.615122	73.200000
3046.833609	93.000000
3048.050394	73.300000
3049.266992	84.200000
3050.483401	74.800000
3051.696598	79.700000
3052.912632	97.300000
3054.125454	81.200000
3055.341113	83.900000
3056.552049	79.700000
3057.764310	75.900000
3058.976385	74.000000
3060.188273	68.300000
3061.398463	81.600000
3062.608467	71.300000
3063.818286	73.300000
3065.026408	67.100000
3066.234344	82.800000
3067.440586	70.000000
3068.648151	72.000000
3069.854023	70.600000
3071.059709	69.200000
3072.265210	72.600000
3073.469018	84.500000
3074.674150	64.200000
3075.877590	69.700000
3077.079337	80.600000
3078.280901	89.300000
3079.482281	65.900000
3080.683477	61.500000
3081.882983	64.400000
3083.082305	82.500000
3084.282951	76.900000
3085.481907	66.000000
3086.677669	65.800000
3087.876260	71.200000
3089.071657	66.100000
3090.268377	85.900000
3091.461905	62.700000
3092.658261	76.400000
3093.852931	81.100000
3095.044410	70.600000
3096.240220	73.300000
3097.431337	73.900000
3098.623776	62.000000
3099.813028	81.900000
3101.005106	65.000000
3102.195499	86.000000
3103.382707	69.900000
3104.571238	84.400000
3105.761091	74.400000
3106.947759	86.800000
3108.134248	75.300000
3109.320557	74.300000
3110.508188	64.400000
3111.692638	99.900000
3112.875407	71.100000
3114.061000	66.800000
3115.244912	60.700000
3116.427146	65.800000
3117.609201	75.500000
3118.791079	89.400000
3119.972778	58.600000
3121.152799	86.600000
3122.331144	72.500000
3123.512310	80.300000
3124.690300	66.600000
3125.868113	60.700000
3127.045749	71.900000
3128.221710	67.300000
3129.397494	48.400000
3130.574600	58.700000
3131.750031	60.600000
3132.923789	57.800000
3134.095875	66.700000
3135.269281	87.000000
3136.442512	62.200000
3137.614070	76.700000
3138.786950	63.400000
3139.956662	70.100000
3141.127695	64.400000
3142.297057	72.600000
3143.464750	49.900000
3144.635258	63.800000
3145.801107	67.200000
3146.971266	74.000000
3148.136767	71.100000
3149.302095	73.200000
3150.467249	78.200000
3151.632229	74.100000
3152.798530	75.600000
3153.960177	67.800000
3155.123145	63.500000
3156.285939	55.100000
3157.448561	58.500000
3158.609518	75.700000
3159.770302	80.600000
3160.930914	80.500000
3162.089863	71.200000
3163.248639	60.500000
3164.407244	65.000000
3165.565677	65.400000
3166.723938	62.700000
3167.880537	90.300000
3169.035475	83.600000
3170.191732	74.500000
3171.346329	77.000000
3172.500754	77.400000
3173.653520	72.500000
3174.806116	79.500000
3175.958541	53.800000
3177.110797	71.300000
3178.262883	68.400000
3179.411822	66.500000
3180.563568	60.400000
3181.713656	65.000000
3182.862088	72.500000
3184.010351	68.700000
3185.158444	75.900000
3186.306369	55.300000
3187.452639	50.900000
3188.598740	70.400000
3189.743186	60.100000
3190.887465	61.900000
3192.031576	68.000000
3193.177005	76.000000
3194.319294	75.000000
3195.461417	50.100000
3196.603372	72.700000
3197.745161	68.500000
3198.886782	81.600000
3200.025267	69.200000
3201.165070	70.000000
3202.306191	47.100000
3203.444177	54.100000
3204.580514	66.200000
3205.716685	68.500000
3206.854174	75.300000
3207.990013	90.600000
3209.127170	72.200000
3210.259714	41.300000
3211.396540	70.900000
3212.528754	57.800000
3213.662286	61.600000
3214.795652	69.800000
3215.925891	68.700000
3217.058928	58.600000
3218.188839	85.200000
3219.320067	73.100000
3220.448169	57.000000
3221.579068	67.500000
3222.708324	67.800000
3223.835935	70.500000
3224.960425	82.800000
3226.089190	85.900000
3227.214833	71.800000
3228.340313	74.300000
3229.464152	69.100000
3230.590785	93.600000
3231.712821	96.500000
3232.836173	92.600000
3233.959363	90.200000
3235.082391	85.000000
3236.203779	97.400000
3237.325006	100.200000
3238.444594	99.800000
3239.564021	97.700000
3240.681810	100.600000
3241.802392	86.400000
3242.919859	97.300000
3244.037167	98.200000
3245.154313	94.500000
3246.269824	82.100000
3247.386650	83.600000
3248.500365	73.700000
3249.616870	100.400000
3250.731741	72.100000
3251.843503	81.400000
3252.955106	103.300000
3254.068023	78.700000
3255.180782	80.400000
3256.290434	82.100000
3257.401400	67.700000
3258.512208	60.500000
3259.621385	57.700000
3260.728930	66.500000
3261.837790	55.200000
3262.946491	76.700000
3264.052090	51.700000
3265.159003	72.100000
3266.264288	64.400000
3267.370886	66.900000
3268.474384	62.600000
3269.579196	81.200000
3270.683851	56.200000
3271.785407	85.300000
3272.886808	57.800000
3273.989522	67.200000
3275.092079	63.900000
3276.191540	72.400000
3277.293785	66.500000
3278.392934	65.300000
3279.490459	39.600000
3280.587828	64.100000
3281.687980	55.800000
3282.785038	51.000000
3283.881941	55.000000
3284.978689	79.100000
3286.070879	62.100000
3287.167317	79.700000
3288.262134	64.000000
3289.356795	48.000000
3290.449835	47.900000
3291.542721	55.100000
3292.633986	58.900000
3293.726564	69.900000
3294.817521	58.500000
3295.906859	60.800000
3296.996044	68.000000
3298.086542	60.100000
3299.173955	54.400000
3300.261216	54.500000
3301.349789	60.100000
3302.438209	58.300000
3303.522082	60.000000
3304.610197	68.300000
3305.695231	44.900000
3306.778648	52.300000
3307.863378	61.300000
3308.946493	41.600000
3310.030919	71.900000
3311.112267	64.200000
3312.194927	59.500000
3313.275973	67.400000
3314.356868	51.600000
3315.436150	47.800000
3316.515281	69.100000
3317.595723	60.300000
3318.673092	56.800000
3319.751771	47.600000
3320.828840	43.300000
3321.905758	38.300000
3322.981065	47.400000
3324.056223	49.600000
3325.132692	49.000000
3326.206091	73.000000
3327.279341	49.300000
3328.353902	71.500000
3329.426853	51.600000
3330.498197	63.600000
3331.570851	46.600000
3332.640438	70.400000
3333.711336	54.800000
3334.780627	57.600000
3335.851229	56.900000
3336.920224	56.000000
3337.987613	47.000000
3339.053397	58.200000
3340.123407	39.700000
3341.190354	73.600000
3342.254239	52.200000
3343.320892	63.600000
3344.385940	53.400000
3345.449385	61.800000
3346.512684	48.200000
3347.575836	43.400000
3348.638842	50.500000
3349.701702	52.900000
3350.762960	33.900000
3351.821161	57.200000
3352.883583	53.600000
3353.942948	47.400000
3355.002168	62.900000
3356.062698	63.500000
3357.118718	46.400000
3358.177503	64.100000
3359.231780	64.300000
3360.288820	50.700000
3361.344263	51.200000
3362.401014	62.000000
3363.456168	56.700000
3364.509724	61.500000
3365.561683	49.800000
3366.616404	38.400000
3367.668076	49.600000
3368.719605	47.700000
3369.772443	51.000000
3370.822233	58.500000
3371.873331	50.700000
3372.921384	53.200000
3373.972197	58.900000
3375.019964	45.600000
3376.067589	59.500000
3377.115071	56.600000
3378.160961	53.700000
3379.208159	45.200000
3380.252315	42.000000
3381.299229	37.700000
3382.344551	39.200000
3383.386833	54.000000
3384.428973	46.900000
3385.472421	67.400000
3386.515729	52.000000
3387.557446	53.600000
3388.599022	40.800000
3389.640458	59.600000
3390.680304	54.300000
3391.718563	67.800000
3392.758129	49.400000
3393.797554	42.200000
3394.835392	43.000000
3395.871643	46.700000
3396.907755	48.400000
3397.945174	35.800000
3398.979560	49.700000
3400.015253	38.000000
3401.050807	46.900000
3402.083330	56.200000
3403.118606	57.600000
3404.150851	39.300000
3405.182958	40.000000
3406.213481	53.300000
3407.245312	44.400000
3408.277003	71.700000
3409.305668	43.200000
3410.334194	41.800000
3411.364028	64.800000
3412.393723	32.100000
3413.420393	49.900000
3414.448370	66.900000
3415.473322	62.400000
3416.501024	53.200000
3417.525703	49.600000
3418.551688	43.000000
3419.576093	54.000000
3420.600362	56.700000
3421.623052	33.600000
3422.645606	49.300000
3423.669466	46.100000
3424.690306	47.200000
3425.711011	45.400000
3426.733021	56.900000
3427.752013	43.800000
3428.770870	58.600000
3429.791032	29.900000
3430.808178	63.000000
