-117.384298	7.394505
-114.714698	5.472527
-112.048033	4.093506
-109.382120	3.232967
-106.719139	2.866434
-104.054729	2.969431
-101.393249	3.517483
-98.730339	4.083916
-96.072537	3.832168
-93.413304	7.092308
-90.754821	11.378322
-88.099261	15.718182
-85.442273	18.068531
-82.790382	19.532867
-80.137062	18.290210
-77.486662	18.415385
-74.834832	19.932168
-72.188093	21.525874
-69.539924	20.444056
-66.892499	20.530070
-64.247987	19.179021
-61.602047	17.229371
-58.961188	16.943357
-56.318900	17.972028
-53.679520	18.295105
-51.038712	19.265734
-48.398644	20.452448
-45.763648	22.422378
-43.127224	28.237762
-40.493702	30.782517
-37.858752	35.423077
-35.228867	41.890909
-32.595390	45.627273
-29.966975	48.129371
-27.339293	50.241958
-24.710184	30.909790
-22.086131	-79.331469
-19.458489	-492.797203
-16.835900	-1495.604895
-14.214043	-2948.877622
-11.592916	750.877622
-8.972519	7526.204895
-6.355010	13413.537063
-3.736073	17606.582517
-1.120022	20072.432867
1.495301	20803.215385
4.109897	19806.630769
6.721610	17092.704196
9.334752	12733.589510
11.942860	6998.588811
14.554550	823.523077
17.161209	-3524.597203
19.769296	-2230.333566
22.376659	-309.008392
24.978997	47.949650
27.584913	55.776224
30.185807	53.590210
32.788129	47.079720
35.385434	40.637063
37.986314	35.718881
40.582180	29.534266
43.179473	24.413287
45.776047	21.259441
48.367612	18.707692
50.960605	17.705594
53.550737	14.131469
56.142297	17.029371
58.730997	19.703497
61.321124	19.961538
63.906253	19.198601
66.492808	18.038462
69.078650	20.271329
71.661638	17.242657
74.246052	16.568531
76.823338	15.395105
79.404190	16.455944
81.982193	17.397203
84.559486	15.519580
87.138205	20.918881
89.711943	23.278322
92.287107	22.712587
94.859428	23.590210
97.431041	24.979021
99.999814	29.634965
102.570014	28.311189
105.137376	27.586014
107.706163	25.216783
110.272114	26.213287
112.835230	33.495105
115.401902	38.265035
117.959353	47.160140
120.522489	59.128671
123.080666	76.593706
125.642396	114.981119
128.199170	181.997902
130.757371	285.261538
133.310619	426.830070
135.863168	611.151748
138.419268	822.649650
140.970421	1052.593007
143.520875	1285.520280
146.070632	1491.454545
148.617571	1664.977622
151.163813	1785.165035
153.711481	1857.234965
156.258453	1887.722378
158.800490	1885.381119
161.341833	1872.720280
163.882483	1853.163636
166.424559	1829.475524
168.963823	1810.292308
171.500279	1794.070629
174.036043	1784.593007
176.573233	1777.587413
179.109732	1769.481119
181.643425	1756.622378
184.174315	1748.637063
186.704516	1736.095804
189.236142	1726.201399
191.764967	1720.278322
194.290993	1714.209091
196.816333	1705.585315
199.343099	1708.768531
201.867067	1710.235664
204.390351	1714.146853
206.912950	1723.818182
209.432756	1729.260140
211.951879	1738.632867
214.470319	1752.123776
216.990183	1771.593007
219.503046	1799.803497
222.019440	1824.382517
224.535152	1852.440559
227.045974	1875.428671
229.558222	1901.412587
232.067686	1920.076923
234.576472	1939.355944
237.084580	1955.255944
239.594111	1954.160140
242.098762	1955.192308
244.602738	1956.514685
247.108137	1963.996503
249.608661	1964.811189
252.112708	1957.893007
254.609785	1954.686014
257.110384	1952.718881
259.608212	1948.402098
262.105367	1951.319580
264.601849	1959.179720
267.093468	1968.009091
269.588607	1971.227273
272.080980	1982.525874
274.572682	1996.776224
277.061620	2009.314685
279.551983	2013.009790
282.039583	2022.041958
284.524425	2038.799301
287.012780	2055.425175
289.494196	2072.923077
291.979126	2109.475524
294.459211	2150.341958
296.942808	2190.655944
299.421562	2218.857343
301.901740	2235.041958
304.379165	2236.265035
306.855927	2223.052448
309.332026	2211.300699
311.805376	2210.889510
314.278064	2209.696503
316.750091	2201.288112
319.221457	2192.176923
321.690079	2185.135664
324.158041	2163.118881
326.627425	2130.834266
329.091987	2084.337762
331.560053	2028.705594
334.023299	1971.370629
336.485887	1917.366434
338.947819	1885.304196
341.409094	1864.730070
343.867635	1845.816783
346.327598	1829.248252
348.784828	1819.014685
351.241404	1812.507692
353.697326	1798.692308
356.150519	1789.776923
358.605133	1771.681818
361.054946	1752.367133
363.508255	1729.917483
365.956766	1700.172727
368.404626	1676.782517
370.853907	1648.393007
373.298395	1626.357343
375.744305	1610.990210
378.189566	1602.671329
380.632107	1598.257343
383.074001	1591.129371
385.515248	1586.400699
387.953779	1579.294406
390.393732	1570.355944
392.830971	1559.752448
395.265498	1548.573427
397.703513	1541.081119
400.136751	1531.095105
402.571411	1519.196503
405.001297	1512.472727
407.434669	1503.919580
409.863271	1494.209790
412.291232	1485.160140
414.720613	1475.214685
417.145229	1467.842657
419.571267	1456.823776
421.996664	1449.212587
424.421421	1446.545455
426.841420	1441.208392
429.262840	1430.676224
431.681563	1420.615385
434.101707	1411.902797
436.519156	1395.238462
438.938025	1372.881818
441.354201	1350.627273
443.765630	1324.446154
446.180535	1296.112587
448.592750	1261.294406
451.004331	1233.225874
453.415278	1210.013986
455.823539	1183.802098
458.231167	1163.395804
460.638164	1155.298601
463.044528	1146.200699
465.448210	1140.911189
467.851262	1141.658741
470.253684	1148.439860
472.655477	1157.809091
475.054591	1166.002098
477.455125	1172.081818
479.855030	1188.560839
482.250212	1207.978322
484.648861	1226.910490
487.042790	1249.091608
489.436093	1278.934266
491.828770	1315.744755
494.220822	1357.906294
496.614292	1424.104196
499.003051	1544.702098
501.389143	1811.251748
503.776654	2421.081818
506.163543	3622.844056
508.547768	5454.966434
510.933412	7695.659441
513.316393	9960.190909
515.696714	11896.265734
518.078454	13241.852448
520.457535	13842.154545
522.838035	13617.365035
525.215877	12614.184615
527.591064	11004.969930
529.965633	9083.576224
532.341621	7267.926573
534.714955	5871.144056
537.089707	4953.311189
539.459774	4375.764336
541.829225	3971.063636
544.200094	3653.985315
546.566283	3391.016084
548.933890	3172.536364
551.298851	2981.795105
553.663199	2825.906294
556.026935	2697.450350
558.392088	2584.027273
560.752568	2486.837762
563.114467	2390.088112
565.473726	2307.869930
567.830346	2227.958042
570.190411	2149.181818
572.543786	2073.709091
574.900605	2009.816783
577.254788	1953.006294
579.608364	1898.313287
581.961331	1850.232168
584.311667	1801.267832
586.663419	1759.908392
589.008495	1718.259441
591.359035	1680.078322
593.702901	1644.585315
596.052229	1611.497902
598.396909	1582.110490
600.738963	1560.334266
603.082435	1557.794406
605.423284	1575.017483
607.763531	1602.111189
610.101157	1646.146853
612.442218	1693.037762
614.778641	1733.106294
617.116481	1752.852448
619.451704	1751.558042
621.784311	1720.793007
624.118334	1670.832168
626.449744	1611.304895
628.780555	1543.898601
631.110768	1489.946853
633.440383	1450.619580
635.765376	1424.995804
638.095810	1413.795105
640.421622	1410.712587
642.744828	1403.544755
645.069449	1396.144056
647.391465	1386.607692
649.712888	1374.959441
652.031707	1365.284615
654.351942	1357.786014
656.671584	1352.923776
658.988625	1347.277622
661.305074	1346.657343
663.618925	1351.333566
665.934192	1353.253846
668.246862	1349.978322
670.560947	1343.447552
672.870432	1338.109091
675.181333	1328.515385
677.489641	1317.813986
679.797361	1304.600699
682.106496	1286.116084
684.411038	1267.504895
686.714993	1247.518182
689.018363	1230.628671
691.323147	1217.702797
693.623345	1201.266434
695.924957	1179.554545
698.225985	1165.713287
700.522430	1147.734965
702.820291	1130.143357
705.117568	1113.446853
707.414262	1099.965734
709.706380	1087.254545
712.001909	1080.551049
714.292865	1077.711888
716.585235	1073.851748
718.875029	1078.530769
721.164243	1076.298601
723.452878	1072.754545
725.738941	1076.601399
728.026417	1072.900699
730.311322	1068.673427
732.595650	1062.158741
734.877409	1053.144056
737.160582	1048.465734
739.443178	1043.014685
741.721219	1036.095804
744.000673	1028.193007
746.279552	1022.258741
748.557855	1010.701399
750.831609	1006.827972
753.106777	1004.718881
755.381371	998.746154
757.653405	996.969231
759.926853	993.925175
762.197743	993.578322
764.466077	999.537762
766.735824	1005.904895
769.003017	1009.449650
771.269639	1013.900000
773.535691	1016.679021
775.799192	1018.368531
778.064106	1021.330769
780.328450	1018.338462
782.588265	1014.568531
784.849493	1011.427972
787.110152	1006.954545
789.368266	1010.938462
791.623835	1013.239860
793.882795	1012.946853
796.135256	1011.390909
798.393084	1014.931469
800.646392	1013.321678
802.897161	1015.297902
805.149342	1015.387413
807.398985	1012.524476
809.650039	1008.630070
811.896582	1006.862937
814.144537	1003.816084
816.389958	1001.431469
818.636790	1002.048951
820.883061	999.026573
823.124828	994.211888
825.369977	991.454545
827.608654	984.552448
829.850713	977.968531
832.088274	973.401399
834.327247	972.783916
836.563693	970.597902
838.801550	964.529371
841.036882	961.213287
843.269691	962.512587
845.503911	969.021678
847.735609	963.193706
849.966751	957.079720
852.197340	950.505594
854.427373	940.092308
856.656853	930.769231
858.881851	922.715385
861.110224	916.742657
863.334118	907.824476
865.559422	900.934266
867.780251	900.558042
870.004452	905.021678
872.224180	909.153846
874.445319	910.134266
876.665907	915.883916
878.883985	914.542657
881.103474	915.152448
883.318495	914.579720
885.532970	913.829371
887.746896	909.873427
889.960276	905.145455
892.173108	904.767832
894.385394	905.521678
896.595177	909.861538
898.804415	914.719580
901.013108	915.620979
903.219302	917.992308
905.426905	914.681119
907.632010	920.033566
909.836572	923.616783
912.038639	930.459441
914.242115	936.765734
916.443097	955.556643
918.643538	981.748252
920.845386	1020.963636
923.040844	1076.987413
925.239661	1151.680420
927.434039	1242.923077
929.631775	1361.180420
931.825075	1492.067832
934.019784	1637.862937
936.212007	1772.746154
938.403692	1889.700000
940.594839	1989.587413
942.783503	2059.771329
944.971630	2096.686713
947.157277	2122.630070
949.346276	2131.083916
951.530852	2125.341958
953.714893	2119.827273
955.902284	2122.229371
958.081371	2126.764336
960.263809	2142.776923
962.445713	2162.041259
964.625143	2181.572028
966.802099	2199.543357
968.980464	2216.867832
971.160236	2233.462937
973.333659	2256.354545
975.510428	2266.353846
977.682790	2255.706294
979.856560	2225.881119
982.025926	2168.574825
984.198637	2084.266434
986.368881	1985.503497
988.538597	1873.204196
990.707784	1749.444755
992.872574	1626.672028
995.040705	1519.764336
997.204442	1424.383916
999.369585	1351.365734
1001.532270	1301.658741
1003.694428	1259.369231
1005.854130	1225.316084
1008.013308	1194.661538
1010.173892	1167.009091
1012.332021	1140.712587
1014.489626	1115.967832
1016.646708	1090.776224
1018.803267	1067.145455
1020.955446	1043.272727
1023.109031	1019.512587
1025.262095	1002.531469
1027.412711	988.242657
1029.564732	970.921678
1031.712380	959.851049
1033.863360	951.623776
1036.009969	946.920280
1038.156060	940.744755
1040.301631	937.393706
1042.448608	933.706993
1044.589296	932.351748
1046.733314	929.404196
1048.874891	928.281818
1051.015952	930.463636
1053.158417	931.241259
1055.294603	931.517483
1057.434115	932.501399
1059.569271	929.960140
1061.707752	930.634965
1063.841879	928.905594
1065.975493	924.386713
1068.110512	918.486713
1070.241181	906.886014
1072.373255	895.830769
1074.502900	888.300000
1076.632033	883.925175
1078.760654	873.799301
1080.888764	864.266434
1083.014448	853.118881
1085.139622	846.812587
1087.266200	843.604895
1089.388441	840.782517
1091.512085	837.413986
1093.631396	837.694406
1095.755935	835.995804
1097.874229	839.606993
1099.993928	842.086014
1102.111208	845.147552
1104.227982	846.791608
1106.344249	842.847552
1108.458101	836.788811
1110.573356	833.918881
1112.684289	827.665734
1114.798533	823.334266
1116.908457	819.986014
1119.019785	823.171329
1121.130608	818.665035
1123.237115	817.302098
1125.346932	815.589510
1127.452434	817.310490
1129.559339	817.972727
1131.660029	807.526573
1133.765931	802.857343
1135.867524	798.985315
1137.970520	792.012587
1140.073015	783.483916
1142.169303	777.546154
1144.270799	771.683916
1146.367992	763.111888
1148.464686	758.522378
1150.560882	757.781818
1152.656581	761.901399
1154.751781	762.802098
1156.844586	760.702098
1158.938792	760.467133
1161.026807	760.451748
1163.120020	759.580420
1165.207045	761.169930
1167.297369	762.886014
1169.383406	767.394406
1171.472740	769.377622
1173.555893	769.876224
1175.640448	777.479021
1177.726405	782.911888
1179.808080	779.990210
1181.891157	777.219580
1183.971848	772.804895
1186.052047	767.015385
1188.131755	762.702098
1190.210972	758.700699
1192.287807	754.177622
1194.362261	755.518881
1196.440006	749.911888
1198.513482	748.600699
1200.588358	748.913287
1202.658967	745.909091
1204.730978	742.990909
1206.800612	739.150350
1208.871647	734.458741
1210.942194	729.016084
1213.008480	726.094406
1215.076167	721.749650
1217.141482	721.772727
1219.208197	724.156643
1221.270656	720.838462
1223.336400	723.704895
1225.397891	727.439860
1227.460781	729.772727
1229.521304	736.018881
1231.581343	738.586014
1233.640900	745.560839
1235.698091	749.024476
1237.754801	755.481119
1239.809148	758.379021
1241.866775	760.696503
1243.922040	760.953147
1245.973064	757.779021
1248.025488	756.634965
1250.077432	755.198601
1252.127018	753.133566
1254.176125	756.713287
1256.224754	759.499301
1258.272904	761.774825
1260.320575	767.531469
1262.364017	768.931469
1264.410733	766.909790
1266.455096	766.367133
1268.498983	765.490210
1270.540519	764.912587
1272.579704	761.689510
1274.622163	762.695804
1276.660399	764.182517
1278.700034	765.007692
1280.739194	766.220979
1282.774135	766.060140
1284.810475	770.260140
1286.844471	765.346154
1288.879865	763.913986
1290.911045	764.211189
1292.943624	763.335664
1294.975730	761.230070
1297.005496	758.981119
1299.036660	758.335664
1301.063616	752.318881
1303.091970	750.386713
1305.116120	748.748252
1307.143534	744.492308
1309.166746	745.246853
1311.191356	742.635664
1313.213632	741.346154
1315.237305	744.123077
1317.258645	744.695804
1319.279517	742.408392
1321.299922	744.148252
1323.316134	745.406294
1325.333743	746.824476
1327.349024	752.912587
1329.367564	754.610490
1331.381915	758.325175
1333.393940	763.979720
1335.409222	765.973427
1337.420319	768.536364
1339.432813	773.200000
1341.441124	772.982517
1343.452691	773.795804
1345.458218	779.256643
1347.467001	784.413986
1349.471606	791.078322
1351.479465	795.944056
1353.486862	800.104895
1355.488228	804.536364
1357.490991	804.968531
1359.493293	802.049650
1361.495136	797.558042
1363.496519	793.337762
1365.495589	787.239161
1367.494200	782.274126
1369.492353	779.736364
1371.490047	776.599301
1373.483579	771.755245
1375.478507	769.397203
1377.472977	761.478322
1379.466992	757.818881
1381.458698	752.538462
1383.449950	744.183916
1385.438896	743.038462
1387.429237	741.350350
1389.419123	738.171329
1391.406706	734.396503
1393.393834	734.586014
1395.378662	732.548951
1397.364883	731.801399
1399.348805	734.341958
1401.332274	732.820280
1403.315291	733.383916
1405.296009	729.428671
1407.278123	728.720280
1409.257939	729.179720
1411.237305	730.198601
1413.212531	727.198601
1415.190997	721.216084
1417.167168	719.630769
1419.142891	716.395105
1421.118164	718.793706
1423.091146	721.694406
1425.063680	721.777622
1427.035767	720.941958
1429.007405	721.841958
1430.974915	727.623077
1432.947500	724.882517
1434.912278	727.584615
1436.882128	725.498601
1438.847855	723.946853
1440.814974	719.974126
1442.779810	718.551748
1444.740526	719.295105
1446.706311	716.879021
1448.666140	716.707692
1450.627362	720.793706
1452.589977	726.834965
1454.548477	729.581119
1456.506534	733.124476
1458.464150	739.433566
1460.421324	745.987413
1462.376222	748.576923
1464.332512	748.541259
1466.286528	747.723776
1468.240104	745.603497
1470.191407	741.363636
1472.144102	737.141958
1474.094526	731.964336
1476.044510	725.209091
1477.994056	719.504895
1479.941333	717.103497
1481.886343	714.197203
1483.832744	711.799301
1485.778708	706.784615
1487.724235	706.953846
1489.667497	702.146853
1491.610322	701.483217
1493.550884	700.042657
1495.492837	699.327972
1497.432528	702.651049
1499.371785	706.360140
1501.310606	712.569231
1503.247168	716.174126
1505.185121	721.046853
1507.120815	724.916084
1509.056076	730.509790
1510.989081	739.696503
1512.921653	749.802797
1514.853793	758.619580
1516.785501	771.041958
1518.714955	784.648252
1520.645800	793.500000
1522.576213	798.444056
1524.502554	800.100000
1526.430286	802.835664
1528.355767	803.612587
1530.280819	804.979021
1532.205442	805.679021
1534.129636	810.553147
1536.051583	819.574126
1537.974919	825.957343
1539.896010	840.411189
1541.814856	856.015385
1543.735092	868.308392
1545.653084	885.124476
1547.570650	906.916084
1549.485974	932.137063
1551.402688	958.193007
1553.315347	983.546154
1555.231210	1014.198601
1557.144833	1048.525175
1559.056219	1084.651748
1560.968993	1127.034266
1562.877718	1183.088811
1564.787833	1258.504196
1566.697523	1349.254545
1568.606791	1473.188811
1570.513825	1617.919580
1572.418626	1787.778322
1574.324816	1985.746853
1576.228774	2185.188112
1578.132312	2386.458042
1580.035428	2560.043357
1581.936316	2693.330769
1583.838591	2777.923776
1585.738639	2806.695105
1587.640074	2774.282517
1589.537476	2669.391608
1591.434459	2514.320979
1593.331024	2315.657343
1595.228977	2101.120979
1597.121095	1885.307692
1599.016406	1672.825874
1600.911300	1489.975524
1602.803972	1332.355944
1604.696228	1207.344056
1606.586263	1114.686014
1608.475884	1055.276224
1610.365088	1009.929371
1612.253878	971.843357
1614.140450	946.062238
1616.028410	925.436364
1617.912353	906.573427
1619.797684	886.310490
1621.682600	869.223776
1623.565303	851.191608
1625.449393	824.991608
1627.329472	794.974825
1629.210937	771.895804
1631.090192	748.305594
1632.970833	725.609091
1634.845670	705.223776
1636.725489	688.223077
1638.601302	675.080420
1640.476705	663.484615
1642.353495	656.250350
1644.224487	648.688811
1646.098661	638.063636
1647.968837	628.450350
1649.842193	621.695105
1651.713346	617.183916
1653.582297	606.293007
1655.452634	598.455944
1657.318977	585.755944
1659.186706	579.780420
1661.052237	576.483217
1662.919152	568.711888
1664.782079	564.058741
1666.646391	559.391608
1668.508507	556.934266
1670.370219	557.838462
1672.233315	556.960140
1674.094217	551.487413
1675.952925	543.646853
1677.811230	536.197203
1679.670920	528.011189
1681.524843	525.997902
1683.381938	521.355944
1685.238631	515.120280
1687.091348	512.127273
1688.947235	511.636364
1690.799149	512.670629
1692.650662	512.397203
1694.501774	509.291608
1696.352486	505.951049
1698.202797	501.511888
1700.050924	497.900000
1701.900434	494.097203
1703.744196	492.190909
1705.592907	490.170629
1707.435873	488.904196
1709.282004	489.893706
1711.124174	492.711189
1712.969508	494.480420
1714.809102	495.065035
1716.650080	489.861538
1718.492441	488.097203
1720.330846	482.421678
1722.170634	478.744056
1724.008247	477.754545
1725.845464	474.942657
1727.680508	476.263636
1729.516935	476.051049
1731.351190	480.634266
1733.185050	480.555245
1735.018517	481.448252
1736.848037	481.568531
1738.680716	476.619580
1740.509451	473.400000
1742.341344	468.344755
1744.169294	469.684615
1745.996852	464.376923
1747.824018	460.188811
1749.650793	462.297203
1751.477177	459.174126
1753.299623	459.693706
1755.125225	457.737762
1756.946892	462.115385
1758.769941	463.436364
1760.590828	470.223776
1762.411327	475.076923
1764.233207	481.970629
1766.049387	490.214685
1767.868719	490.127972
1769.684124	491.008392
1771.502679	487.790909
1773.317309	477.856643
1775.131553	472.411189
1776.945409	468.201399
1778.758879	465.131469
1780.570196	462.098601
1782.382894	466.296503
1784.195205	470.491608
1786.003599	476.203497
1787.813373	477.297203
1789.619233	476.928671
1791.428238	474.523077
1793.233330	469.191608
1795.039803	465.353846
1796.845892	462.339860
1798.648071	461.457343
1800.453393	459.018881
1802.254807	456.785315
1804.057601	456.009790
1805.856489	458.421678
1807.656758	456.702797
1809.456645	453.011189
1811.254391	455.290909
1813.051755	454.932867
1814.848740	455.503497
1816.645344	456.886014
1818.439809	454.823077
1820.235653	457.428671
1822.025843	457.338462
1823.820928	457.044056
1825.610362	458.911888
1827.402932	461.782517
1829.193367	463.052448
1830.981668	465.711189
1832.773104	468.532168
1834.558894	468.467133
1836.346064	470.653147
1838.131102	473.960839
1839.919274	477.389510
1841.703560	480.393706
1843.485717	480.530070
1845.269252	480.475524
1847.050659	480.928671
1848.833445	479.717483
1850.612350	481.901399
1852.392635	481.610490
1854.170793	477.514685
1855.950330	478.674825
1857.727742	480.985315
1859.503030	486.136364
1861.279697	485.825874
1863.054240	486.464336
1864.830162	487.571329
1866.600463	490.989510
1868.373892	490.002797
1870.145201	493.427273
1871.916140	495.475524
1873.688455	494.374126
1875.455157	495.669231
1877.224985	495.888811
1878.990949	495.541958
1880.760037	496.660839
1882.525263	490.099301
1884.290120	487.690210
1886.056355	486.388112
1887.818731	482.699301
1889.580740	477.976923
1891.342381	473.744755
1893.103656	462.829371
1894.864563	457.079720
1896.625104	452.137063
1898.383535	447.192308
1900.141601	445.065734
1901.897558	442.172727
1903.654892	438.862937
1905.411861	436.110490
1907.166724	432.889510
1908.919481	431.720280
1910.671875	432.456643
1912.425644	428.397902
1914.177310	421.156643
1915.926874	423.590909
1917.677813	426.223776
1919.428390	427.461538
1921.175127	425.715385
1922.923241	428.903497
1924.669255	433.646154
1926.416645	433.451748
1928.161936	433.250350
1929.905130	439.289510
1931.649699	438.478322
1933.392173	435.192308
1935.134286	430.695804
1936.876039	431.533566
1938.617433	431.450350
1940.356732	430.258042
1942.095673	427.172727
1943.834256	427.843357
1945.570746	428.062238
1947.306879	426.583217
1949.044386	425.273427
1950.778071	425.932168
1952.513131	421.675524
1954.246103	419.019580
1955.978718	417.859441
1957.710976	418.448951
1959.442878	421.928671
1961.172694	423.641958
1962.900425	422.197203
1964.629531	421.939161
1966.358282	425.620979
1968.084949	426.018182
1969.811262	424.475524
1971.538948	424.016084
1973.261098	423.975524
1974.986349	427.588112
1976.707794	429.722378
1978.432338	429.156643
1980.154803	428.254545
1981.873464	427.204196
1983.595224	429.436364
1985.313182	429.625874
1987.032513	435.660839
1988.748045	436.193007
1990.468397	438.102098
1992.184951	439.592308
1993.897708	440.622378
1995.613562	444.310490
1997.327342	443.972028
1999.040773	441.388112
2000.752133	438.061538
2002.464866	438.955944
2004.173807	437.927273
2005.885842	435.234965
2007.592367	435.711189
2009.301985	432.596503
2011.009535	432.101399
2012.716738	429.458042
2014.421875	430.026573
2016.126665	431.617483
2017.832827	433.736364
2019.535207	436.326573
2021.238959	437.426573
2022.940647	438.309790
2024.641991	438.974126
2026.342989	439.813986
2028.041927	439.851049
2029.742235	435.579021
2031.438769	428.963636
2033.136674	426.474126
2034.832520	426.867832
2036.531452	427.748951
2038.224898	426.930070
2039.919715	426.094406
2041.614190	425.364336
2043.304896	424.655944
2044.998686	424.532867
2046.688709	423.565734
2048.380103	423.748951
2050.069444	417.930070
2051.760155	414.274825
2053.447103	416.502098
2055.133712	420.023776
2056.821691	423.263636
2058.505910	423.192308
2060.191499	423.830769
2061.876749	423.067133
2063.559951	417.478322
2065.244522	411.388811
2066.923631	408.706993
2068.607525	408.646154
2070.285959	404.810490
2071.967469	404.694406
2073.645229	406.032867
2075.322651	409.581818
2077.001443	412.187413
2078.678193	413.558042
2080.352901	412.744056
2082.028978	407.932168
2083.703015	402.655944
2085.376716	402.199301
2087.050082	402.135664
2088.721410	404.637762
2090.392403	406.276224
2092.063062	407.296503
2093.733386	410.316084
2095.403377	412.845455
2097.071332	414.514685
2098.738954	413.834266
2100.404541	416.418881
2102.071498	415.732867
2103.736420	418.437063
2105.401011	420.728671
2107.063570	417.909790
2108.727497	416.965035
2110.389394	416.425874
2112.050959	416.659441
2113.712193	415.280420
2115.371399	415.497203
2117.030274	415.595804
2118.688820	415.655245
2120.347036	419.545455
2122.001528	418.108392
2123.659085	419.065035
2125.316313	415.647552
2126.969819	410.545455
2128.624693	408.602797
2130.275849	405.099301
2131.930066	406.622378
2133.580567	406.405594
2135.232434	404.974126
2136.878893	402.981818
2138.530107	402.472727
2140.177607	403.269930
2141.826474	404.176923
2143.473323	403.557343
2145.119845	404.456643
2146.766042	404.518182
2148.408531	406.408392
2150.054078	406.186713
2151.695918	411.286713
2153.340815	412.049650
2154.982007	407.514685
2156.622875	407.493007
2158.263419	408.326573
2159.901951	408.134266
2161.541849	409.153846
2163.178047	406.948951
2164.815612	411.298601
2166.452853	411.311888
2168.088085	414.553846
2169.722996	416.081119
2171.357585	418.183916
2172.991852	416.079720
2174.622426	413.896503
2176.256052	413.466434
2177.885986	412.449650
2179.517285	410.327972
2181.146579	413.055245
2182.775554	409.593007
2184.404210	412.379720
2186.032546	411.772028
2187.658879	411.379720
2189.284894	409.691608
2190.908908	409.378322
2192.534286	409.720979
2194.157665	410.935664
2195.782407	411.090909
2197.403469	416.336364
2199.024214	418.497902
2200.646324	420.813287
2202.266436	417.489510
2203.884551	418.395105
2205.502351	416.983916
2207.119836	417.225874
2208.737005	415.274126
2210.353859	414.409790
2211.970398	413.426573
2213.584943	413.789510
2215.197496	413.719580
2216.811413	417.341259
2218.423339	414.211888
2220.036628	414.124476
2221.647927	411.813287
2223.257236	406.258042
2224.867909	405.595804
2226.476593	404.108392
2228.084965	398.145455
2229.691349	393.193706
2231.299097	392.593706
2232.904858	393.027972
2234.510308	391.117483
2236.113773	391.746154
2237.718601	393.851049
2239.321445	397.055245
2240.922307	396.890909
2242.524530	394.951748
2244.124772	398.263636
2245.726376	398.074825
2247.324328	399.021678
2248.923642	400.322378
2250.520976	405.088811
2252.118001	406.048951
2253.716389	406.946853
2255.311128	406.690210
2256.903890	407.651049
2258.498015	409.897902
2260.093501	411.339860
2261.685343	409.239161
2263.276878	411.413287
2264.869774	415.505594
2266.457361	418.169231
2268.049645	418.268531
2269.636621	418.072028
2271.226626	417.275524
2272.811326	414.908392
2274.400719	411.389510
2275.984811	406.967133
2277.570264	402.730070
2279.153747	397.693706
2280.740257	393.954545
2282.323133	394.201399
2283.905705	393.753846
2285.487974	390.166434
2287.066614	385.365734
2288.648277	383.488811
2290.226312	384.081119
2291.807370	385.301399
2293.384801	386.297902
2294.960269	386.010490
2296.538759	383.933566
2298.113625	383.960140
2299.688190	386.632867
2301.262455	387.556643
2302.836419	385.031469
2304.410083	382.833566
2305.983446	380.169231
2307.553191	378.045455
2309.122637	378.581818
2310.695101	378.420280
2312.262291	376.306993
2313.832499	378.168531
2315.399092	378.798601
2316.967045	377.955245
2318.533042	380.812587
2320.098742	383.611888
2321.664145	387.785315
2323.227593	399.596503
2324.792401	406.239161
2326.353601	410.615385
2327.917815	417.010490
2329.476767	415.632867
2331.038734	411.696503
2332.598750	406.733566
2334.158470	400.372028
2335.716241	388.460839
2337.273717	381.973427
2338.830899	376.782517
2340.386134	377.302098
2341.941074	383.176224
2343.495721	385.177622
2345.050074	385.760140
2346.604133	389.430769
2348.157898	385.218881
2349.709720	385.274825
2351.259598	383.603497
2352.812484	382.118182
2354.360128	378.799301
2355.910779	382.516783
2357.457839	383.442657
2359.006258	387.116783
2360.554384	392.115385
2362.098922	392.609790
2363.644818	390.804895
2365.188776	393.218182
2366.734091	392.426573
2368.275821	396.439860
2369.818908	395.155944
2371.360060	392.909790
2372.900922	390.589510
2374.441495	393.518182
2375.981778	396.124476
2377.521773	397.993706
2379.058190	397.045455
2380.597608	395.142657
2382.133449	395.755944
2383.670646	394.344056
2385.204268	393.623077
2386.740891	396.188811
2388.275582	395.904895
2389.808344	395.320280
2391.340819	392.037762
2392.871367	391.569231
2394.404912	391.686713
2395.933245	388.341958
2397.462936	385.706294
2398.992341	387.189510
2400.521460	387.756643
2402.050295	387.413986
2403.573924	388.293007
2405.102190	395.421678
2406.625252	399.265734
2408.152948	404.015385
2409.673805	407.389510
2411.199295	410.674126
2412.721224	417.587413
2414.244509	422.804196
2415.765873	427.071329
2417.285317	429.705594
2418.806116	433.118182
2420.324996	435.164336
2421.843594	435.453147
2423.360275	437.954545
2424.878310	438.679720
2426.396064	441.156643
2427.910267	444.896503
2429.424189	448.909790
2430.937831	455.709091
2432.452828	459.330769
2433.964276	461.383916
2435.477079	466.009790
2436.987968	475.710490
2438.498579	486.133566
2440.007278	496.300699
2441.518963	509.508392
2443.027105	522.753846
2444.534969	537.335664
2446.042555	547.015385
2447.546600	556.038462
2449.053631	560.860140
2450.558753	562.904196
2452.063598	563.713986
2453.566535	565.897203
2455.069197	562.473427
2456.571582	561.806993
2458.072062	557.906993
2459.573895	555.386014
2461.073824	550.905594
2462.573477	546.295804
2464.072854	536.283916
2465.570329	529.761538
2467.065902	523.069930
2468.564455	518.283916
2470.059480	510.113986
2471.555858	502.096503
2473.048708	491.408392
2474.542912	492.094406
2476.036842	487.437063
2477.527248	486.735664
2479.020632	487.241259
2480.512118	487.870629
2482.001707	485.693706
2483.491024	487.965734
2484.978446	490.127273
2486.468843	486.073427
2487.955721	476.788811
2489.443951	469.760140
2490.928665	461.769231
2492.413108	458.038462
2493.898903	451.368531
2495.382805	446.973427
2496.868059	443.422378
2498.348178	441.518881
2499.831271	437.430070
2501.312473	435.682517
2502.793406	432.000000
2504.272450	427.384615
2505.751225	424.440559
2507.229732	422.636364
2508.707971	418.723776
2510.185941	417.314685
2511.660407	416.426573
2513.137841	414.468531
2514.611772	416.658741
2516.087053	416.076923
2517.562068	415.609091
2519.033581	415.642657
2520.506444	414.390909
2521.977425	415.706993
2523.449756	415.132168
2524.916974	412.944755
2526.387157	408.695105
2527.855460	408.004196
2529.323498	406.751748
2530.791271	402.969930
2532.258779	401.367133
2533.726022	400.847552
2535.189773	400.206993
2536.654874	400.930769
2538.118098	400.787413
2539.582672	402.079720
2541.043756	401.213287
2542.506190	401.827972
2543.968361	405.941259
2545.427046	410.741958
2546.890303	414.942657
2548.348463	416.830769
2549.807972	421.204895
2551.262388	423.004895
2552.721373	423.139161
2554.178487	423.629371
2555.633730	423.738462
2557.088712	421.134266
2558.541824	420.006294
2559.996285	419.916783
2561.448877	423.158042
2562.901209	420.428671
2564.351673	422.132168
2565.805093	421.529371
2567.253431	424.581119
2568.704725	423.253147
2570.154152	426.218182
2571.600107	423.306294
2573.049018	427.653147
2574.494457	430.650350
2575.941245	434.823776
2577.386169	439.776224
2578.830835	445.616783
2580.276850	447.065734
2581.719397	450.948252
2583.163292	451.792308
2584.603722	457.414685
2586.045499	457.287413
2587.485417	457.616084
2588.926682	456.487413
2590.364486	458.280420
2591.805239	456.442657
2593.240929	454.903497
2594.679569	454.834965
2596.116352	455.103497
2597.551278	455.211888
2598.989153	456.674126
2600.421969	457.300000
2601.856133	461.655245
2603.288443	464.154545
2604.722099	470.169231
2606.153902	479.706294
2607.585452	484.958042
2609.016748	490.272727
2610.446192	498.739860
2611.875384	506.932867
2613.302726	515.008392
2614.731414	523.841259
2616.159849	534.930769
2617.584837	542.251049
2619.011172	549.959441
2620.435658	558.353846
2621.861490	571.420979
2623.283878	585.135664
2624.707612	593.617483
2626.129499	606.969930
2627.551137	624.827273
2628.970929	644.855245
2630.392067	666.667133
2631.812955	685.897203
2633.230405	713.198601
2634.650794	739.940559
2636.067746	767.231469
2637.484449	801.276224
2638.900905	831.578322
2640.317111	864.271329
2641.733070	899.495105
2643.147188	939.186014
2644.561059	985.032168
2645.973090	1035.859441
2647.386466	1092.167133
2648.796412	1151.404895
2650.209293	1222.011888
2651.618746	1294.610490
2653.027954	1369.079021
2654.435324	1449.365035
2655.845630	1530.876224
2657.254099	1621.870629
2658.660733	1724.098601
2660.067122	1822.674126
2661.471677	1935.776923
2662.877576	2057.366434
2664.281642	2196.049650
2665.685463	2330.712587
2667.089041	2477.057343
2668.490786	2619.329371
2669.893875	2759.728671
2671.293546	2897.427273
2672.694561	3042.371329
2674.092160	3182.630070
2675.492689	3317.952448
2676.889803	3429.246853
2678.288260	3536.202098
2679.684889	3619.476224
2681.081276	3674.820979
2682.477422	3697.847552
2683.871741	3701.593007
2685.267403	3664.437063
2686.659655	3604.440559
2688.053250	3523.117483
2689.445022	3428.231469
2690.838135	3316.097203
2692.229425	3200.380420
2693.618892	3075.681818
2695.008119	2953.041259
2696.397107	2825.864336
2697.787437	2690.941259
2699.172782	2568.965035
2700.561051	2446.834266
2701.947500	2326.790909
2703.333710	2212.216783
2704.719682	2100.481818
2706.102254	1988.670629
2707.486169	1882.537063
2708.869846	1779.997203
2710.253285	1677.178322
2711.633328	1584.272028
2713.014713	1495.593706
2714.394282	1405.290210
2715.775193	1327.399301
2717.154288	1253.857343
2718.531570	1185.752448
2719.910193	1123.958042
2721.287003	1066.541958
2722.663577	1011.413986
2724.039915	962.987413
2725.414441	910.558042
2726.790308	871.008392
2728.162788	836.996503
2729.538184	803.983916
2730.908620	773.379720
2732.280397	746.204895
2733.651939	722.460140
2735.021673	697.053147
2736.392748	672.829371
2737.762014	650.355245
2739.131048	626.452448
2740.498274	610.597203
2741.865268	590.295804
2743.232029	577.000699
2744.598557	563.455944
2745.963280	551.490909
2747.327772	540.362937
2748.692031	530.392308
2750.056058	520.147552
2751.419854	508.456643
2752.780276	497.022378
2754.143609	490.172028
2755.501999	480.438462
2756.863299	474.397203
2758.221228	468.148951
2759.582067	461.611888
2760.941105	458.960140
2762.296775	455.882517
2763.655353	453.934965
2765.010564	446.856643
2766.365547	441.734965
2767.718732	437.367832
2769.074824	433.834266
2770.427552	430.297902
2771.780051	425.611888
2773.132322	424.530070
2774.485932	424.752448
2775.836180	421.603497
2777.184635	419.436364
2778.535994	418.560140
2779.883994	418.004895
2781.233332	412.151049
2782.580879	407.502797
2783.928198	399.158741
2785.275291	393.153846
2786.620593	389.496503
2787.965669	386.460839
2789.310518	385.876923
2790.655142	384.392308
2791.996414	386.785315
2793.339024	384.430769
2794.681408	386.696503
2796.023568	390.395105
2797.362378	388.003497
2798.704087	385.651748
2800.042449	380.765734
2801.382148	378.746154
2802.720061	379.438462
2804.056190	377.600000
2805.392095	375.966434
2806.729338	378.611189
2808.064797	381.388112
2809.400033	379.391608
2810.733486	382.935664
2812.068277	383.146853
2813.399726	380.697902
2814.734071	380.752448
2816.063518	376.178322
2817.394302	374.044755
2818.724864	373.548252
2820.053647	371.074825
2821.383766	369.062937
2822.712107	370.489510
2824.040227	368.913986
2825.366569	366.737063
2826.694248	364.997902
2828.018593	362.979021
2829.344275	361.830769
2830.668181	357.158042
2831.991868	356.396503
2833.316890	353.167133
2834.638582	349.070629
2835.960056	345.437063
2837.281311	342.827273
2838.602347	343.092308
2839.921611	341.725874
2841.242210	338.013287
2842.561037	335.932867
2843.879646	338.448951
2845.196484	339.256643
2846.513105	333.481119
2847.829509	333.390210
2849.144144	329.268531
2850.460113	327.116084
2851.772762	324.966434
2853.086747	326.359441
2854.400514	328.932867
2855.714066	332.130769
2857.025850	330.484615
2858.335868	329.851748
2859.647221	333.196503
2860.955259	332.238462
2862.264632	329.058042
2863.573789	330.003497
2864.882731	331.237762
2866.189909	332.384615
2867.495325	334.486014
2868.802075	338.221678
2870.107062	339.204196
2871.411836	340.958042
2872.714848	339.972028
2874.020742	338.809790
2875.321780	336.892308
2876.624153	331.648951
2877.924766	328.532168
2879.226713	321.914685
2880.528447	322.093706
2881.826876	322.495105
2883.126640	320.197203
2884.424645	318.354545
2885.722439	316.272028
2887.018477	316.401399
2888.315848	316.868531
2889.611463	317.156643
2890.906867	314.932168
2892.202061	313.356643
2893.493956	311.473427
2894.788728	310.421678
2896.080203	314.151049
2897.373011	313.848252
2898.665609	311.163636
2899.954913	310.781119
2901.245549	311.293007
2902.534434	314.314685
2903.824652	315.323077
2905.111577	316.909091
2906.399836	318.943357
2907.686344	321.806993
2908.972645	324.661538
2910.258737	327.940559
2911.543081	326.763636
2912.830296	324.112587
2914.112685	323.052448
2915.396406	320.493706
2916.678381	321.255245
2917.960148	318.509790
2919.240171	316.729371
2920.523063	317.896503
2921.804210	320.670629
2923.082075	320.714685
2924.362809	322.681119
2925.640262	323.351049
2926.917509	320.767133
2928.193015	319.382517
2929.471388	320.755245
2930.744946	319.948252
2932.021372	320.960140
2933.296057	319.308392
2934.569002	315.407692
2935.843277	313.458741
2937.115813	309.068531
2938.388145	306.331469
2939.657203	305.924476
2940.929127	305.376923
2942.199313	303.641958
2943.469296	304.246154
2944.739075	302.602797
2946.007117	303.338462
2947.273424	304.554545
2948.539528	304.686014
2949.806962	299.721678
2951.072662	299.585315
2952.338159	299.841958
2953.603454	300.623077
2954.865484	297.814685
2956.128845	299.213287
2957.392003	295.502098
2958.653430	291.954545
2959.916186	289.093706
2961.177211	291.076224
2962.436504	290.185315
2963.695598	288.932168
2964.954491	290.962937
2966.213184	292.948951
2967.471677	295.106294
2968.728441	295.045455
2969.985005	294.791608
2971.239842	297.257343
2972.496007	296.097203
2973.748918	296.815385
2975.003158	297.059441
2976.257199	295.684615
2977.509514	288.215385
2978.761631	283.587413
2980.012022	283.388112
2981.265269	281.602098
2982.513739	282.409790
2983.765064	280.911189
2985.013139	281.274825
2986.261018	283.337063
2987.508699	284.617483
2988.756184	289.416084
2990.001946	287.314685
2991.247513	285.652448
2992.494407	282.296503
2993.738057	283.580420
2994.983035	287.253846
2996.224769	287.299301
2997.469355	286.900000
2998.712222	283.946853
2999.951848	283.033566
3001.194324	281.597203
3002.433561	282.100000
3003.674125	285.938462
3004.912972	284.408392
3006.151625	283.376923
3007.388562	285.074126
3008.626826	288.886014
3009.863376	288.834965
3011.099731	285.488112
3012.335893	282.559441
3013.570342	279.117483
3014.804597	276.630769
3016.038659	275.949650
3017.271009	276.935664
3018.501647	279.847552
3019.735131	281.211888
3020.966903	278.630769
3022.196965	282.626573
3023.426835	287.124476
3024.654995	280.825874
3025.884481	278.930769
3027.112259	278.941259
3028.339845	275.906993
3029.568757	273.702797
3030.792927	274.966434
3032.019940	275.187413
3033.243729	276.923077
3034.468845	273.363636
3035.692254	269.337762
3036.915473	271.674825
3038.136987	269.935664
3039.361343	262.912587
3040.580962	263.693706
3041.801908	264.648951
3043.022665	259.906294
3044.241718	257.184615
3045.462097	257.658741
3046.679259	257.379720
3047.897746	255.685315
3049.114531	253.141259
3050.331129	254.360140
3051.547538	257.195105
3052.760735	255.954545
3053.976769	256.095105
3055.189591	259.254545
3056.405250	261.507692
3057.616186	262.006993
3058.828447	261.148951
3060.040522	261.532168
3061.252410	262.004196
3062.462600	260.727972
3063.672604	261.113287
3064.882423	262.590210
3066.090545	260.129371
3067.298481	258.557343
3068.504723	255.011888
3069.712288	253.011888
3070.918160	255.323776
3072.123846	253.781818
3073.329347	254.104895
3074.533155	255.303497
3075.738287	255.939161
3076.941727	254.288112
3078.143474	258.311888
3079.345038	259.253846
3080.546417	259.340559
3081.747614	260.125175
3082.947119	255.762937
3084.146442	250.278322
3085.347088	249.364336
3086.546044	246.416084
3087.741806	242.914685
3088.940397	239.685315
3090.135794	239.344056
3091.332514	236.483916
3092.526042	239.311189
3093.722398	239.265734
3094.917068	241.721678
3096.108547	241.190909
3097.304357	240.555944
3098.495474	239.958042
3099.687913	243.419580
3100.877165	244.804196
3102.069243	242.573427
3103.259636	243.413287
3104.446844	246.702797
3105.635375	246.568531
3106.825228	244.943357
3108.011896	245.654545
3109.198385	246.036364
3110.384694	244.171329
3111.572325	246.061538
3112.756775	246.869930
3113.939544	249.124476
3115.125136	249.565734
3116.309049	248.677622
3117.491283	247.734266
3118.673338	249.706993
3119.855216	249.646154
3121.036915	245.492308
3122.216936	245.739860
3123.395281	241.964336
3124.576447	239.948252
3125.754437	239.118182
3126.932250	238.789510
3128.109886	240.741259
3129.285847	239.887413
3130.461631	237.568531
3131.638737	236.315385
3132.814168	234.577622
3133.987926	230.946154
3135.160012	226.873427
3136.333418	226.173427
3137.506649	225.237762
3138.678207	228.584615
3139.851086	231.646853
3141.020799	236.662238
3142.191831	239.883217
3143.361194	241.281119
3144.528887	242.272727
3145.699395	243.941958
3146.865244	240.552448
3148.035403	239.730769
3149.200904	237.348951
3150.366232	236.400000
3151.531386	237.771329
3152.696366	240.769231
3153.862667	240.282517
3155.024314	242.174825
3156.187282	240.367832
3157.350076	238.544755
3158.512698	237.958741
3159.673655	238.523077
3160.834439	235.709091
3161.995051	234.690909
3163.154000	230.533566
3164.312776	226.130769
3165.471381	224.539161
3166.629814	224.557343
3167.788075	223.445455
3168.944674	223.495804
3170.099612	222.056643
3171.255869	222.834965
3172.410466	224.341259
3173.564891	228.439860
3174.717657	230.703497
3175.870253	233.365035
3177.022678	235.268531
3178.174934	233.341958
3179.327019	232.622378
3180.475959	232.097203
3181.627705	229.744056
3182.777793	229.769930
3183.926225	229.902797
3185.074488	229.269930
3186.222581	225.195105
3187.370506	224.781119
3188.516776	222.441259
3189.662877	221.747552
3190.807323	223.743357
3191.951602	225.078322
3193.095713	223.774825
3194.241142	223.460140
3195.383431	224.462937
3196.525554	228.190909
3197.667509	227.693007
3198.809298	227.570629
3199.950919	224.223776
3201.089404	221.041958
3202.229207	219.969930
3203.370328	219.627273
3204.508314	221.053147
3205.644651	220.311189
3206.780822	219.234266
3207.918311	221.442657
3209.054150	220.938462
3210.191307	221.695105
3211.323851	221.000000
3212.460677	220.366434
3213.592891	221.291608
3214.726422	221.258741
3215.859789	224.890909
3216.990028	226.653846
3218.123065	229.679021
3219.252976	234.223077
3220.384203	238.963636
3221.512306	245.645455
3222.643205	251.751748
3223.772460	256.759441
3224.900072	260.400699
3226.024562	265.235664
3227.153326	272.445455
3228.278970	277.427273
3229.404450	280.634965
3230.528289	284.141259
3231.654922	290.853147
3232.776958	296.315385
3233.900310	303.428671
3235.023500	310.803497
3236.146528	318.708392
3237.267916	320.900699
3238.389143	323.713986
3239.508731	327.156643
3240.628158	328.899301
3241.745947	327.681119
3242.866529	323.823077
3243.983996	324.641259
3245.101303	322.860839
3246.218450	322.173427
3247.333961	321.296503
3248.450787	318.794406
3249.564502	315.773427
3250.681007	308.562238
3251.795878	302.432867
3252.907640	296.057343
3254.019243	289.519580
3255.132160	281.241259
3256.244919	274.737762
3257.354571	271.320979
3258.465537	264.277622
3259.576345	258.178322
3260.685522	250.930070
3261.793067	243.199301
3262.901926	234.342657
3264.010628	227.652448
3265.116227	221.862937
3266.223140	218.287413
3267.328424	214.923776
3268.435023	211.697203
3269.538521	210.778322
3270.643333	211.820280
3271.747988	211.147552
3272.849544	208.035664
3273.950945	208.278322
3275.053659	202.457343
3276.156216	200.283217
3277.255677	201.262937
3278.357922	200.056643
3279.457071	203.742657
3280.554596	203.287413
3281.651965	202.600000
3282.752117	199.472727
3283.849175	197.374825
3284.946078	194.540559
3286.042826	190.520280
3287.135016	188.512587
3288.231454	181.504196
3289.326270	178.695804
3290.420932	180.676224
3291.513972	184.774825
3292.606858	190.301399
3293.698123	190.174825
3294.790701	192.420979
3295.881658	192.979021
3296.970996	192.977622
3298.060181	191.414685
3299.150679	190.613287
3300.238092	190.784615
3301.325353	187.739860
3302.413926	185.823077
3303.502346	186.639860
3304.586219	186.863636
3305.674334	184.774126
3306.759368	181.734266
3307.842785	185.472028
3308.927515	183.821678
3310.010630	184.213986
3311.095056	184.258042
3312.176404	187.499301
3313.259064	189.646853
3314.340110	189.125874
3315.421005	188.844056
3316.500286	185.436364
3317.579418	182.630070
3318.659860	180.295105
3319.737229	179.913986
3320.815908	180.391608
3321.892977	179.466434
3322.969895	182.276224
3324.045202	183.462937
3325.120360	184.390909
3326.196829	185.423776
3327.270228	188.176923
3328.343478	189.024476
3329.418038	186.404196
3330.490990	187.274825
3331.562333	185.783217
3332.634988	186.569231
3333.704575	185.474126
3334.775473	185.850350
3335.844764	186.410490
3336.915366	186.263636
3337.984361	184.768531
3339.051750	184.442657
3340.117534	186.260839
3341.187544	187.698601
3342.254491	188.102797
3343.318376	188.500000
3344.385029	188.862238
3345.450077	191.301399
3346.513522	187.798601
3347.576821	186.586014
3348.639973	188.537063
3349.702979	186.623077
3350.765839	182.374126
3351.827097	178.734266
3352.885298	177.387413
3353.947720	177.739860
3355.007085	179.639860
3356.066305	180.741259
3357.126835	185.231469
3358.182855	186.524476
3359.241640	184.565734
3360.295917	185.300000
3361.352957	187.136364
3362.408400	186.676923
3363.465151	183.323077
3364.520304	180.535664
3365.573861	180.274126
3366.625820	180.416783
3367.680541	183.532867
3368.732213	183.779021
3369.783742	184.943357
3370.836579	184.444056
3371.886369	184.183916
3372.937468	182.810490
3373.985521	181.635664
3375.036334	181.602797
3376.084101	180.667832
3377.131726	180.922378
3378.179208	181.593706
3379.225098	179.138462
3380.272296	177.093007
3381.316452	174.139161
3382.363366	173.120979
3383.408688	173.514685
3384.450969	174.638462
3385.493110	173.817483
3386.536558	172.739161
3387.579866	175.968531
3388.621583	181.317483
3389.663159	181.580420
3390.704595	179.579021
3391.744441	174.055944
3392.782700	169.999301
3393.822266	167.216084
3394.861691	165.726573
3395.899529	166.949650
3396.935780	167.749650
3397.971892	166.782517
3399.009311	168.376224
3400.043697	173.829371
3401.079390	176.102797
3402.114944	173.547552
3403.147467	174.885315
3404.182743	175.400000
3405.214988	176.779720
3406.247095	175.529371
3407.277618	175.906294
3408.309448	178.076923
3409.341140	175.923776
3410.369805	172.296503
3411.398331	174.776923
3412.428165	171.300000
3413.457860	167.294406
3414.484530	164.166434
3415.512507	168.115385
3416.537459	169.495804
3417.565161	168.390909
3418.589840	166.813287
3419.615825	168.604895
3420.640230	169.826573
3421.664499	167.960839
3422.687189	167.128671
3423.709743	168.991608
3424.733603	166.320979
3425.754443	166.495105
3426.775148	167.952148
3427.797158	169.381568
3428.816150	170.424276
3429.835007	170.721179
3430.855169	169.913187
3431.872315	167.641209
