-118.448435	15.196429
-115.778835	11.974725
-113.112170	10.424226
-110.446257	10.148951
-107.783276	10.752922
-105.118866	11.840160
-102.457386	13.014685
-99.794476	14.206294
-97.136674	10.620979
-94.477441	8.561538
-91.818958	7.622378
-89.163398	6.112587
-86.506410	5.880420
-83.854519	8.465035
-81.201199	11.194406
-78.550799	9.723077
-75.898969	8.783217
-73.252230	11.109091
-70.604061	12.346853
-67.956636	10.711888
-65.312124	8.209091
-62.666184	8.122378
-60.025325	6.862238
-57.383037	8.176224
-54.743657	7.672028
-52.102849	10.786014
-49.462781	13.067133
-46.827785	14.011888
-44.191360	16.023077
-41.557839	18.194406
-38.922889	19.041958
-36.293004	22.413287
-33.659527	24.126573
-31.031112	26.201399
-28.403430	30.190210
-25.774321	17.601399
-23.150268	-93.635664
-20.522626	-561.355245
-17.900037	-1471.813287
-15.278180	-2241.045455
-12.657053	693.808392
-10.036656	6979.300000
-7.419147	12426.028671
-4.800210	16304.323077
-2.184159	18576.488811
0.431164	19244.011189
3.045760	18308.023776
5.657473	15774.895105
8.270615	11709.002797
10.878723	6389.118182
13.490413	859.971329
16.097072	-2865.469231
18.705159	-2293.652448
21.312522	-281.072028
23.914860	43.525175
26.520776	50.519580
29.121670	47.932168
31.723992	46.170629
34.321297	38.751748
36.922177	32.509790
39.518043	28.374126
42.115336	23.038462
44.711910	18.358042
47.303475	14.241259
49.896468	10.553846
52.486600	8.886014
55.078160	7.044755
57.666860	7.344056
60.256987	9.650350
62.842116	9.641958
65.428671	6.748252
68.014513	10.443357
70.597501	13.340559
73.181915	13.730070
75.759201	14.667133
78.340053	14.430070
80.918056	14.920280
83.495349	16.392308
86.074068	15.710490
88.647806	14.834965
91.222970	13.374825
93.795291	8.501399
96.366904	8.090210
98.935677	8.520979
101.505877	9.306993
104.073239	11.006294
106.642026	9.845455
109.207977	10.158042
111.771093	10.487413
114.337765	11.189510
116.895216	13.662238
119.458352	17.890210
122.016529	23.914685
124.578259	36.547552
127.135034	60.070629
129.693234	90.558741
132.246482	130.878322
134.799031	178.011888
137.355131	226.469930
139.906284	275.472727
142.456738	321.060839
145.006496	361.925175
147.553434	391.127972
150.099676	408.247552
152.647344	416.561538
155.194317	420.965035
157.736353	418.190210
160.277696	418.697203
162.818346	415.682517
165.360422	418.334266
167.899687	417.944056
170.436142	419.934965
172.971907	420.562937
175.509097	422.740559
178.045595	419.364336
180.579288	415.409091
183.110178	411.946853
185.640379	406.965035
188.172005	400.645455
190.700830	399.513986
193.226856	398.393706
195.752197	401.653846
198.278962	398.552448
200.802930	399.026573
203.326214	401.287413
205.848813	405.725874
208.368619	405.622378
210.887742	405.496503
213.406182	405.800000
215.926046	406.858042
218.438909	407.254545
220.955303	409.848252
223.471015	413.648252
225.981838	415.899301
228.494085	416.711189
231.003549	417.955245
233.512335	422.348252
236.020443	425.320979
238.529974	423.379720
241.034625	423.384615
243.538601	421.092308
246.044000	421.977622
248.544524	419.797902
251.048571	421.915385
253.545648	425.375524
256.046247	429.117483
258.544075	433.903497
261.041230	437.350350
263.537712	444.615385
266.029331	449.097902
268.524470	448.495105
271.016843	452.381818
273.508545	453.197203
275.997483	454.590210
278.487846	454.479720
280.975447	457.627273
283.460288	461.709091
285.948643	462.672727
288.430059	469.278322
290.914989	470.873427
293.395074	475.239860
295.878671	473.543357
298.357425	473.607692
300.837603	479.076923
303.315028	479.937762
305.791790	484.879720
308.267889	501.309790
310.741239	531.914685
313.213927	559.883217
315.685954	587.725175
318.157320	613.478322
320.625942	623.630070
323.093904	625.743357
325.563289	614.143357
328.027850	597.577622
330.495916	576.291608
332.959162	550.545455
335.421750	530.222378
337.883682	521.146853
340.344957	518.588112
342.803498	514.199301
345.263461	516.531469
347.720691	517.406294
350.177267	517.606993
352.633189	517.208392
355.086382	515.429371
357.540996	513.987413
359.990809	512.488112
362.444119	511.546154
364.892629	509.563636
367.340489	512.460839
369.789770	516.188112
372.234258	519.784615
374.680168	521.221678
377.125429	524.555245
379.567970	526.566434
382.009864	527.353147
384.451111	526.269231
386.889642	523.799301
389.329595	515.024476
391.766834	510.000699
394.201361	508.267133
396.639376	511.740559
399.072614	513.495804
401.507274	513.012587
403.937160	515.633566
406.370532	516.927273
408.799134	518.344056
411.227095	522.088112
413.656476	526.568531
416.081092	527.137762
418.507130	524.790909
420.932527	527.423077
423.357284	527.830070
425.777283	529.437762
428.198703	530.228671
430.617426	530.553147
433.037570	532.286014
435.455019	530.253147
437.873888	531.441958
440.290064	532.182517
442.701493	532.782517
445.116398	530.204196
447.528613	531.655944
449.940194	530.307692
452.351141	527.508392
454.759402	522.468531
457.167030	518.215385
459.574027	511.713986
461.980391	505.694406
464.384073	502.169231
466.787125	500.283916
469.189547	494.684615
471.591340	491.123077
473.990454	491.088112
476.390988	493.680420
478.790893	496.244056
481.186075	501.716783
483.584724	503.072727
485.978653	504.162238
488.371956	498.112587
490.764633	490.875524
493.156685	480.335664
495.550156	466.088112
497.938914	445.514685
500.325006	426.959441
502.712518	406.442657
505.099406	387.793007
507.483631	371.553846
509.869275	356.230070
512.252256	343.986014
514.632577	331.544056
517.014317	319.455944
519.393398	314.805594
521.773898	308.423776
524.151740	302.330769
526.526927	296.895105
528.901496	291.376923
531.277484	286.953147
533.650818	283.155245
536.025570	275.497203
538.395637	271.549650
540.765088	270.960839
543.135957	267.175524
545.502146	264.664336
547.869753	265.279720
550.234714	262.718881
552.599062	258.186713
554.962798	255.751748
557.327951	256.397902
559.688431	258.290909
562.050330	259.337762
564.409589	256.885315
566.766209	257.797902
569.126274	254.890210
571.479649	251.031469
573.836468	246.517483
576.190651	242.667133
578.544227	237.247552
580.897194	233.598601
583.247530	234.409790
585.599282	235.925175
587.944358	236.662937
590.294898	240.429371
592.638765	240.983217
594.988092	240.169930
597.332772	240.152448
599.674826	241.280420
602.018298	240.964336
604.359147	238.307692
606.699394	233.228671
609.037020	232.174825
611.378081	229.319580
613.714504	224.574126
616.052345	222.178322
618.387567	220.359441
620.720174	218.532867
623.054197	215.034965
625.385607	215.736364
627.716418	215.811189
630.046631	216.028671
632.376246	212.488811
634.701239	212.682517
637.031673	214.362238
639.357485	211.290909
641.680691	210.746154
644.005312	208.511189
646.327329	202.384615
648.648751	200.497902
650.967570	197.346853
653.287805	195.040559
655.607447	188.217483
657.924488	188.716084
660.240937	190.914685
662.554788	192.239860
664.870055	193.944755
667.182725	195.097203
669.496810	196.261538
671.806295	195.052448
674.117196	191.265734
676.425504	193.579720
678.733224	191.498601
681.042359	189.262238
683.346901	185.069231
685.650856	187.218182
687.954226	187.584615
690.259010	182.501399
692.559208	182.545455
694.860820	181.491608
697.161848	179.404895
699.458293	178.809091
701.756154	176.195804
704.053431	177.874126
706.350125	176.144056
708.642243	175.415385
710.937772	177.886014
713.228728	176.641958
715.521098	181.471329
717.810892	181.891608
720.100107	182.841958
722.388741	183.177622
724.674804	183.211189
726.962280	181.118182
729.247186	182.144755
731.531513	181.274825
733.813272	181.051049
736.096445	181.449650
738.379041	185.149650
740.657082	185.309091
742.936536	190.411888
745.215415	189.986713
747.493718	190.179720
749.767472	190.154545
752.042640	188.890909
754.317234	190.118182
756.589268	193.451748
758.862716	192.156643
761.133606	192.812587
763.401940	194.485315
765.671687	197.895804
767.938880	200.815385
770.205502	204.520979
772.471555	205.216783
774.735055	206.220979
776.999969	205.190909
779.264313	206.198601
781.524128	205.024476
783.785356	204.190909
786.046015	200.006993
788.304129	197.390210
790.559698	202.969930
792.818658	203.975524
795.071119	205.197902
797.328947	206.446154
799.582255	204.608392
801.833024	203.749650
804.085205	203.151049
806.334848	203.173427
808.585902	197.986014
810.832445	195.239161
813.080400	187.488112
815.325821	184.653147
817.572653	186.953846
819.818924	181.047552
822.060691	178.074825
824.305840	179.025874
826.544517	181.928671
828.786577	182.609091
831.024138	187.030070
833.263110	186.480420
835.499556	184.925874
837.737413	182.720280
839.972745	180.047552
842.205554	177.500699
844.439774	175.462238
846.671472	170.233566
848.902615	166.390909
851.133203	166.984615
853.363236	165.990210
855.592716	161.561538
857.817714	161.455944
860.046087	160.171329
862.269981	161.281119
864.495285	163.546154
866.716114	166.924476
868.940315	165.190909
871.160043	165.469231
873.381182	165.467133
875.601770	165.128671
877.819848	166.634266
880.039337	166.123077
882.254359	167.012587
884.468833	167.592308
886.682760	170.685315
888.896139	174.232867
891.108971	177.673427
893.321257	177.992308
895.531040	178.084615
897.740278	178.497203
899.948971	179.646154
902.155165	177.205594
904.362768	175.077622
906.567874	172.938462
908.772436	172.641958
910.974502	169.655245
913.177978	170.387413
915.378960	170.035664
917.579401	168.717483
919.781249	170.344056
921.976707	171.427273
924.175524	172.385315
926.369902	174.126573
928.567638	172.008392
930.760938	169.816084
932.955647	167.918881
935.147870	169.144755
937.339555	166.189510
939.530702	167.232867
941.719366	165.683217
943.907493	170.879021
946.093140	174.545455
948.282139	176.130070
950.466715	180.799301
952.650756	183.839860
954.838147	187.506294
957.017234	190.849650
959.199672	196.218182
961.381576	203.298601
963.561006	202.732168
965.737963	208.145455
967.916327	207.198601
970.096099	213.593706
972.269522	215.260839
974.446291	219.355245
976.618653	223.259441
978.792423	224.291608
980.961789	227.760140
983.134500	232.555245
985.304744	237.755245
987.474460	241.055944
989.643647	241.633566
991.808437	242.697203
993.976568	240.775524
996.140305	242.495105
998.305448	244.107692
1000.468133	248.781818
1002.630291	252.261538
1004.789993	254.712587
1006.949171	257.939161
1009.109755	261.395804
1011.267884	263.195804
1013.425489	264.747552
1015.582571	266.960140
1017.739130	266.286014
1019.891309	268.383916
1022.044894	270.988112
1024.197958	275.800000
1026.348574	283.346154
1028.500595	288.185315
1030.648243	293.844755
1032.799223	296.223077
1034.945832	298.447552
1037.091923	298.029371
1039.237494	298.577622
1041.384471	299.406294
1043.525159	301.003497
1045.669177	302.439860
1047.810754	305.222378
1049.951815	307.114685
1052.094280	309.295105
1054.230466	306.133566
1056.369978	306.288811
1058.505134	304.034266
1060.643615	301.838462
1062.777742	298.459441
1064.911356	300.450350
1067.046375	298.902098
1069.177044	299.007692
1071.309118	295.880420
1073.438763	293.065035
1075.567896	290.587413
1077.696517	284.767133
1079.824627	279.566434
1081.950311	278.544056
1084.075485	272.716084
1086.202063	268.447552
1088.324304	267.059441
1090.447948	269.979021
1092.567259	264.105594
1094.691798	263.671329
1096.810092	259.262238
1098.929791	254.765035
1101.047071	249.611888
1103.163845	243.325874
1105.280112	239.673427
1107.393964	237.660839
1109.509219	230.184615
1111.620152	229.521678
1113.734396	227.248252
1115.844320	223.751748
1117.955648	218.604895
1120.066471	220.868531
1122.172979	218.893007
1124.282795	217.936364
1126.388297	216.941958
1128.495202	216.337762
1130.595892	213.825874
1132.701794	213.883217
1134.803387	208.719580
1136.906383	208.734965
1139.008878	205.027273
1141.105166	201.432168
1143.206662	200.976923
1145.303855	203.220979
1147.400549	201.518182
1149.496745	204.711888
1151.592444	205.684615
1153.687645	203.241259
1155.780449	201.422378
1157.874655	199.690909
1159.962670	195.851748
1162.055883	197.320280
1164.142908	195.350350
1166.233232	193.639161
1168.319269	193.579021
1170.408603	192.953147
1172.491756	192.231469
1174.576311	196.319580
1176.662268	196.832168
1178.743943	195.199301
1180.827020	195.890909
1182.907711	196.158741
1184.987910	194.893706
1187.067618	194.548252
1189.146835	192.137063
1191.223670	191.730070
1193.298124	189.824476
1195.375870	189.918881
1197.449345	190.743357
1199.524221	190.585315
1201.594830	192.412587
1203.666841	192.862937
1205.736475	190.656643
1207.807510	191.140559
1209.878057	188.442657
1211.944343	188.560140
1214.012030	188.563636
1216.077345	188.350350
1218.144060	185.688811
1220.206519	186.187413
1222.272263	183.662238
1224.333754	180.597902
1226.396644	179.400699
1228.457167	173.916084
1230.517206	167.990909
1232.576763	165.330769
1234.633954	165.441259
1236.690664	165.179720
1238.745011	164.540559
1240.802638	166.978322
1242.857903	168.575524
1244.908927	169.911189
1246.961351	170.605594
1249.013295	169.078322
1251.062881	166.584615
1253.111988	164.402797
1255.160617	162.281818
1257.208767	157.810490
1259.256439	159.558741
1261.299880	156.988112
1263.346596	156.156643
1265.390959	158.368531
1267.434846	157.285315
1269.476382	159.445455
1271.515567	159.572727
1273.558026	158.096503
1275.596262	158.562238
1277.635897	161.837063
1279.675057	161.821678
1281.709998	161.038462
1283.746339	164.075524
1285.780334	160.743357
1287.815728	156.902098
1289.846908	153.751748
1291.879487	150.541958
1293.911593	149.647552
1295.941359	143.230070
1297.972523	142.134965
1299.999479	141.325175
1302.027833	145.707692
1304.051983	148.564336
1306.079397	150.141958
1308.102609	150.228671
1310.127219	148.680420
1312.149495	148.120979
1314.173168	146.721678
1316.194508	148.889510
1318.215380	146.306993
1320.235786	143.916783
1322.251997	145.879021
1324.269606	146.934965
1326.284888	151.774825
1328.303427	149.828671
1330.317778	148.967133
1332.329803	147.693007
1334.345085	146.594406
1336.356182	145.330070
1338.368676	144.079021
1340.376987	143.475524
1342.388554	141.788112
1344.394081	141.795105
1346.402864	143.671329
1348.407469	145.857343
1350.415328	147.695804
1352.422725	144.621678
1354.424091	147.213287
1356.426854	149.500699
1358.429156	145.756643
1360.430999	145.444056
1362.432382	145.000699
1364.431452	145.810490
1366.430063	146.493706
1368.428216	148.941259
1370.425911	150.025175
1372.419442	148.560839
1374.414370	147.561538
1376.408841	146.223077
1378.402855	147.241958
1380.394561	145.579720
1382.385813	141.625874
1384.374759	143.899301
1386.365100	145.458741
1388.354986	147.034965
1390.342569	146.762937
1392.329697	150.484615
1394.314525	150.498601
1396.300746	150.581119
1398.284668	152.446154
1400.268137	153.610490
1402.251154	152.963636
1404.231872	150.573427
1406.213986	151.429371
1408.193802	151.245455
1410.173168	148.860140
1412.148394	148.139161
1414.126860	148.267133
1416.103031	150.783217
1418.078754	153.120280
1420.054027	157.160140
1422.027009	159.263636
1423.999543	157.861538
1425.971630	159.189510
1427.943268	159.300699
1429.910778	158.924476
1431.883363	154.465035
1433.848141	153.144056
1435.817991	149.879021
1437.783718	148.980420
1439.750837	148.854545
1441.715673	148.146853
1443.676390	147.478322
1445.642174	146.018182
1447.602003	143.993007
1449.563225	147.653147
1451.525840	149.597902
1453.484340	151.167133
1455.442398	152.403497
1457.400013	158.225175
1459.357187	157.400000
1461.312085	163.800000
1463.268375	165.313986
1465.222391	164.875524
1467.175967	164.664336
1469.127270	163.823077
1471.079965	158.312587
1473.030389	156.016084
1474.980373	152.044755
1476.929919	152.588112
1478.877196	153.101399
1480.822206	158.149650
1482.768607	161.987413
1484.714572	168.706294
1486.660098	168.440559
1488.603360	170.143357
1490.546185	169.731469
1492.486747	169.603497
1494.428700	164.567133
1496.368392	165.735664
1498.307648	165.341958
1500.246469	167.815385
1502.183031	168.758741
1504.120984	172.432168
1506.056679	174.260839
1507.991939	172.466434
1509.924944	172.609790
1511.857516	174.086014
1513.789656	174.789510
1515.721364	177.394406
1517.650818	179.820280
1519.581663	185.755944
1521.512077	188.205594
1523.438417	190.976923
1525.366149	192.817483
1527.291630	193.904895
1529.216682	194.551049
1531.141305	193.674126
1533.065499	198.597203
1534.987446	200.918881
1536.910782	204.271329
1538.831873	208.727972
1540.750719	213.123077
1542.670955	219.436364
1544.588947	228.393706
1546.506513	241.106294
1548.421837	254.754545
1550.338551	270.688811
1552.251210	284.434965
1554.167073	300.792308
1556.080696	321.885315
1557.992082	343.169930
1559.904856	370.899301
1561.813581	411.655245
1563.723696	464.813986
1565.633387	544.638462
1567.542654	667.244755
1569.449688	836.031469
1571.354489	1038.851049
1573.260679	1262.478322
1575.164637	1465.348252
1577.068175	1624.491608
1578.971291	1706.338462
1580.872179	1700.566434
1582.774454	1608.376224
1584.674502	1449.364336
1586.575937	1233.790210
1588.473339	1005.825874
1590.370322	799.883217
1592.266887	631.378322
1594.164840	507.565035
1596.056958	432.866434
1597.952269	381.651049
1599.847163	348.241958
1601.739835	318.827273
1603.632091	295.469930
1605.522126	275.217483
1607.411747	263.181818
1609.300951	247.467832
1611.189741	238.626573
1613.076314	232.909091
1614.964273	226.049650
1616.848216	220.118182
1618.733547	217.695804
1620.618463	212.002797
1622.501166	207.872028
1624.385256	202.058042
1626.265335	200.439161
1628.146800	196.941259
1630.026055	194.478322
1631.906696	188.338462
1633.781533	182.956643
1635.661352	179.813287
1637.537165	174.880420
1639.412568	173.430769
1641.289358	169.586713
1643.160350	167.184615
1645.034524	167.640559
1646.904700	166.546154
1648.778056	168.960839
1650.649209	165.789510
1652.518160	168.447552
1654.388497	167.218182
1656.254840	167.754545
1658.122569	167.880420
1659.988100	168.211189
1661.855015	167.362937
1663.717942	163.139161
1665.582254	164.142657
1667.444370	161.500000
1669.306082	159.776923
1671.169178	161.125874
1673.030080	158.994406
1674.888788	162.676224
1676.747093	160.858042
1678.606783	163.025175
1680.460706	164.176224
1682.317801	166.115385
1684.174494	163.244056
1686.027211	160.930769
1687.883098	159.669930
1689.735012	156.941958
1691.586525	157.506993
1693.437637	159.700699
1695.288349	161.481119
1697.138660	162.823077
1698.986787	161.681818
1700.836297	164.979720
1702.680059	164.339860
1704.528770	163.848252
1706.371736	159.290909
1708.217867	156.995105
1710.060037	155.425175
1711.905371	155.827273
1713.744965	156.769930
1715.585943	160.365734
1717.428304	164.367133
1719.266709	164.894406
1721.106497	163.567133
1722.944110	165.311189
1724.781327	163.546154
1726.616371	162.531469
1728.452798	160.383916
1730.287053	160.852448
1732.120913	161.026573
1733.954380	162.533566
1735.783900	163.136364
1737.616579	164.933566
1739.445314	166.014685
1741.277207	165.040559
1743.105157	165.125175
1744.932715	167.620280
1746.759881	167.972727
1748.586656	168.220979
1750.413040	168.101399
1752.235487	167.068531
1754.061088	165.883916
1755.882755	162.132867
1757.705804	160.103497
1759.526692	159.041259
1761.347190	156.092308
1763.169070	153.137762
1764.985250	152.083916
1766.804582	152.489510
1768.619987	149.972028
1770.438542	147.733566
1772.253172	147.622378
1774.067416	149.463636
1775.881272	150.981818
1777.694742	152.813986
1779.506059	156.689510
1781.318757	157.895105
1783.131068	158.229371
1784.939462	159.300000
1786.749237	159.634266
1788.555096	159.269930
1790.364101	151.514685
1792.169193	148.620979
1793.975666	149.938462
1795.781755	152.516084
1797.583934	152.667133
1799.389256	153.892308
1801.190670	153.643357
1802.993464	152.752448
1804.792352	154.842657
1806.592621	156.196503
1808.392508	153.238462
1810.190254	153.563636
1811.987618	151.960839
1813.784603	156.058741
1815.581207	157.835664
1817.375672	160.122378
1819.171516	158.480420
1820.961706	158.995105
1822.756792	158.453147
1824.546225	157.605594
1826.338795	156.341958
1828.129230	157.355944
1829.917531	153.711189
1831.708967	156.163636
1833.494757	156.731469
1835.281927	157.448252
1837.066965	155.588811
1838.855137	158.427273
1840.639423	158.876923
1842.421580	160.140559
1844.205115	161.466434
1845.986522	163.149650
1847.769308	161.500000
1849.548214	162.286713
1851.328498	158.667832
1853.106656	156.765035
1854.886193	154.865035
1856.663605	151.850350
1858.438893	149.402098
1860.215560	150.025874
1861.990103	148.831469
1863.766025	148.269930
1865.536326	149.523077
1867.309755	150.776224
1869.081064	149.583916
1870.852003	151.588811
1872.624318	153.007692
1874.391020	152.090210
1876.160848	156.076923
1877.926812	156.648951
1879.695900	157.403497
1881.461126	158.744056
1883.225983	159.247552
1884.992218	159.164336
1886.754594	156.934266
1888.516603	158.671329
1890.278244	159.554545
1892.039519	161.135664
1893.800426	159.694406
1895.560967	155.941259
1897.319398	158.473427
1899.077464	155.800699
1900.833421	154.140559
1902.590756	154.248951
1904.347724	152.824476
1906.102587	149.720280
1907.855344	146.164336
1909.607738	148.600699
1911.361507	147.469231
1913.113173	150.348951
1914.862737	150.064336
1916.613677	151.268531
1918.364253	151.577622
1920.110990	149.776923
1921.859104	150.216783
1923.605118	153.079021
1925.352508	154.132867
1927.097799	152.101399
1928.840993	148.479720
1930.585563	150.597902
1932.328036	149.967133
1934.070149	154.678322
1935.811902	153.653846
1937.553296	152.544755
1939.292596	148.576923
1941.031536	149.945455
1942.770119	150.903497
1944.506609	153.075524
1946.242742	152.725175
1947.980249	151.641259
1949.713934	151.604895
1951.448994	155.655245
1953.181966	156.783916
1954.914581	158.721678
1956.646839	156.814685
1958.378741	157.654545
1960.108557	160.285315
1961.836289	163.994406
1963.565394	162.025874
1965.294145	162.415385
1967.020812	158.793706
1968.747125	158.323077
1970.474811	155.984615
1972.196961	155.581119
1973.922212	153.913287
1975.643657	151.711189
1977.368201	154.004895
1979.090666	157.951049
1980.809327	158.659441
1982.531087	158.875524
1984.249045	156.532168
1985.968376	157.160839
1987.683908	155.190909
1989.404261	154.274825
1991.120814	151.902098
1992.833571	153.939860
1994.549425	155.770629
1996.263205	155.535664
1997.976636	159.802797
1999.687996	160.181818
2001.400729	158.830070
2003.109670	158.565734
2004.821705	158.038462
2006.528230	156.874126
2008.237848	154.795804
2009.945398	152.971329
2011.652601	151.793007
2013.357738	154.640559
2015.062528	156.804196
2016.768690	156.283217
2018.471070	157.299301
2020.174822	157.878322
2021.876510	158.579720
2023.577854	159.201399
2025.278852	161.016084
2026.977790	159.126573
2028.678098	155.612587
2030.374632	153.135664
2032.072537	153.253846
2033.768383	154.393706
2035.467315	154.053147
2037.160761	153.600699
2038.855579	151.153147
2040.550053	151.097902
2042.240759	152.246853
2043.934549	154.855944
2045.624572	156.540559
2047.315966	156.252448
2049.005307	155.848951
2050.696018	158.330769
2052.382966	162.672028
2054.069575	164.772028
2055.757554	163.952448
2057.441773	161.178322
2059.127362	156.039161
2060.812612	151.445455
2062.495814	149.297203
2064.180385	147.544755
2065.859494	146.907692
2067.543388	148.215385
2069.221822	150.001399
2070.903332	154.625175
2072.581092	159.696503
2074.258514	163.298601
2075.937306	162.071329
2077.614056	160.670629
2079.288764	157.871329
2080.964841	154.883916
2082.638878	152.094406
2084.312579	149.547552
2085.985945	147.419580
2087.657273	145.688811
2089.328266	145.897902
2090.998925	147.323776
2092.669249	149.329371
2094.339240	151.867832
2096.007195	152.051748
2097.674817	154.593007
2099.340404	153.892308
2101.007361	157.448951
2102.672283	154.508392
2104.336874	150.925874
2105.999433	149.476224
2107.663360	148.929371
2109.325257	147.181818
2110.986822	148.232168
2112.648056	149.041958
2114.307262	151.183217
2115.966137	152.711189
2117.624683	155.011888
2119.282899	158.209790
2120.937391	162.783217
2122.594948	159.742657
2124.252176	156.659441
2125.905682	157.813287
2127.560556	155.619580
2129.211712	150.545455
2130.865929	150.606993
2132.516430	144.284615
2134.168297	143.900699
2135.814756	144.753147
2137.465970	144.628671
2139.113470	146.560140
2140.762337	146.997902
2142.409186	149.192308
2144.055708	152.571329
2145.701905	156.446154
2147.344394	161.861538
2148.989941	162.176923
2150.631781	163.712587
2152.276678	163.221678
2153.917870	165.004196
2155.558738	167.370629
2157.199282	164.980420
2158.837814	163.326573
2160.477712	162.272727
2162.113910	160.715385
2163.751475	162.286014
2165.388716	160.127972
2167.023948	160.812587
2168.658859	158.255245
2170.293448	156.887413
2171.927715	156.025874
2173.558289	153.988112
2175.191915	153.272028
2176.821849	149.488811
2178.453148	149.268531
2180.082442	147.144755
2181.711417	147.444056
2183.340073	150.853147
2184.968409	150.351049
2186.594742	152.160839
2188.220757	152.244056
2189.844771	152.292308
2191.470149	151.513986
2193.093528	147.688112
2194.718270	145.134965
2196.339332	142.315385
2197.960077	140.578322
2199.582187	140.483217
2201.202299	143.755944
2202.820414	149.145455
2204.438214	149.871329
2206.055699	151.925175
2207.672868	151.553147
2209.289722	152.479021
2210.906261	153.695105
2212.520806	154.055245
2214.133359	155.364336
2215.747276	154.726573
2217.359202	154.190210
2218.972491	157.955944
2220.583790	159.660839
2222.193099	162.009790
2223.803772	160.946154
2225.412456	161.870629
2227.020828	159.785315
2228.627212	154.945455
2230.234960	153.579720
2231.840721	151.344755
2233.446171	148.506993
2235.049636	147.669231
2236.654464	146.920280
2238.257309	148.479720
2239.858170	149.449650
2241.460393	153.186713
2243.060635	156.597902
2244.662239	159.406993
2246.260191	158.603497
2247.859505	157.967133
2249.456839	157.486713
2251.053864	157.604196
2252.652252	154.044056
2254.246991	152.621678
2255.839753	150.923077
2257.433878	148.823077
2259.029364	148.833566
2260.621206	150.245455
2262.212741	149.004895
2263.805637	151.177622
2265.393224	150.570629
2266.985508	152.244056
2268.572484	150.852448
2270.162489	151.662238
2271.747189	146.290210
2273.336583	148.096503
2274.920674	145.227972
2276.506127	144.044755
2278.089610	143.905594
2279.676120	144.276923
2281.258996	142.751049
2282.841568	145.011538
2284.423837	146.711888
2286.002477	150.409441
2287.584140	152.346853
2289.162175	152.897552
2290.743233	151.802797
2292.320665	153.282867
2293.896132	148.674825
2295.474622	148.486364
2297.049488	144.731469
2298.624053	142.419930
2300.198318	138.610490
2301.772282	138.197552
2303.345946	139.550350
2304.919309	143.201399
2306.489054	147.338462
2308.058500	148.904895
2309.630965	156.034266
2311.198154	159.804196
2312.768362	159.242657
2314.334955	160.995105
2315.902908	155.657343
2317.468905	152.477622
2319.034605	152.156643
2320.600008	157.067832
2322.163456	164.894406
2323.728264	175.269231
2325.289464	183.106294
2326.853678	185.899301
2328.412631	190.695804
2329.974597	186.318182
2331.534613	178.632867
2333.094333	167.940559
2334.652104	153.084615
2336.209580	146.016783
2337.766762	139.537063
2339.321997	140.257343
2340.876937	140.971329
2342.431584	144.183217
2343.985937	143.120979
2345.539996	142.803497
2347.093761	146.851049
2348.645583	146.708392
2350.195461	147.363636
2351.748347	145.979720
2353.295991	147.322378
2354.846642	149.560839
2356.393702	148.230769
2357.942121	152.400000
2359.490247	155.859441
2361.034785	157.247552
2362.580681	158.117483
2364.124639	158.542657
2365.669954	157.330769
2367.211684	153.697203
2368.754771	151.572028
2370.295923	148.860140
2371.836785	147.915385
2373.377358	147.848951
2374.917641	147.262238
2376.457636	150.653846
2377.994053	152.371329
2379.533471	153.042657
2381.069312	152.849650
2382.606509	150.241259
2384.140131	148.319580
2385.676754	147.830070
2387.211445	149.847552
2388.744207	150.624476
2390.276682	151.716783
2391.807230	152.492308
2393.340775	154.719580
2394.869109	157.146154
2396.398799	157.846154
2397.928204	159.169231
2399.457323	156.386713
2400.986158	157.092308
2402.509787	156.451748
2404.038053	157.130070
2405.561115	156.900699
2407.088811	157.740559
2408.609668	155.534965
2410.135158	156.610490
2411.657087	158.823077
2413.180372	162.411888
2414.701736	165.247552
2416.221180	164.768531
2417.741979	165.037762
2419.260859	165.488811
2420.779457	162.775524
2422.296138	164.376923
2423.814173	160.434965
2425.331927	161.385315
2426.846130	159.092308
2428.360052	164.284615
2429.873694	166.970629
2431.388691	172.352448
2432.900139	175.296503
2434.412942	176.123776
2435.923832	180.524476
2437.434442	183.555245
2438.943141	186.970629
2440.454827	190.457343
2441.962968	189.762937
2443.470832	190.306294
2444.978418	188.667133
2446.482463	190.150350
2447.989494	188.455245
2449.494616	186.444056
2450.999461	183.941958
2452.502399	179.591608
2454.005060	178.226573
2455.507445	178.963636
2457.007925	176.396503
2458.509758	174.711189
2460.009687	175.144755
2461.509340	171.711888
2463.008717	170.277622
2464.506192	168.467832
2466.001765	164.674825
2467.500319	163.970629
2468.995343	161.148252
2470.491721	159.367133
2471.984571	161.295804
2473.478775	163.146154
2474.972705	161.599301
2476.463112	164.343357
2477.956495	165.555245
2479.447981	163.260839
2480.937570	162.404895
2482.426887	160.850350
2483.914309	158.544056
2485.404706	159.324476
2486.891584	158.260839
2488.379814	158.542657
2489.864528	162.160140
2491.348971	163.082517
2492.834766	163.547552
2494.318668	162.549650
2495.803922	159.897902
2497.284042	160.106993
2498.767134	159.677622
2500.248336	161.172028
2501.729269	157.333566
2503.208313	157.241259
2504.687088	157.283217
2506.165595	155.939860
2507.643834	156.488112
2509.121804	156.659441
2510.596270	155.358741
2512.073704	152.665035
2513.547635	153.558042
2515.022916	158.525175
2516.497931	157.513986
2517.969444	156.208392
2519.442307	153.350350
2520.913288	155.590909
2522.385619	155.094406
2523.852837	152.890909
2525.323020	150.441259
2526.791323	150.784615
2528.259361	149.702098
2529.727134	149.453846
2531.194642	153.712587
2532.661885	159.155944
2534.125636	157.155245
2535.590737	158.109790
2537.053961	158.785315
2538.518535	161.627972
2539.979619	162.196503
2541.442053	163.431469
2542.904224	160.266434
2544.362909	160.055944
2545.826166	157.452448
2547.284326	159.065035
2548.743835	161.151049
2550.198251	160.632867
2551.657236	158.938462
2553.114350	159.039860
2554.569593	157.613287
2556.024575	156.511888
2557.477687	155.735664
2558.932148	156.022378
2560.384740	151.560839
2561.837072	151.886014
2563.287536	153.628671
2564.740956	156.537063
2566.189294	155.550350
2567.640588	155.565734
2569.090015	157.492308
2570.535970	159.490210
2571.984881	162.075524
2573.430320	162.803497
2574.877108	163.740559
2576.322032	164.008392
2577.766699	164.292308
2579.212713	164.487413
2580.655260	165.446154
2582.099155	163.604895
2583.539585	160.705594
2584.981362	161.560839
2586.421280	161.478322
2587.862545	162.754545
2589.300349	167.637063
2590.741102	168.120280
2592.176792	168.092308
2593.615432	168.641958
2595.052215	168.667832
2596.487141	166.569930
2597.925016	165.209790
2599.357832	163.242657
2600.791996	159.208392
2602.224306	160.718182
2603.657962	160.544755
2605.089765	165.076923
2606.521315	169.921678
2607.952611	172.386713
2609.382055	176.948951
2610.811248	179.616084
2612.238589	181.485315
2613.667277	182.443357
2615.095712	179.620979
2616.520700	176.782517
2617.947035	171.553147
2619.371521	172.512587
2620.797353	173.953147
2622.219741	178.859441
2623.643475	179.617483
2625.065362	181.288112
2626.487000	185.876224
2627.906792	187.001399
2629.327930	191.790210
2630.748818	193.744755
2632.166268	194.465035
2633.586657	196.233566
2635.003609	198.474126
2636.420313	201.383916
2637.836768	207.590909
2639.252975	212.641259
2640.668933	215.758741
2642.083051	220.427972
2643.496922	226.246853
2644.908953	230.055944
2646.322329	234.844056
2647.732275	236.876923
2649.145156	240.548951
2650.554610	247.862937
2651.963817	254.643357
2653.371187	257.837063
2654.781493	264.667133
2656.189962	271.416783
2657.596596	278.211189
2659.002985	288.469930
2660.407540	293.130070
2661.813439	296.630070
2663.217505	303.325175
2664.621326	309.304196
2666.024904	316.911189
2667.426649	327.757343
2668.829738	337.652448
2670.229409	343.991608
2671.630424	352.911888
2673.028023	358.523077
2674.428552	364.412587
2675.825666	370.658741
2677.224123	369.367133
2678.620752	367.486713
2680.017139	369.147552
2681.413285	367.276923
2682.807604	368.562238
2684.203266	370.778322
2685.595518	373.848951
2686.989114	378.486014
2688.380885	383.010490
2689.773998	386.336364
2691.165288	392.297902
2692.554755	396.995804
2693.943982	397.658042
2695.332970	403.234965
2696.723300	407.709091
2698.108645	415.716783
2699.496914	423.281119
2700.883363	430.359441
2702.269573	441.376923
2703.655545	456.202797
2705.038117	473.534266
2706.422032	491.508392
2707.805709	509.796503
2709.189148	529.477622
2710.569191	550.336364
2711.950576	574.465734
2713.330145	584.166434
2714.711056	594.716783
2716.090151	599.447552
2717.467433	600.254545
2718.846056	590.895105
2720.222866	578.525874
2721.599440	566.325175
2722.975778	546.234965
2724.350304	527.580420
2725.726171	510.525175
2727.098651	492.556643
2728.474047	473.730769
2729.844483	447.956643
2731.216260	432.918182
2732.587802	416.565035
2733.957536	398.940559
2735.328611	376.848951
2736.697877	361.055245
2738.066911	346.680420
2739.434137	332.352448
2740.801131	320.377622
2742.167892	310.212587
2743.534420	300.309790
2744.899143	287.309790
2746.263635	275.518881
2747.627894	266.220280
2748.991921	251.491608
2750.355717	239.308392
2751.716139	228.211888
2753.079472	218.666434
2754.437862	210.383217
2755.799162	205.747552
2757.157091	199.048951
2758.517930	196.232168
2759.876968	194.209091
2761.232638	189.213986
2762.591216	187.448252
2763.946428	183.159441
2765.301410	179.743357
2766.654595	176.759441
2768.010687	174.731469
2769.363415	175.870629
2770.715914	174.627273
2772.068185	174.043357
2773.421795	170.065035
2774.772043	170.209790
2776.120498	169.223776
2777.471857	167.490210
2778.819857	164.758042
2780.169196	162.206993
2781.516742	161.626573
2782.864061	158.727972
2784.211154	155.680420
2785.556456	154.918182
2786.901532	152.213287
2788.246382	152.053846
2789.591005	150.453147
2790.932277	148.825874
2792.274887	146.719580
2793.617271	146.834965
2794.959431	146.548951
2796.298241	145.401399
2797.639950	145.450350
2798.978312	144.839860
2800.318011	142.151748
2801.655924	144.743357
2802.992053	147.921678
2804.327958	151.309091
2805.665201	151.468531
2807.000660	152.776923
2808.335896	152.139860
2809.669349	152.652448
2811.004140	151.736364
2812.335589	148.318881
2813.669934	144.778322
2814.999381	142.320280
2816.330165	137.990210
2817.660727	137.056643
2818.989510	135.372727
2820.319629	136.695804
2821.647970	137.447552
2822.976090	139.094406
2824.302432	140.237762
2825.630111	143.895105
2826.954457	144.541259
2828.280138	145.109790
2829.604044	140.894406
2830.927731	139.451748
2832.252753	136.183916
2833.574445	135.297902
2834.895919	134.322378
2836.217174	135.296503
2837.538210	133.176224
2838.857474	135.183217
2840.178073	138.387413
2841.496900	140.648252
2842.815509	140.524476
2844.132347	140.860140
2845.448968	137.749650
2846.765372	138.680420
2848.080007	137.820280
2849.395976	137.702098
2850.708625	133.287413
2852.022610	131.204895
2853.336377	127.837063
2854.649929	126.972727
2855.961713	129.074825
2857.271731	127.476923
2858.583084	127.695804
2859.891122	128.462238
2861.200495	128.883916
2862.509652	128.314685
2863.818594	128.713986
2865.125773	130.548252
2866.431188	130.110490
2867.737938	131.034965
2869.042925	128.461538
2870.347699	128.109091
2871.650711	130.281119
2872.956605	129.258042
2874.257643	130.027273
2875.560016	130.889510
2876.860629	128.776923
2878.162576	126.561538
2879.464310	125.829371
2880.762739	128.109790
2882.062503	130.126573
2883.360508	128.673427
2884.658302	124.641958
2885.954340	126.318881
2887.251711	125.986014
2888.547326	128.395105
2889.842730	128.848951
2891.137924	129.401399
2892.429819	127.241958
2893.724591	128.816084
2895.016066	125.615385
2896.308874	126.237762
2897.601472	125.009790
2898.890776	122.653846
2900.181412	122.225175
2901.470297	123.641958
2902.760515	124.091608
2904.047440	125.972727
2905.335699	125.285315
2906.622207	125.280420
2907.908508	124.626573
2909.194600	124.455245
2910.478944	119.100699
2911.766160	117.064336
2913.048548	115.480420
2914.332269	113.339860
2915.614244	116.954545
2916.896012	119.071329
2918.176034	120.331469
2919.458926	122.044056
2920.740073	122.217483
2922.017938	122.415385
2923.298672	120.868531
2924.576125	121.876224
2925.853372	120.828671
2927.128878	124.402797
2928.407251	122.876923
2929.680809	122.411888
2930.957235	126.955245
2932.231920	129.563636
2933.504865	129.500699
2934.779140	130.087413
2936.051676	128.504196
2937.324008	124.255944
2938.593066	120.508392
2939.864990	120.997902
2941.135176	118.721678
2942.405159	122.203497
2943.674938	120.336364
2944.942980	123.096503
2946.209287	126.741259
2947.475391	128.532168
2948.742825	129.576923
2950.008525	130.171329
2951.274022	128.652448
2952.539317	125.253846
2953.801347	123.365734
2955.064708	122.165734
2956.327866	120.488811
2957.589293	122.476224
2958.852049	123.576224
2960.113074	125.421678
2961.372367	127.185315
2962.631461	126.825175
2963.890354	130.925175
2965.149047	132.193706
2966.407540	131.916084
2967.664304	132.565734
2968.920868	130.067133
2970.175705	128.431469
2971.431871	125.232168
2972.684781	121.700000
2973.939021	117.028671
2975.193062	114.739161
2976.445377	111.592308
2977.697494	110.211189
2978.947886	110.306294
2980.201133	112.543357
2981.449603	114.793007
2982.700927	118.818881
2983.949003	120.847552
2985.196881	125.329371
2986.444562	127.402098
2987.692047	127.621678
2988.937810	127.274126
2990.183376	127.554545
2991.430270	123.218182
2992.673920	120.444056
2993.918898	118.089510
2995.160633	119.665035
2996.405218	119.129371
2997.648085	121.871329
2998.887711	121.274825
3000.130187	123.713287
3001.369424	123.960839
3002.609988	123.206993
3003.848835	120.706294
3005.087488	119.131469
3006.324425	114.466434
3007.562689	115.898601
3008.799239	115.351049
3010.035594	117.909091
3011.271756	118.119580
3012.506205	119.593007
3013.740460	118.265734
3014.974522	121.055944
3016.206872	121.011888
3017.437510	120.691608
3018.670994	121.102797
3019.902766	123.517483
3021.132828	123.831469
3022.362698	128.465734
3023.590858	129.227972
3024.820344	128.216084
3026.048122	125.167832
3027.275708	124.282517
3028.504620	122.065734
3029.728790	121.001399
3030.955803	121.461538
3032.179592	119.981119
3033.404708	118.946154
3034.628117	119.675524
3035.851337	120.204196
3037.072851	120.300699
3038.297206	119.465734
3039.516826	115.588112
3040.737771	117.337063
3041.958528	117.446154
3043.177581	116.484615
3044.397960	116.702098
3045.615122	117.427273
3046.833609	113.335664
3048.050394	109.215385
3049.266992	110.321678
3050.483401	109.791608
3051.696598	109.810490
3052.912632	109.639161
3054.125454	111.148951
3055.341113	113.722378
3056.552049	115.969930
3057.764310	114.900699
3058.976385	115.356643
3060.188273	114.217483
3061.398463	110.811888
3062.608467	111.175874
3063.818286	114.274126
3065.026408	116.467483
3066.234344	117.483916
3067.440586	116.242308
3068.648151	118.669231
3069.854023	118.446503
3071.059709	119.911189
3072.265210	115.296154
3073.469018	114.197203
3074.674150	113.136014
3075.877590	110.335664
3077.079337	112.604545
3078.280901	112.788811
3079.482281	112.668531
3080.683477	111.037762
3081.882983	113.083916
3083.082305	114.612587
3084.282951	115.195105
3085.481907	116.984615
3086.677669	115.244755
3087.876260	115.846154
3089.071657	116.753147
3090.268377	115.629371
3091.461905	118.604895
3092.658261	117.451748
3093.852931	116.648951
3095.044410	118.261538
3096.240220	118.342657
3097.431337	114.226573
3098.623776	112.474126
3099.813028	108.190909
3101.005106	103.944755
3102.195499	104.282517
3103.382707	104.134266
3104.571238	106.069231
3105.761091	109.181818
3106.947759	110.081818
3108.134248	111.260140
3109.320557	111.975524
3110.508188	110.863636
3111.692638	108.190909
3112.875407	108.380420
3114.061000	107.201399
3115.244912	106.716783
3116.427146	110.797902
3117.609201	112.558741
3118.791079	112.966434
3119.972778	115.763636
3121.152799	115.923077
3122.331144	115.759441
3123.512310	112.255245
3124.690300	110.640559
3125.868113	110.236364
3127.045749	109.038462
3128.221710	109.049650
3129.397494	106.832867
3130.574600	108.897203
3131.750031	108.993007
3132.923789	109.980420
3134.095875	112.298601
3135.269281	111.054545
3136.442512	111.714685
3137.614070	110.222378
3138.786950	111.150350
3139.956662	109.857343
3141.127695	108.018182
3142.297057	110.219580
3143.464750	110.537762
3144.635258	110.071329
3145.801107	111.002098
3146.971266	111.503497
3148.136767	109.511888
3149.302095	111.096503
3150.467249	109.300699
3151.632229	109.797902
3152.798530	108.174825
3153.960177	105.676923
3155.123145	106.147552
3156.285939	106.593706
3157.448561	105.898601
3158.609518	103.057343
3159.770302	102.979021
3160.930914	103.189510
3162.089863	105.229371
3163.248639	109.572028
3164.407244	109.432867
3165.565677	113.108392
3166.723938	112.598601
3167.880537	113.756643
3169.035475	111.319580
3170.191732	109.523776
3171.346329	106.404895
3172.500754	105.288112
3173.653520	104.005594
3174.806116	107.409790
3175.958541	109.970629
3177.110797	109.370629
3178.262883	109.269930
3179.411822	110.487413
3180.563568	110.374825
3181.713656	110.225175
3182.862088	107.508392
3184.010351	105.293706
3185.158444	103.153147
3186.306369	104.204895
3187.452639	104.674126
3188.598740	106.288811
3189.743186	104.397203
3190.887465	103.041958
3192.031576	103.772028
3193.177005	106.942657
3194.319294	106.846154
3195.461417	106.367832
3196.603372	106.979720
3197.745161	105.813986
3198.886782	104.375524
3200.025267	106.349650
3201.165070	105.809790
3202.306191	102.213287
3203.444177	100.946853
3204.580514	101.068531
3205.716685	99.443357
3206.854174	101.025874
3207.990013	101.023776
3209.127170	100.382517
3210.259714	101.529371
3211.396540	102.866434
3212.528754	105.860140
3213.662286	107.178322
3214.795652	105.774126
3215.925891	103.746154
3217.058928	103.030070
3218.188839	103.865035
3219.320067	100.944056
3220.448169	103.063636
3221.579068	102.774126
3222.708324	100.079021
3223.835935	100.986713
3224.960425	103.048951
3226.089190	104.966434
3227.214833	102.645455
3228.340313	104.033566
3229.464152	106.985315
3230.590785	107.782517
3231.712821	112.773427
3232.836173	112.913287
3233.959363	115.004196
3235.082391	114.391608
3236.203779	115.946853
3237.325006	121.190909
3238.444594	125.081818
3239.564021	131.269930
3240.681810	133.812587
3241.802392	138.654545
3242.919859	144.216084
3244.037167	146.484615
3245.154313	148.726573
3246.269824	142.984615
3247.386650	138.479720
3248.500365	132.881119
3249.616870	126.064336
3250.731741	120.923776
3251.843503	117.095804
3252.955106	115.433566
3254.068023	109.944056
3255.180782	104.965035
3256.290434	103.334965
3257.401400	102.093007
3258.512208	103.574825
3259.621385	103.162238
3260.728930	106.502797
3261.837790	104.814685
3262.946491	105.973427
3264.052090	108.746853
3265.159003	110.639161
3266.264288	109.811888
3267.370886	107.051748
3268.474384	103.693007
3269.579196	105.556643
3270.683851	103.416084
3271.785407	105.998601
3272.886808	105.932168
3273.989522	106.344755
3275.092079	102.923776
3276.191540	103.027972
3277.293785	101.555245
3278.392934	99.048951
3279.490459	97.266434
3280.587828	97.935664
3281.687980	98.323776
3282.785038	99.072028
3283.881941	95.325175
3284.978689	97.702797
3286.070879	98.762937
3287.167317	98.065035
3288.262134	94.820280
3289.356795	96.117483
3290.449835	96.888811
3291.542721	95.437063
3292.633986	96.674825
3293.726564	97.969231
3294.817521	93.848252
3295.906859	91.107692
3296.996044	89.133566
3298.086542	89.125175
3299.173955	87.631469
3300.261216	85.247552
3301.349789	85.413287
3302.438209	90.176224
3303.522082	90.947552
3304.610197	93.746154
3305.695231	97.501399
3306.778648	97.769930
3307.863378	96.783916
3308.946493	97.762937
3310.030919	99.465734
3311.112267	97.553147
3312.194927	96.531469
3313.275973	93.784615
3314.356868	93.674126
3315.436150	94.252448
3316.515281	92.578322
3317.595723	97.942657
3318.673092	98.013986
3319.751771	99.240559
3320.828840	101.574126
3321.905758	103.965734
3322.981065	107.572727
3324.056223	106.216783
3325.132692	108.570629
3326.206091	104.942657
3327.279341	101.827273
3328.353902	99.116783
3329.426853	96.771329
3330.498197	96.334965
3331.570851	94.918881
3332.640438	95.246853
3333.711336	96.030070
3334.780627	100.058042
3335.851229	99.711189
3336.920224	100.997902
3337.987613	103.693007
3339.053397	101.367832
3340.123407	97.662238
3341.190354	94.146154
3342.254239	91.610490
3343.320892	88.065734
3344.385940	88.389510
3345.449385	87.776224
3346.512684	89.569930
3347.575836	91.977622
3348.638842	90.712587
3349.701702	94.464336
3350.762960	97.129371
3351.821161	96.282517
3352.883583	93.404895
3353.942948	89.634266
3355.002168	87.315385
3356.062698	82.666434
3357.118718	79.148252
3358.177503	79.935664
3359.231780	81.710490
3360.288820	84.453846
3361.344263	88.092308
3362.401014	90.921678
3363.456168	94.678322
3364.509724	96.529371
3365.561683	96.955944
3366.616404	96.241958
3367.668076	93.213986
3368.719605	92.481119
3369.772443	91.284615
3370.822233	91.935664
3371.873331	93.750350
3372.921384	97.444755
3373.972197	95.789510
3375.019964	93.755245
3376.067589	93.740559
3377.115071	94.660839
3378.160961	93.648252
3379.208159	94.164336
3380.252315	93.449650
3381.299229	94.260140
3382.344551	95.016084
3383.386833	93.328671
3384.428973	96.444755
3385.472421	95.835664
3386.515729	89.141958
3387.557446	89.525874
3388.599022	89.821678
3389.640458	91.670629
3390.680304	90.718182
3391.718563	90.335664
3392.758129	89.732168
3393.797554	90.711189
3394.835392	91.816084
3395.871643	89.903497
3396.907755	89.923776
3397.945174	90.872727
3398.979560	86.983916
3400.015253	88.488811
3401.050807	89.953147
3402.083330	90.442657
3403.118606	89.106294
3404.150851	90.902098
3405.182958	90.850350
3406.213481	91.773427
3407.245312	90.269930
3408.277003	90.901399
3409.305668	92.049650
3410.334194	91.834266
3411.364028	86.703497
3412.393723	88.761538
3413.420393	86.939161
3414.448370	89.206993
3415.473322	88.253147
3416.501024	91.488811
3417.525703	89.382517
3418.551688	89.611189
3419.576093	91.255944
3420.600362	93.293706
3421.623052	91.596503
3422.645606	89.451049
3423.669466	89.351748
3424.690306	91.943357
3425.711011	91.436264
3426.733021	90.516009
3427.752013	89.201998
3428.770870	87.513636
3429.791032	85.470330
3430.808178	83.091484
