-118.448435	15.204121
-115.778835	14.381319
-113.112170	13.573377
-110.446257	12.797602
-107.783276	12.071304
-105.118866	11.411788
-102.457386	10.836364
-99.794476	10.530070
-97.136674	11.270629
-94.477441	10.823776
-91.818958	10.487413
-89.163398	9.306294
-86.506410	4.381818
-83.854519	4.743357
-81.201199	7.584615
-78.550799	9.045455
-75.898969	13.599301
-73.252230	12.539161
-70.604061	13.666434
-67.956636	12.053147
-65.312124	12.891608
-62.666184	14.008392
-60.025325	16.296503
-57.383037	15.888811
-54.743657	16.202098
-52.102849	21.821678
-49.462781	26.520979
-46.827785	30.213986
-44.191360	35.644755
-41.557839	35.253846
-38.922889	39.776224
-36.293004	41.000000
-33.659527	44.406993
-31.031112	50.684615
-28.403430	51.765734
-25.774321	30.728671
-23.150268	-103.494406
-20.522626	-651.616084
-17.900037	-1904.695804
-15.278180	-2979.109790
-12.657053	980.824476
-10.036656	8915.673427
-7.419147	15764.197902
-4.800210	20626.249650
-2.184159	23466.501399
0.431164	24285.321678
3.045760	23077.755245
5.657473	19865.948951
8.270615	14728.695804
10.878723	8001.672028
13.490413	915.679720
16.097072	-3734.718881
18.705159	-2758.597902
21.312522	-329.504895
23.914860	61.900699
26.520776	61.985315
29.121670	55.027972
31.723992	48.029371
34.321297	42.901399
36.922177	35.927273
39.518043	34.634965
42.115336	33.434965
44.711910	31.119580
47.303475	29.732867
49.896468	26.906993
52.486600	22.865734
55.078160	19.943357
57.666860	19.673427
60.256987	19.878322
62.842116	17.048951
65.428671	19.008392
68.014513	18.869231
70.597501	22.138462
73.181915	23.890210
75.759201	25.865035
78.340053	28.205594
80.918056	25.814685
83.495349	24.293706
86.074068	23.967133
88.647806	20.078322
91.222970	18.277622
93.795291	15.144056
96.366904	16.592308
98.935677	16.167133
101.505877	16.565035
104.073239	18.841958
106.642026	18.342657
109.207977	18.136364
111.771093	16.251748
114.337765	20.039161
116.895216	24.562937
119.458352	28.793706
122.016529	38.641958
124.578259	53.842657
127.135034	84.431469
129.693234	127.200699
132.246482	179.639860
134.799031	239.429371
137.355131	299.066434
139.906284	358.432867
142.456738	415.534266
145.006496	466.955944
147.553434	505.867133
150.099676	528.922378
152.647344	538.246154
155.194317	539.206993
157.736353	536.522378
160.277696	534.797902
162.818346	527.451748
165.360422	519.049650
167.899687	514.705594
170.436142	510.909091
172.971907	512.430070
175.509097	512.684615
178.045595	515.842657
180.579288	517.798601
183.110178	518.358741
185.640379	515.513986
188.172005	511.649650
190.700830	512.870629
193.226856	512.097203
195.752197	507.676923
198.278962	511.231469
200.802930	510.941259
203.326214	508.351049
205.848813	507.116783
208.368619	511.552448
210.887742	511.330070
213.406182	514.642657
215.926046	517.011888
218.438909	517.202098
220.955303	517.923077
223.471015	519.581119
225.981838	519.569231
228.494085	525.876224
231.003549	526.899301
233.512335	529.450350
236.020443	531.578322
238.529974	535.161538
241.034625	534.802797
243.538601	539.331469
246.044000	541.858741
248.544524	541.231469
251.048571	543.455245
253.545648	546.487413
256.046247	548.448252
258.544075	554.788112
261.041230	555.615385
263.537712	560.684615
266.029331	558.527273
268.524470	563.130769
271.016843	565.427273
273.508545	569.163636
275.997483	571.915385
278.487846	576.424476
280.975447	578.072028
283.460288	579.766434
285.948643	583.676224
288.430059	589.655245
290.914989	589.204196
293.395074	594.609790
295.878671	595.576224
298.357425	599.548252
300.837603	599.283217
303.315028	598.528671
305.791790	605.986713
308.267889	625.492308
310.741239	658.423776
313.213927	698.948951
315.685954	735.013287
318.157320	766.842657
320.625942	783.456643
323.093904	791.083916
325.563289	780.376224
328.027850	758.611888
330.495916	724.601399
332.959162	687.311189
335.421750	662.378322
337.883682	650.579021
340.344957	649.699301
342.803498	652.936364
345.263461	655.711888
347.720691	663.503497
350.177267	665.506993
352.633189	669.044056
355.086382	668.720979
357.540996	668.313986
359.990809	664.616084
362.444119	661.986014
364.892629	660.527273
367.340489	659.034266
369.789770	657.000699
372.234258	657.843357
374.680168	656.462937
377.125429	656.606993
379.567970	655.086014
382.009864	655.276224
384.451111	655.198601
386.889642	653.920280
389.329595	651.913287
391.766834	652.369930
394.201361	649.164336
396.639376	649.144755
399.072614	649.882517
401.507274	647.681818
403.937160	648.801399
406.370532	649.676923
408.799134	647.148951
411.227095	652.404895
413.656476	655.711888
416.081092	657.562238
418.507130	658.060839
420.932527	660.327972
423.357284	660.456643
425.777283	662.581119
428.198703	664.204895
430.617426	664.250350
433.037570	668.146154
435.455019	666.587413
437.873888	662.916084
440.290064	667.802797
442.701493	665.719580
445.116398	663.160839
447.528613	659.206294
449.940194	656.011189
452.351141	652.572727
454.759402	650.672028
457.167030	648.652448
459.574027	647.189510
461.980391	644.186014
464.384073	637.848951
466.787125	634.039161
469.189547	629.658741
471.591340	624.149650
473.990454	620.330070
476.390988	616.944755
478.790893	617.614685
481.186075	619.187413
483.584724	622.142657
485.978653	622.048951
488.371956	617.097902
490.764633	606.756643
493.156685	596.930070
495.550156	581.551748
497.938914	557.466434
500.325006	534.957343
502.712518	509.483916
505.099406	488.213287
507.483631	469.011888
509.869275	451.136364
512.252256	436.807692
514.632577	424.772727
517.014317	411.135664
519.393398	403.613287
521.773898	400.660839
524.151740	392.797203
526.526927	384.332168
528.901496	377.726573
531.277484	372.362238
533.650818	365.258741
536.025570	358.295105
538.395637	351.108392
540.765088	345.371329
543.135957	342.962238
545.502146	341.127972
547.869753	341.074825
550.234714	341.811189
552.599062	338.430070
554.962798	336.683916
557.327951	334.534266
559.688431	334.290210
562.050330	331.052448
564.409589	328.125175
566.766209	325.198601
569.126274	324.188811
571.479649	323.184615
573.836468	322.189510
576.190651	320.127273
578.544227	317.786713
580.897194	314.530070
583.247530	310.971329
585.599282	307.579720
587.944358	306.555245
590.294898	303.362937
592.638765	300.388811
594.988092	299.941259
597.332772	298.884615
599.674826	297.997203
602.018298	298.807692
604.359147	300.074126
606.699394	298.264336
609.037020	298.169231
611.378081	295.961538
613.714504	295.084615
616.052345	291.402797
618.387567	286.621678
620.720174	283.436364
623.054197	280.936364
625.385607	280.688112
627.716418	277.993007
630.046631	275.016783
632.376246	272.003497
634.701239	271.798601
637.031673	272.531469
639.357485	270.604895
641.680691	270.037762
644.005312	266.991608
646.327329	265.325874
648.648751	264.512587
650.967570	266.944056
653.287805	265.794406
655.607447	259.757343
657.924488	259.217483
660.240937	256.737762
662.554788	257.337063
664.870055	252.459441
667.182725	250.035664
669.496810	248.734266
671.806295	248.563636
674.117196	246.839860
676.425504	247.356643
678.733224	248.981818
681.042359	247.121678
683.346901	247.832867
685.650856	248.772727
687.954226	245.997203
690.259010	243.291608
692.559208	238.840559
694.860820	237.196503
697.161848	235.614685
699.458293	231.546853
701.756154	227.738462
704.053431	229.518182
706.350125	230.072727
708.642243	234.109091
710.937772	237.294406
713.228728	236.542657
715.521098	238.053147
717.810892	234.102797
720.100107	232.938462
722.388741	232.865734
724.674804	231.027972
726.962280	227.555944
729.247186	227.546853
731.531513	229.370629
733.813272	230.799301
736.096445	237.562238
738.379041	238.760839
740.657082	241.740559
742.936536	243.704196
745.215415	243.069930
747.493718	246.166434
749.767472	249.024476
752.042640	247.105594
754.317234	247.736364
756.589268	246.012587
758.862716	247.632867
761.133606	249.005594
763.401940	248.960140
765.671687	250.812587
767.938880	252.844056
770.205502	256.338462
772.471555	261.506993
774.735055	263.039860
776.999969	265.275524
779.264313	265.469930
781.524128	267.102797
783.785356	265.174825
786.046015	266.832867
788.304129	263.735664
790.559698	263.500000
792.818658	262.883217
795.071119	262.681818
797.328947	266.203497
799.582255	266.866434
801.833024	264.739161
804.085205	262.356643
806.334848	259.480420
808.585902	253.543357
810.832445	247.582517
813.080400	245.953846
815.325821	242.024476
817.572653	239.253147
819.818924	232.094406
822.060691	231.946853
824.305840	233.138462
826.544517	235.083217
828.786577	235.444056
831.024138	235.916783
833.263110	235.711888
835.499556	232.276923
837.737413	230.526573
839.972745	229.532867
842.205554	226.895105
844.439774	224.103497
846.671472	223.067133
848.902615	224.297203
851.133203	225.288112
853.363236	225.356643
855.592716	221.114685
857.817714	220.306993
860.046087	217.379720
862.269981	209.885315
864.495285	206.544056
866.716114	206.588811
868.940315	207.495804
871.160043	212.504895
873.381182	219.081119
875.601770	225.943357
877.819848	229.246853
880.039337	229.976224
882.254359	231.895804
884.468833	235.574825
886.682760	233.586014
888.896139	229.803497
891.108971	230.053147
893.321257	227.518881
895.531040	223.756643
897.740278	220.774825
899.948971	218.030769
902.155165	217.852448
904.362768	216.660839
906.567874	216.310490
908.772436	219.301399
910.974502	220.049650
913.177978	220.410490
915.378960	220.994406
917.579401	222.072028
919.781249	219.336364
921.976707	214.672727
924.175524	213.919580
926.369902	213.353147
928.567638	217.072028
930.760938	222.153846
932.955647	224.151049
935.147870	225.904895
937.339555	229.323776
939.530702	228.664336
941.719366	228.683217
943.907493	230.890210
946.093140	232.305594
948.282139	231.987413
950.466715	236.844755
952.650756	238.458042
954.838147	246.213287
957.017234	251.299301
959.199672	257.704196
961.381576	262.367133
963.561006	267.117483
965.737963	269.827972
967.916327	276.926573
970.096099	282.798601
972.269522	284.762937
974.446291	285.125874
976.618653	290.065734
978.792423	291.747552
980.961789	293.225175
983.134500	294.255245
985.304744	298.976224
987.474460	301.234965
989.643647	303.390210
991.808437	306.713287
993.976568	312.826573
996.140305	316.023077
998.305448	320.009790
1000.468133	325.942657
1002.630291	331.448951
1004.789993	335.355245
1006.949171	337.631469
1009.109755	341.832168
1011.267884	345.004895
1013.425489	346.859441
1015.582571	347.259441
1017.739130	348.434965
1019.891309	349.226573
1022.044894	348.024476
1024.197958	352.853846
1026.348574	354.341259
1028.500595	359.186713
1030.648243	366.002098
1032.799223	370.752448
1034.945832	375.974825
1037.091923	382.288112
1039.237494	385.083916
1041.384471	389.523776
1043.525159	391.515385
1045.669177	390.392308
1047.810754	388.156643
1049.951815	389.125874
1052.094280	385.006993
1054.230466	386.988811
1056.369978	385.986014
1058.505134	386.405594
1060.643615	386.127273
1062.777742	388.422378
1064.911356	387.513986
1067.046375	391.307692
1069.177044	390.682517
1071.309118	391.457343
1073.438763	387.440559
1075.567896	381.326573
1077.696517	374.630769
1079.824627	369.656643
1081.950311	361.611888
1084.075485	350.341259
1086.202063	340.212587
1088.324304	336.363636
1090.447948	331.101399
1092.567259	330.490909
1094.691798	329.704196
1096.810092	329.325874
1098.929791	325.816084
1101.047071	323.228671
1103.163845	321.955245
1105.280112	317.634266
1107.393964	312.283916
1109.509219	304.392308
1111.620152	302.220280
1113.734396	300.502797
1115.844320	296.818182
1117.955648	295.106294
1120.066471	293.542657
1122.172979	291.444755
1124.282795	287.620979
1126.388297	285.467133
1128.495202	281.991608
1130.595892	279.912587
1132.701794	276.425874
1134.803387	272.482517
1136.906383	271.249650
1139.008878	268.662238
1141.105166	265.548951
1143.206662	265.984615
1145.303855	266.000699
1147.400549	266.646853
1149.496745	264.697902
1151.592444	264.168531
1153.687645	262.084615
1155.780449	262.092308
1157.874655	258.745455
1159.962670	253.890909
1162.055883	251.534965
1164.142908	250.359441
1166.233232	248.824476
1168.319269	250.962937
1170.408603	249.720280
1172.491756	249.323776
1174.576311	246.760839
1176.662268	246.061538
1178.743943	245.234266
1180.827020	245.209091
1182.907711	246.313287
1184.987910	245.866434
1187.067618	248.273427
1189.146835	250.434965
1191.223670	251.156643
1193.298124	252.817483
1195.375870	252.802797
1197.449345	248.986713
1199.524221	246.528671
1201.594830	244.467832
1203.666841	239.414685
1205.736475	236.439161
1207.807510	233.360140
1209.878057	231.713986
1211.944343	228.411888
1214.012030	227.778322
1216.077345	227.787413
1218.144060	227.614685
1220.206519	227.144755
1222.272263	225.635664
1224.333754	228.565035
1226.396644	225.865734
1228.457167	223.770629
1230.517206	225.852448
1232.576763	223.846154
1234.633954	223.541958
1236.690664	222.803497
1238.745011	224.413287
1240.802638	223.130070
1242.857903	218.820979
1244.908927	218.673427
1246.961351	217.450350
1249.013295	215.026573
1251.062881	211.035664
1253.111988	209.033566
1255.160617	206.779720
1257.208767	204.045455
1259.256439	200.737762
1261.299880	199.693007
1263.346596	197.852448
1265.390959	198.643357
1267.434846	200.380420
1269.476382	202.635664
1271.515567	203.875524
1273.558026	203.589510
1275.596262	205.156643
1277.635897	202.862937
1279.675057	201.222378
1281.709998	197.583217
1283.746339	194.037762
1285.780334	193.727972
1287.815728	192.693706
1289.846908	194.776224
1291.879487	196.876224
1293.911593	197.945455
1295.941359	199.950350
1297.972523	198.685315
1299.999479	199.002797
1302.027833	200.106294
1304.051983	201.475524
1306.079397	198.109091
1308.102609	198.690210
1310.127219	200.213287
1312.149495	200.018182
1314.173168	199.798601
1316.194508	199.856643
1318.215380	198.634266
1320.235786	196.402797
1322.251997	195.130070
1324.269606	195.669930
1326.284888	196.328671
1328.303427	194.393706
1330.317778	191.839860
1332.329803	191.793706
1334.345085	191.474126
1336.356182	194.390909
1338.368676	191.916084
1340.376987	195.311888
1342.388554	195.083217
1344.394081	198.154545
1346.402864	198.624476
1348.407469	198.430070
1350.415328	197.440559
1352.422725	198.058741
1354.424091	198.002098
1356.426854	195.031469
1358.429156	193.761538
1360.430999	195.755944
1362.432382	193.011888
1364.431452	196.911189
1366.430063	196.923776
1368.428216	197.331469
1370.425911	195.608392
1372.419442	196.913287
1374.414370	197.557343
1376.408841	199.805594
1378.402855	200.539161
1380.394561	195.663636
1382.385813	197.016084
1384.374759	199.541958
1386.365100	196.966434
1388.354986	194.051748
1390.342569	193.234266
1392.329697	189.781119
1394.314525	187.374126
1396.300746	189.437762
1398.284668	188.518881
1400.268137	191.542657
1402.251154	194.179720
1404.231872	196.446853
1406.213986	201.639161
1408.193802	206.995105
1410.173168	203.664336
1412.148394	202.121678
1414.126860	202.190909
1416.103031	197.739860
1418.078754	198.197902
1420.054027	198.025874
1422.027009	193.609091
1423.999543	196.063636
1425.971630	196.918182
1427.943268	198.220280
1429.910778	198.190909
1431.883363	199.377622
1433.848141	196.423776
1435.817991	196.345455
1437.783718	196.258042
1439.750837	198.744056
1441.715673	202.402098
1443.676390	201.552448
1445.642174	199.154545
1447.602003	200.325874
1449.563225	199.853147
1451.525840	199.091608
1453.484340	199.781119
1455.442398	194.902797
1457.400013	194.321678
1459.357187	197.355944
1461.312085	201.593706
1463.268375	205.961538
1465.222391	206.775524
1467.175967	208.023077
1469.127270	207.462937
1471.079965	208.558741
1473.030389	207.111888
1474.980373	205.093706
1476.929919	205.597902
1478.877196	203.388811
1480.822206	207.316783
1482.768607	210.316783
1484.714572	214.548951
1486.660098	217.521678
1488.603360	223.178322
1490.546185	226.716084
1492.486747	228.994406
1494.428700	228.855245
1496.368392	224.259441
1498.307648	224.369231
1500.246469	222.719580
1502.183031	223.495804
1504.120984	222.363636
1506.056679	220.530070
1507.991939	221.022378
1509.924944	221.547552
1511.857516	224.469231
1513.789656	225.939161
1515.721364	228.211888
1517.650818	229.645455
1519.581663	231.008392
1521.512077	237.902797
1523.438417	238.332168
1525.366149	242.672028
1527.291630	245.944755
1529.216682	246.720280
1531.141305	248.783217
1533.065499	253.124476
1534.987446	260.151049
1536.910782	267.051049
1538.831873	271.990909
1540.750719	279.807692
1542.670955	285.486713
1544.588947	299.216084
1546.506513	310.117483
1548.421837	326.711888
1550.338551	341.739161
1552.251210	358.918881
1554.167073	383.425874
1556.080696	410.475524
1557.992082	438.620979
1559.904856	474.838462
1561.813581	523.792308
1563.723696	593.350350
1565.633387	693.683916
1567.542654	845.313287
1569.449688	1045.836364
1571.354489	1298.362238
1573.260679	1571.855245
1575.164637	1827.739860
1577.068175	2021.819580
1578.971291	2118.629371
1580.872179	2109.672028
1582.774454	1998.820979
1584.674502	1796.105594
1586.575937	1533.347552
1588.473339	1252.565734
1590.370322	989.458042
1592.266887	776.009790
1594.164840	629.123776
1596.056958	532.630070
1597.952269	466.949650
1599.847163	421.613986
1601.739835	389.943357
1603.632091	364.337762
1605.522126	341.551049
1607.411747	321.336364
1609.300951	306.019580
1611.189741	295.105594
1613.076314	285.789510
1614.964273	277.818881
1616.848216	272.687413
1618.733547	266.060140
1620.618463	260.451748
1622.501166	257.144755
1624.385256	254.276224
1626.265335	248.667832
1628.146800	246.452448
1630.026055	246.000699
1631.906696	244.670629
1633.781533	242.260839
1635.661352	243.134965
1637.537165	240.688112
1639.412568	239.189510
1641.289358	232.967133
1643.160350	227.403497
1645.034524	223.336364
1646.904700	217.417483
1648.778056	216.521678
1650.649209	215.739860
1652.518160	216.132168
1654.388497	212.978322
1656.254840	210.981119
1658.122569	213.555944
1659.988100	211.374126
1661.855015	211.029371
1663.717942	211.271329
1665.582254	212.650350
1667.444370	211.964336
1669.306082	211.080420
1671.169178	214.170629
1673.030080	214.360140
1674.888788	212.665734
1676.747093	209.663636
1678.606783	208.848252
1680.460706	208.148951
1682.317801	206.085315
1684.174494	207.528671
1686.027211	211.086713
1687.883098	210.143357
1689.735012	206.870629
1691.586525	208.795804
1693.437637	210.977622
1695.288349	211.260140
1697.138660	209.645455
1698.986787	208.669231
1700.836297	209.539860
1702.680059	205.813986
1704.528770	204.336364
1706.371736	204.460140
1708.217867	204.964336
1710.060037	203.990210
1711.905371	203.320280
1713.744965	205.202098
1715.585943	205.365734
1717.428304	205.464336
1719.266709	206.408392
1721.106497	207.693706
1722.944110	208.046853
1724.781327	205.993007
1726.616371	206.948951
1728.452798	205.111888
1730.287053	207.193706
1732.120913	206.844056
1733.954380	207.202098
1735.783900	208.251748
1737.616579	209.999301
1739.445314	212.795804
1741.277207	211.883916
1743.105157	215.141259
1744.932715	216.832168
1746.759881	218.858042
1748.586656	217.186713
1750.413040	216.678322
1752.235487	215.271329
1754.061088	212.202098
1755.882755	211.569930
1757.705804	212.518182
1759.526692	213.536364
1761.347190	214.200000
1763.169070	211.067832
1764.985250	213.365734
1766.804582	215.936364
1768.619987	214.542657
1770.438542	214.600699
1772.253172	215.053846
1774.067416	209.832867
1775.881272	210.061538
1777.694742	206.800000
1779.506059	204.535664
1781.318757	202.335664
1783.131068	202.197203
1784.939462	201.253147
1786.749237	200.685315
1788.555096	202.246853
1790.364101	203.718182
1792.169193	206.077622
1793.975666	207.761538
1795.781755	207.551748
1797.583934	209.179021
1799.389256	207.095105
1801.190670	208.205594
1802.993464	208.630769
1804.792352	209.143357
1806.592621	207.581119
1808.392508	208.075524
1810.190254	205.170629
1811.987618	202.979720
1813.784603	199.932168
1815.581207	199.756643
1817.375672	198.376923
1819.171516	198.879720
1820.961706	200.591608
1822.756792	203.279021
1824.546225	203.763636
1826.338795	205.100000
1828.129230	207.218881
1829.917531	209.806993
1831.708967	205.382517
1833.494757	204.544755
1835.281927	207.517483
1837.066965	209.009790
1838.855137	204.929371
1840.639423	203.854545
1842.421580	201.959441
1844.205115	201.583217
1845.986522	198.122378
1847.769308	195.266434
1849.548214	195.031469
1851.328498	192.487413
1853.106656	191.841259
1854.886193	193.074825
1856.663605	197.734266
1858.438893	199.524476
1860.215560	195.053147
1861.990103	196.765734
1863.766025	197.727273
1865.536326	199.696503
1867.309755	199.465734
1869.081064	198.981119
1870.852003	200.913287
1872.624318	200.603497
1874.391020	202.700699
1876.160848	207.022378
1877.926812	209.563636
1879.695900	208.263636
1881.461126	206.373427
1883.225983	207.029371
1884.992218	206.951748
1886.754594	206.584615
1888.516603	205.202098
1890.278244	201.743357
1892.039519	201.474126
1893.800426	202.620280
1895.560967	203.059441
1897.319398	204.082517
1899.077464	202.336364
1900.833421	199.693706
1902.590756	199.169231
1904.347724	197.694406
1906.102587	194.941958
1907.855344	192.651748
1909.607738	190.116084
1911.361507	189.254545
1913.113173	190.762937
1914.862737	191.072028
1916.613677	188.242657
1918.364253	187.271329
1920.110990	189.065734
1921.859104	190.451049
1923.605118	192.233566
1925.352508	194.532168
1927.097799	196.983916
1928.840993	197.564336
1930.585563	201.275524
1932.328036	204.325175
1934.070149	205.331469
1935.811902	205.344056
1937.553296	205.367832
1939.292596	206.062238
1941.031536	206.440559
1942.770119	207.836364
1944.506609	204.330769
1946.242742	204.247552
1947.980249	203.073427
1949.713934	204.081818
1951.448994	205.459441
1953.181966	205.298601
1954.914581	206.525175
1956.646839	207.911189
1958.378741	208.332168
1960.108557	208.420280
1961.836289	206.532867
1963.565394	205.802797
1965.294145	202.454545
1967.020812	203.367832
1968.747125	203.920979
1970.474811	208.153147
1972.196961	210.354545
1973.922212	211.131469
1975.643657	207.873427
1977.368201	206.118182
1979.090666	202.789510
1980.809327	201.233566
1982.531087	198.891608
1984.249045	202.180420
1985.968376	200.958042
1987.683908	201.279720
1989.404261	204.786014
1991.120814	207.120280
1992.833571	208.830070
1994.549425	206.247552
1996.263205	202.578322
1997.976636	204.162937
1999.687996	201.146853
2001.400729	201.798601
2003.109670	200.374126
2004.821705	203.245455
2006.528230	203.234266
2008.237848	206.384615
2009.945398	205.497203
2011.652601	202.833566
2013.357738	202.993007
2015.062528	204.116783
2016.768690	202.802098
2018.471070	205.116084
2020.174822	205.260140
2021.876510	206.739860
2023.577854	207.278322
2025.278852	208.460140
2026.977790	210.060140
2028.678098	211.690210
2030.374632	209.010490
2032.072537	209.428671
2033.768383	207.293007
2035.467315	205.820280
2037.160761	203.692308
2038.855579	205.851748
2040.550053	205.626573
2042.240759	205.825175
2043.934549	208.399301
2045.624572	206.569231
2047.315966	207.165035
2049.005307	207.993007
2050.696018	207.553846
2052.382966	206.232867
2054.069575	199.891608
2055.757554	196.823077
2057.441773	193.602098
2059.127362	191.440559
2060.812612	189.258741
2062.495814	189.267832
2064.180385	190.517483
2065.859494	190.907692
2067.543388	192.649650
2069.221822	193.945455
2070.903332	193.678322
2072.581092	193.237063
2074.258514	190.863636
2075.937306	191.374825
2077.614056	193.453846
2079.288764	195.828671
2080.964841	197.265035
2082.638878	198.188112
2084.312579	196.986014
2085.985945	198.395804
2087.657273	196.173427
2089.328266	194.809790
2090.998925	191.764336
2092.669249	189.808392
2094.339240	188.446154
2096.007195	191.251748
2097.674817	193.751748
2099.340404	194.867832
2101.007361	196.282517
2102.672283	196.452448
2104.336874	197.419580
2105.999433	200.705594
2107.663360	201.448951
2109.325257	202.571329
2110.986822	204.362937
2112.648056	203.810490
2114.307262	203.306294
2115.966137	204.697203
2117.624683	202.437063
2119.282899	202.515385
2120.937391	203.978322
2122.594948	200.243357
2124.252176	200.814685
2125.905682	202.388112
2127.560556	202.672028
2129.211712	200.168531
2130.865929	200.741259
2132.516430	198.546853
2134.168297	195.641259
2135.814756	195.669930
2137.465970	193.009790
2139.113470	194.887413
2140.762337	192.851049
2142.409186	192.576224
2144.055708	195.848252
2145.701905	200.572028
2147.344394	200.405594
2148.989941	202.594406
2150.631781	203.978322
2152.276678	203.320979
2153.917870	201.904895
2155.558738	202.623776
2157.199282	197.904895
2158.837814	197.113287
2160.477712	194.823776
2162.113910	193.676224
2163.751475	192.652448
2165.388716	193.554545
2167.023948	190.069231
2168.658859	191.755245
2170.293448	191.888112
2171.927715	193.168531
2173.558289	194.488112
2175.191915	194.445455
2176.821849	193.105594
2178.453148	196.065035
2180.082442	194.692308
2181.711417	193.509091
2183.340073	194.518881
2184.968409	195.167832
2186.594742	191.825874
2188.220757	193.186014
2189.844771	194.920280
2191.470149	193.847552
2193.093528	192.160140
2194.718270	191.811888
2196.339332	192.658741
2197.960077	193.523077
2199.582187	193.797902
2201.202299	195.527273
2202.820414	194.000000
2204.438214	193.907692
2206.055699	193.291608
2207.672868	194.911189
2209.289722	193.566434
2210.906261	190.458741
2212.520806	191.314685
2214.133359	193.295105
2215.747276	193.393706
2217.359202	195.089510
2218.972491	197.256643
2220.583790	198.625874
2222.193099	195.666434
2223.803772	197.146154
2225.412456	196.100699
2227.020828	195.369231
2228.627212	192.698601
2230.234960	191.549650
2231.840721	191.437762
2233.446171	192.366434
2235.049636	191.990210
2236.654464	193.393706
2238.257309	193.661538
2239.858170	195.851748
2241.460393	194.417483
2243.060635	196.584615
2244.662239	194.037762
2246.260191	194.206993
2247.859505	193.347552
2249.456839	193.560140
2251.053864	192.590909
2252.652252	194.186713
2254.246991	192.357343
2255.839753	191.083217
2257.433878	192.564336
2259.029364	194.451049
2260.621206	192.737762
2262.212741	193.850350
2263.805637	194.755245
2265.393224	195.944755
2266.985508	195.076923
2268.572484	194.251748
2270.162489	194.531469
2271.747189	193.960839
2273.336583	190.825175
2274.920674	189.796503
2276.506127	191.134266
2278.089610	191.880420
2279.676120	191.979021
2281.258996	192.706294
2282.841568	193.289860
2284.423837	192.328671
2286.002477	187.698252
2287.584140	185.544755
2289.162175	183.957692
2290.743233	180.472028
2292.320665	179.675175
2293.896132	177.776923
2295.474622	178.557692
2297.049488	180.960839
2298.624053	182.780769
2300.198318	182.562937
2301.772282	180.893357
2303.345946	180.915385
2304.919309	179.375524
2306.489054	180.769930
2308.058500	180.716084
2309.630965	180.493706
2311.198154	182.078322
2312.768362	184.415385
2314.334955	185.571329
2315.902908	185.754545
2317.468905	187.443357
2319.034605	192.378322
2320.600008	199.248252
2322.163456	211.809091
2323.728264	225.581818
2325.289464	234.860839
2326.853678	239.456643
2328.412631	240.144056
2329.974597	238.512587
2331.534613	233.217483
2333.094333	221.520280
2334.652104	210.448951
2336.209580	199.272727
2337.766762	193.877622
2339.321997	193.061538
2340.876937	194.559441
2342.431584	197.796503
2343.985937	197.397203
2345.539996	198.232867
2347.093761	195.520979
2348.645583	193.197902
2350.195461	193.307692
2351.748347	191.693706
2353.295991	191.146154
2354.846642	188.220979
2356.393702	188.363636
2357.942121	190.578322
2359.490247	192.824476
2361.034785	195.089510
2362.580681	196.252448
2364.124639	194.555245
2365.669954	194.062238
2367.211684	193.562238
2368.754771	195.594406
2370.295923	194.508392
2371.836785	198.037762
2373.377358	199.026573
2374.917641	199.638462
2376.457636	199.629371
2377.994053	201.059441
2379.533471	199.017483
2381.069312	196.459441
2382.606509	195.656643
2384.140131	195.862937
2385.676754	193.245455
2387.211445	195.093007
2388.744207	195.662937
2390.276682	200.183916
2391.807230	202.186014
2393.340775	202.993007
2394.869109	202.980420
2396.398799	206.407692
2397.928204	202.196503
2399.457323	202.460140
2400.986158	204.736364
2402.509787	202.702797
2404.038053	200.427972
2405.561115	200.655245
2407.088811	201.195804
2408.609668	202.162937
2410.135158	202.485315
2411.657087	203.602797
2413.180372	205.267133
2414.701736	206.570629
2416.221180	203.369231
2417.741979	205.109091
2419.260859	205.897902
2420.779457	204.182517
2422.296138	203.476923
2423.814173	208.062238
2425.331927	211.758741
2426.846130	215.038462
2428.360052	219.063636
2429.873694	224.965035
2431.388691	229.783916
2432.900139	235.196503
2434.412942	240.489510
2435.923832	244.610490
2437.434442	245.700699
2438.943141	245.860839
2440.454827	247.228671
2441.962968	248.027972
2443.470832	245.132168
2444.978418	243.083217
2446.482463	242.786713
2447.989494	241.874825
2449.494616	241.107692
2450.999461	240.204895
2452.502399	238.408392
2454.005060	239.935664
2455.507445	240.194406
2457.007925	239.562238
2458.509758	236.367832
2460.009687	232.341259
2461.509340	229.246154
2463.008717	228.790210
2464.506192	229.997203
2466.001765	225.151748
2467.500319	222.011189
2468.995343	218.416084
2470.491721	216.087413
2471.984571	219.135664
2473.478775	217.685315
2474.972705	214.662238
2476.463112	212.766434
2477.956495	209.900000
2479.447981	208.655245
2480.937570	211.052448
2482.426887	213.202098
2483.914309	212.134965
2485.404706	211.613287
2486.891584	213.258042
2488.379814	210.761538
2489.864528	210.628671
2491.348971	208.692308
2492.834766	206.541958
2494.318668	205.511888
2495.803922	202.841259
2497.284042	204.439161
2498.767134	207.685315
2500.248336	206.404196
2501.729269	207.675524
2503.208313	207.300699
2504.687088	208.372727
2506.165595	204.509790
2507.643834	204.336364
2509.121804	203.746853
2510.596270	203.840559
2512.073704	202.780420
2513.547635	202.574825
2515.022916	202.765035
2516.497931	199.930769
2517.969444	196.704895
2519.442307	199.730769
2520.913288	198.247552
2522.385619	195.625874
2523.852837	191.406294
2525.323020	191.309790
2526.791323	193.052448
2528.259361	195.082517
2529.727134	195.670629
2531.194642	194.859441
2532.661885	196.617483
2534.125636	196.237063
2535.590737	198.310490
2537.053961	203.675524
2538.518535	204.804895
2539.979619	204.479720
2541.442053	203.220280
2542.904224	203.537063
2544.362909	206.588112
2545.826166	206.098601
2547.284326	204.834965
2548.743835	203.279720
2550.198251	203.952448
2551.657236	202.418182
2553.114350	200.595105
2554.569593	203.208392
2556.024575	203.047552
2557.477687	202.479720
2558.932148	202.755245
2560.384740	201.514685
2561.837072	202.800000
2563.287536	202.575524
2564.740956	202.452448
2566.189294	204.540559
2567.640588	202.895804
2569.090015	203.401399
2570.535970	204.420979
2571.984881	206.442657
2573.430320	206.855245
2574.877108	206.876923
2576.322032	208.432867
2577.766699	206.491608
2579.212713	205.139860
2580.655260	204.338462
2582.099155	202.839860
2583.539585	204.501399
2584.981362	203.344755
2586.421280	205.056643
2587.862545	210.450350
2589.300349	208.541259
2590.741102	212.008392
2592.176792	215.540559
2593.615432	218.769231
2595.052215	221.085315
2596.487141	219.031469
2597.925016	222.374825
2599.357832	224.104895
2600.791996	224.244755
2602.224306	222.277622
2603.657962	221.473427
2605.089765	219.788112
2606.521315	216.115385
2607.952611	218.082517
2609.382055	220.495804
2610.811248	221.274126
2612.238589	225.657343
2613.667277	225.791608
2615.095712	231.588811
2616.520700	233.216084
2617.947035	233.515385
2619.371521	236.378322
2620.797353	236.451748
2622.219741	233.684615
2623.643475	235.318881
2625.065362	238.220979
2626.487000	240.715385
2627.906792	242.085315
2629.327930	250.002098
2630.748818	251.240559
2632.166268	254.653147
2633.586657	255.881818
2635.003609	259.366434
2636.420313	264.255245
2637.836768	266.711189
2639.252975	268.769930
2640.668933	273.055245
2642.083051	276.726573
2643.496922	282.037063
2644.908953	287.688811
2646.322329	293.558741
2647.732275	294.188112
2649.145156	301.481119
2650.554610	307.413287
2651.963817	315.468531
2653.371187	324.518881
2654.781493	329.860140
2656.189962	335.229371
2657.596596	340.665035
2659.002985	347.755245
2660.407540	358.846154
2661.813439	369.983916
2663.217505	380.175524
2664.621326	391.493706
2666.024904	405.888811
2667.426649	414.898601
2668.829738	426.855245
2670.229409	438.318182
2671.630424	446.638462
2673.028023	452.888112
2674.428552	457.560140
2675.825666	464.548252
2677.224123	467.765734
2678.620752	470.848951
2680.017139	470.773427
2681.413285	472.360839
2682.807604	470.783217
2684.203266	469.981818
2685.595518	475.264336
2686.989114	477.521678
2688.380885	481.208392
2689.773998	481.969231
2691.165288	486.319580
2692.554755	491.468531
2693.943982	494.139860
2695.332970	498.661538
2696.723300	505.705594
2698.108645	516.004196
2699.496914	525.777622
2700.883363	537.468531
2702.269573	553.272028
2703.655545	565.718182
2705.038117	584.597902
2706.422032	602.202098
2707.805709	630.516084
2709.189148	653.962937
2710.569191	678.104196
2711.950576	700.267832
2713.330145	718.648252
2714.711056	731.565035
2716.090151	740.946154
2717.467433	741.598601
2718.846056	734.776923
2720.222866	718.234965
2721.599440	702.664336
2722.975778	679.613986
2724.350304	661.130769
2725.726171	630.986713
2727.098651	604.286713
2728.474047	576.660140
2729.844483	550.597902
2731.216260	531.743357
2732.587802	515.690909
2733.957536	498.807692
2735.328611	480.461538
2736.697877	461.153846
2738.066911	446.555245
2739.434137	429.139860
2740.801131	411.927972
2742.167892	393.862238
2743.534420	377.269231
2744.899143	358.367133
2746.263635	342.599301
2747.627894	332.304196
2748.991921	320.324476
2750.355717	307.069231
2751.716139	292.220280
2753.079472	278.438462
2754.437862	269.885315
2755.799162	262.502797
2757.157091	253.702797
2758.517930	251.667832
2759.876968	245.789510
2761.232638	237.937762
2762.591216	234.799301
2763.946428	230.924476
2765.301410	226.274126
2766.654595	221.151049
2768.010687	215.186014
2769.363415	213.009790
2770.715914	211.674126
2772.068185	208.768531
2773.421795	204.809790
2774.772043	205.641958
2776.120498	204.316783
2777.471857	204.195804
2778.819857	207.920280
2780.169196	203.937063
2781.516742	204.093007
2782.864061	203.021678
2784.211154	201.986014
2785.556456	200.402797
2786.901532	198.067832
2788.246382	193.569930
2789.591005	192.102797
2790.932277	193.927273
2792.274887	193.193706
2793.617271	194.789510
2794.959431	194.823776
2796.298241	193.465035
2797.639950	195.891608
2798.978312	195.132867
2800.318011	195.732168
2801.655924	194.344755
2802.992053	194.908392
2804.327958	191.913287
2805.665201	191.204895
2807.000660	191.022378
2808.335896	188.477622
2809.669349	187.253846
2811.004140	185.837762
2812.335589	187.053846
2813.669934	189.357343
2814.999381	189.400699
2816.330165	189.400699
2817.660727	189.446853
2818.989510	188.005594
2820.319629	185.595105
2821.647970	183.560140
2822.976090	181.858741
2824.302432	178.625874
2825.630111	176.963636
2826.954457	177.713986
2828.280138	178.609790
2829.604044	180.567133
2830.927731	178.959441
2832.252753	179.426573
2833.574445	177.059441
2834.895919	176.509790
2836.217174	176.122378
2837.538210	172.504895
2838.857474	171.644755
2840.178073	171.451049
2841.496900	173.180420
2842.815509	174.856643
2844.132347	176.832867
2845.448968	178.666434
2846.765372	179.669930
2848.080007	182.499301
2849.395976	182.818182
2850.708625	183.148951
2852.022610	182.018182
2853.336377	178.982517
2854.649929	179.346154
2855.961713	177.411189
2857.271731	175.558741
2858.583084	171.499301
2859.891122	170.982517
2861.200495	170.497203
2862.509652	170.911888
2863.818594	170.872727
2865.125773	172.133566
2866.431188	170.931469
2867.737938	169.320979
2869.042925	169.304196
2870.347699	171.283916
2871.650711	169.471329
2872.956605	167.639161
2874.257643	165.444755
2875.560016	165.811888
2876.860629	165.958042
2878.162576	165.764336
2879.464310	165.075524
2880.762739	166.302098
2882.062503	167.766434
2883.360508	170.833566
2884.658302	173.256643
2885.954340	173.525874
2887.251711	173.446154
2888.547326	174.762937
2889.842730	173.361538
2891.137924	169.917483
2892.429819	166.932867
2893.724591	164.665734
2895.016066	161.625874
2896.308874	157.783916
2897.601472	160.165734
2898.890776	161.627972
2900.181412	163.433566
2901.470297	164.540559
2902.760515	167.120979
2904.047440	169.498601
2905.335699	169.407692
2906.622207	168.360140
2907.908508	168.401399
2909.194600	168.144056
2910.478944	167.153846
2911.766160	162.260140
2913.048548	161.012587
2914.332269	160.983217
2915.614244	164.318182
2916.896012	162.718881
2918.176034	161.593007
2919.458926	164.446154
2920.740073	164.307692
2922.017938	162.950350
2923.298672	164.085315
2924.576125	162.695804
2925.853372	161.911888
2927.128878	158.760140
2928.407251	157.583217
2929.680809	162.268531
2930.957235	162.827972
2932.231920	161.916783
2933.504865	161.741958
2934.779140	162.146853
2936.051676	164.027972
2937.324008	164.146154
2938.593066	164.689510
2939.864990	159.271329
2941.135176	156.734965
2942.405159	154.605594
2943.674938	153.633566
2944.942980	157.836364
2946.209287	157.458042
2947.475391	154.672028
2948.742825	152.876224
2950.008525	154.506993
2951.274022	160.270629
2952.539317	161.846853
2953.801347	163.906294
2955.064708	162.432867
2956.327866	162.716084
2957.589293	161.116084
2958.852049	163.991608
2960.113074	167.086014
2961.372367	166.829371
2962.631461	162.745455
2963.890354	162.721678
2965.149047	163.318881
2966.407540	159.872028
2967.664304	159.458741
2968.920868	160.807692
2970.175705	159.932867
2971.431871	156.933566
2972.684781	153.000699
2973.939021	154.865734
2975.193062	155.320979
2976.445377	155.535664
2977.697494	156.325874
2978.947886	155.659441
2980.201133	155.191608
2981.449603	152.787413
2982.700927	152.921678
2983.949003	152.532867
2985.196881	152.097902
2986.444562	152.237762
2987.692047	152.024476
2988.937810	155.427273
2990.183376	154.875524
2991.430270	157.460140
2992.673920	159.563636
2993.918898	160.131469
2995.160633	163.629371
2996.405218	161.731469
2997.648085	158.513986
2998.887711	155.499301
3000.130187	153.039161
3001.369424	150.434266
3002.609988	149.148252
3003.848835	152.109091
3005.087488	150.488112
3006.324425	155.306993
3007.562689	157.788811
3008.799239	159.753147
3010.035594	161.442657
3011.271756	160.557343
3012.506205	160.374825
3013.740460	159.754545
3014.974522	157.646853
3016.206872	156.015385
3017.437510	156.307692
3018.670994	157.317483
3019.902766	156.046853
3021.132828	158.827273
3022.362698	158.255944
3023.590858	157.066434
3024.820344	155.965734
3026.048122	154.828671
3027.275708	156.130070
3028.504620	157.923776
3029.728790	156.784615
3030.955803	152.017483
3032.179592	148.526573
3033.404708	146.840559
3034.628117	147.451748
3035.851337	145.860140
3037.072851	143.721678
3038.297206	144.004196
3039.516826	143.505594
3040.737771	145.379720
3041.958528	149.194406
3043.177581	152.018881
3044.397960	151.943357
3045.615122	153.172028
3046.833609	154.260839
3048.050394	156.942657
3049.266992	159.089510
3050.483401	157.753147
3051.696598	156.472727
3052.912632	159.040559
3054.125454	157.148951
3055.341113	155.418881
3056.552049	151.981119
3057.764310	149.499301
3058.976385	146.752448
3060.188273	149.025874
3061.398463	146.256643
3062.608467	146.856993
3063.818286	147.763636
3065.026408	148.622727
3066.234344	149.617483
3067.440586	151.545105
3068.648151	148.114685
3069.854023	148.394755
3071.059709	144.156643
3072.265210	144.840909
3073.469018	146.137063
3074.674150	148.240210
3075.877590	148.967832
3077.079337	152.029720
3078.280901	158.156643
3079.482281	162.483217
3080.683477	160.889510
3081.882983	160.376224
3083.082305	156.846853
3084.282951	157.032168
3085.481907	150.978322
3086.677669	149.997902
3087.876260	149.197902
3089.071657	150.957343
3090.268377	150.604895
3091.461905	150.508392
3092.658261	151.315385
3093.852931	148.497203
3095.044410	146.823077
3096.240220	147.768531
3097.431337	145.461538
3098.623776	146.120280
3099.813028	142.874825
3101.005106	143.727972
3102.195499	145.308392
3103.382707	147.149650
3104.571238	142.700699
3105.761091	142.511888
3106.947759	141.306993
3108.134248	141.979720
3109.320557	144.682517
3110.508188	149.108392
3111.692638	149.024476
3112.875407	148.748951
3114.061000	144.933566
3115.244912	144.989510
3116.427146	142.166434
3117.609201	139.976923
3118.791079	136.117483
3119.972778	138.520979
3121.152799	140.334266
3122.331144	142.316783
3123.512310	145.659441
3124.690300	148.860140
3125.868113	147.237762
3127.045749	148.781818
3128.221710	143.741958
3129.397494	141.665734
3130.574600	136.395105
3131.750031	137.468531
3132.923789	135.311189
3134.095875	135.351049
3135.269281	136.137063
3136.442512	135.330769
3137.614070	137.531469
3138.786950	139.397203
3139.956662	141.455944
3141.127695	143.369930
3142.297057	143.438462
3143.464750	145.757343
3144.635258	146.207692
3145.801107	152.088112
3146.971266	147.656643
3148.136767	146.019580
3149.302095	144.406993
3150.467249	140.021678
3151.632229	138.955944
3152.798530	137.574825
3153.960177	135.130769
3155.123145	133.374126
3156.285939	136.269231
3157.448561	137.022378
3158.609518	136.410490
3159.770302	136.381818
3160.930914	134.451748
3162.089863	136.393706
3163.248639	136.899301
3164.407244	135.730769
3165.565677	137.213287
3166.723938	138.874126
3167.880537	140.192308
3169.035475	139.637762
3170.191732	141.330070
3171.346329	142.384615
3172.500754	142.427972
3173.653520	142.058741
3174.806116	142.096503
3175.958541	140.530769
3177.110797	141.618881
3178.262883	137.834266
3179.411822	136.616783
3180.563568	136.681818
3181.713656	134.926573
3182.862088	135.565035
3184.010351	135.648951
3185.158444	137.490909
3186.306369	136.958042
3187.452639	136.367133
3188.598740	133.655944
3189.743186	134.057343
3190.887465	133.381818
3192.031576	129.846853
3193.177005	129.956643
3194.319294	131.692308
3195.461417	133.676923
3196.603372	135.265734
3197.745161	136.786014
3198.886782	137.273427
3200.025267	135.216783
3201.165070	133.904895
3202.306191	133.804895
3203.444177	133.676923
3204.580514	132.539161
3205.716685	132.339161
3206.854174	133.304895
3207.990013	135.953147
3209.127170	136.958741
3210.259714	136.629371
3211.396540	139.970629
3212.528754	136.598601
3213.662286	134.749650
3214.795652	131.263636
3215.925891	127.799301
3217.058928	124.594406
3218.188839	124.626573
3219.320067	122.947552
3220.448169	123.115385
3221.579068	126.253846
3222.708324	128.644755
3223.835935	131.356643
3224.960425	133.622378
3226.089190	135.979720
3227.214833	137.440559
3228.340313	138.544755
3229.464152	139.206294
3230.590785	141.722378
3231.712821	144.311888
3232.836173	149.925175
3233.959363	155.121678
3235.082391	160.449650
3236.203779	162.515385
3237.325006	163.745455
3238.444594	169.227972
3239.564021	173.103497
3240.681810	174.645455
3241.802392	178.962937
3242.919859	181.298601
3244.037167	181.709790
3245.154313	179.551748
3246.269824	179.902098
3247.386650	172.116783
3248.500365	163.793007
3249.616870	153.000699
3250.731741	144.689510
3251.843503	139.732867
3252.955106	132.504895
3254.068023	130.324476
3255.180782	129.862937
3256.290434	129.286014
3257.401400	129.515385
3258.512208	129.081818
3259.621385	130.818182
3260.728930	127.036364
3261.837790	127.546154
3262.946491	125.304196
3264.052090	122.222378
3265.159003	118.697203
3266.264288	118.125874
3267.370886	120.680420
3268.474384	122.758741
3269.579196	123.425175
3270.683851	128.388811
3271.785407	130.437762
3272.886808	129.457343
3273.989522	130.912587
3275.092079	131.227972
3276.191540	127.595804
3277.293785	123.390210
3278.392934	120.001399
3279.490459	120.927972
3280.587828	121.751748
3281.687980	123.323077
3282.785038	125.944755
3283.881941	126.531469
3284.978689	126.336364
3286.070879	126.520979
3287.167317	130.592308
3288.262134	127.967133
3289.356795	128.100699
3290.449835	130.988811
3291.542721	129.740559
3292.633986	130.673427
3293.726564	130.345455
3294.817521	130.604196
3295.906859	130.031469
3296.996044	126.828671
3298.086542	127.241259
3299.173955	126.116783
3300.261216	125.871329
3301.349789	127.509091
3302.438209	129.910490
3303.522082	134.187413
3304.610197	132.157343
3305.695231	134.504196
3306.778648	135.299301
3307.863378	135.742657
3308.946493	134.474825
3310.030919	134.432867
3311.112267	132.423077
3312.194927	127.225874
3313.275973	124.196503
3314.356868	121.825175
3315.436150	117.495105
3316.515281	116.721678
3317.595723	114.041958
3318.673092	114.121678
3319.751771	116.369231
3320.828840	116.899301
3321.905758	116.178322
3322.981065	118.951748
3324.056223	118.221678
3325.132692	118.451748
3326.206091	117.783916
3327.279341	117.776923
3328.353902	119.500000
3329.426853	119.430769
3330.498197	122.391608
3331.570851	121.019580
3332.640438	123.134266
3333.711336	121.394406
3334.780627	119.946154
3335.851229	120.469231
3336.920224	119.219580
3337.987613	121.124476
3339.053397	119.736364
3340.123407	120.030769
3341.190354	119.758042
3342.254239	120.312587
3343.320892	119.756643
3344.385940	120.203497
3345.449385	122.031469
3346.512684	121.892308
3347.575836	123.670629
3348.638842	124.871329
3349.701702	125.904895
3350.762960	128.079021
3351.821161	124.186713
3352.883583	122.704895
3353.942948	120.287413
3355.002168	119.886713
3356.062698	121.636364
3357.118718	123.873427
3358.177503	124.073427
3359.231780	124.963636
3360.288820	126.492308
3361.344263	127.173427
3362.401014	126.430769
3363.456168	125.667832
3364.509724	122.015385
3365.561683	119.979720
3366.616404	119.474126
3367.668076	121.629371
3368.719605	124.858741
3369.772443	122.375524
3370.822233	122.967832
3371.873331	124.581818
3372.921384	123.198601
3373.972197	122.947552
3375.019964	121.132168
3376.067589	122.639860
3377.115071	122.102098
3378.160961	118.076923
3379.208159	118.311888
3380.252315	119.611888
3381.299229	117.853846
3382.344551	116.804895
3383.386833	115.760140
3384.428973	118.697902
3385.472421	116.482517
3386.515729	117.141259
3387.557446	120.332867
3388.599022	122.265734
3389.640458	119.669231
3390.680304	114.388112
3391.718563	117.090210
3392.758129	118.930070
3393.797554	117.152448
3394.835392	119.448252
3395.871643	117.851049
3396.907755	117.574825
3397.945174	117.305594
3398.979560	118.102098
3400.015253	121.520979
3401.050807	120.072727
3402.083330	117.929371
3403.118606	115.381818
3404.150851	116.936364
3405.182958	115.674126
3406.213481	114.855944
3407.245312	117.225175
3408.277003	115.211888
3409.305668	118.067133
3410.334194	123.409790
3411.364028	121.376923
3412.393723	125.592308
3413.420393	125.916084
3414.448370	126.195105
3415.473322	124.131469
3416.501024	120.900000
3417.525703	119.435664
3418.551688	117.518182
3419.576093	117.148951
3420.600362	116.523077
3421.623052	119.781818
3422.645606	120.202098
3423.669466	118.567832
3424.690306	118.684615
3425.711011	117.920080
3426.733021	117.120305
3427.752013	116.444555
3428.770870	116.052098
3429.791032	116.102198
3430.808178	116.754121
