-118.448435	14.439286
-115.778835	8.824176
-113.112170	4.863586
-110.446257	2.407692
-107.783276	1.306668
-105.118866	1.410689
-102.457386	2.569930
-99.794476	5.617483
-97.136674	8.460140
-94.477441	11.702797
-91.818958	15.506294
-89.163398	14.037063
-86.506410	12.548951
-83.854519	12.076923
-81.201199	11.020280
-78.550799	7.153147
-75.898969	4.427273
-73.252230	4.197203
-70.604061	3.788811
-67.956636	5.702098
-65.312124	6.379720
-62.666184	9.219580
-60.025325	11.388112
-57.383037	10.464336
-54.743657	7.593007
-52.102849	8.330769
-49.462781	9.920979
-46.827785	8.978322
-44.191360	8.775524
-41.557839	9.593706
-38.922889	9.879021
-36.293004	12.974825
-33.659527	16.993706
-31.031112	22.700000
-28.403430	26.041958
-25.774321	14.641958
-23.150268	-59.657343
-20.522626	-368.499301
-17.900037	-986.493007
-15.278180	-1693.614685
-12.657053	639.849650
-10.036656	4862.265035
-7.419147	8482.673427
-4.800210	11047.090909
-2.184159	12537.799301
0.431164	12947.016084
3.045760	12278.081119
5.657473	10538.609790
8.270615	7775.543357
10.878723	4167.968531
13.490413	408.805594
16.097072	-2124.169231
18.705159	-1361.211189
21.312522	-163.228671
23.914860	36.172028
26.520776	40.065734
29.121670	40.439161
31.723992	36.700000
34.321297	31.270629
36.922177	27.681119
39.518043	24.665035
42.115336	18.094406
44.711910	15.248252
47.303475	15.114685
49.896468	13.233566
52.486600	10.388112
55.078160	7.952448
57.666860	10.805594
60.256987	12.993007
62.842116	13.207692
65.428671	11.825175
68.014513	12.210490
70.597501	11.467133
73.181915	10.143357
75.759201	12.658042
78.340053	14.887413
80.918056	15.383217
83.495349	14.976224
86.074068	15.639860
88.647806	18.834266
91.222970	18.894406
93.795291	16.388811
96.366904	16.393007
98.935677	13.602797
101.505877	11.392308
104.073239	8.631469
106.642026	8.646853
109.207977	8.429371
111.771093	10.980420
114.337765	11.013986
116.895216	14.276224
119.458352	17.101399
122.016529	22.159441
124.578259	30.487413
127.135034	50.234266
129.693234	70.835664
132.246482	101.419580
134.799031	134.753147
137.355131	174.172727
139.906284	213.353147
142.456738	249.376224
145.006496	277.610490
147.553434	298.183916
150.099676	306.547552
152.647344	311.512587
155.194317	312.102797
157.736353	313.059441
160.277696	311.635664
162.818346	313.044056
165.360422	314.067832
167.899687	314.066434
170.436142	312.877622
172.971907	311.473427
175.509097	312.291608
178.045595	309.360839
180.579288	307.034965
183.110178	304.562238
185.640379	303.451049
188.172005	304.190909
190.700830	303.928671
193.226856	305.953846
195.752197	305.525175
198.278962	300.111189
200.802930	298.198601
203.326214	299.521678
205.848813	297.940559
208.368619	295.054545
210.887742	293.862937
213.406182	293.037762
215.926046	292.358042
218.438909	296.279720
220.955303	297.640559
223.471015	301.455944
225.981838	305.425175
228.494085	308.510490
231.003549	310.069930
233.512335	313.983916
236.020443	315.845455
238.529974	313.811888
241.034625	313.709790
243.538601	313.978322
246.044000	315.808392
248.544524	317.435664
251.048571	318.041958
253.545648	319.800699
256.046247	324.763636
258.544075	328.006294
261.041230	328.767832
263.537712	331.258741
266.029331	334.332867
268.524470	330.700000
271.016843	332.990210
273.508545	336.678322
275.997483	340.234965
278.487846	342.132867
280.975447	343.612587
283.460288	344.434965
285.948643	345.962238
288.430059	351.757343
290.914989	349.948951
293.395074	350.842657
295.878671	352.078322
298.357425	356.302098
300.837603	360.919580
303.315028	361.528671
305.791790	366.234266
308.267889	382.834266
310.741239	404.590909
313.213927	427.969930
315.685954	447.904196
318.157320	465.309091
320.625942	467.425874
323.093904	465.133566
325.563289	454.556643
328.027850	441.257343
330.495916	421.132168
332.959162	398.349650
335.421750	384.669930
337.883682	381.730070
340.344957	381.893706
342.803498	384.048252
345.263461	385.427273
347.720691	387.309790
350.177267	387.046853
352.633189	385.069231
355.086382	385.029371
357.540996	387.131469
359.990809	392.582517
362.444119	394.078322
364.892629	395.167133
367.340489	395.537063
369.789770	394.827972
372.234258	396.329371
374.680168	395.703497
377.125429	398.053147
379.567970	396.130070
382.009864	394.631469
384.451111	392.986014
386.889642	391.707692
389.329595	392.272727
391.766834	389.844056
394.201361	386.468531
396.639376	387.176923
399.072614	386.444056
401.507274	387.635664
403.937160	389.068531
406.370532	389.827972
408.799134	391.162937
411.227095	394.302797
413.656476	394.837762
416.081092	395.572028
418.507130	394.560140
420.932527	392.681818
423.357284	392.374825
425.777283	396.613986
428.198703	397.258741
430.617426	398.567832
433.037570	399.224476
435.455019	398.845455
437.873888	403.454545
440.290064	407.486713
442.701493	407.954545
445.116398	404.533566
447.528613	400.917483
449.940194	399.348951
452.351141	398.667133
454.759402	394.701399
457.167030	393.175524
459.574027	388.607692
461.980391	384.132867
464.384073	381.207692
466.787125	378.769231
469.189547	375.916783
471.591340	368.945455
473.990454	365.164336
476.390988	364.798601
478.790893	364.487413
481.186075	368.132168
483.584724	368.311888
485.978653	370.504196
488.371956	365.161538
490.764633	360.995804
493.156685	354.238462
495.550156	343.885315
497.938914	330.365734
500.325006	316.791608
502.712518	303.141259
505.099406	290.336364
507.483631	279.747552
509.869275	268.060140
512.252256	257.550350
514.632577	248.051049
517.014317	239.303497
519.393398	236.600699
521.773898	233.097203
524.151740	229.410490
526.526927	222.757343
528.901496	221.407692
531.277484	218.087413
533.650818	216.706294
536.025570	210.833566
538.395637	205.405594
540.765088	206.102098
543.135957	205.429371
545.502146	207.191608
547.869753	207.404895
550.234714	206.575524
552.599062	201.736364
554.962798	198.272727
557.327951	196.503497
559.688431	196.295804
562.050330	195.134266
564.409589	190.555245
566.766209	189.539860
569.126274	188.408392
571.479649	187.053147
573.836468	186.688112
576.190651	183.568531
578.544227	183.030769
580.897194	179.998601
583.247530	181.748252
585.599282	179.270629
587.944358	182.169930
590.294898	181.056643
592.638765	182.269930
594.988092	180.346853
597.332772	181.373427
599.674826	180.553147
602.018298	180.362937
604.359147	178.381119
606.699394	176.694406
609.037020	174.141958
611.378081	174.415385
613.714504	168.963636
616.052345	166.574825
618.387567	164.313986
620.720174	163.560839
623.054197	162.468531
625.385607	163.103497
627.716418	163.020280
630.046631	162.483916
632.376246	163.409790
634.701239	165.546154
637.031673	166.044056
639.357485	166.452448
641.680691	164.062238
644.005312	164.674825
646.327329	164.052448
648.648751	160.676224
650.967570	162.396503
653.287805	158.936364
655.607447	157.506993
657.924488	153.991608
660.240937	153.590210
662.554788	149.337762
664.870055	146.719580
667.182725	145.300000
669.496810	144.006294
671.806295	142.071329
674.117196	142.580420
676.425504	146.427273
678.733224	148.830070
681.042359	149.490909
683.346901	150.148252
685.650856	147.457343
687.954226	146.446853
690.259010	141.993706
692.559208	141.875524
694.860820	140.756643
697.161848	138.051748
699.458293	138.292308
701.756154	141.096503
704.053431	145.973427
706.350125	143.386014
708.642243	144.757343
710.937772	143.986713
713.228728	142.556643
715.521098	144.284615
717.810892	140.000699
720.100107	140.605594
722.388741	139.769930
724.674804	140.126573
726.962280	144.158042
729.247186	146.852448
731.531513	149.646154
733.813272	149.095804
736.096445	147.693007
738.379041	148.761538
740.657082	149.259441
742.936536	150.250350
745.215415	147.969930
747.493718	146.610490
749.767472	144.830769
752.042640	145.683916
754.317234	149.461538
756.589268	151.595804
758.862716	149.293007
761.133606	148.870629
763.401940	148.786014
765.671687	152.537063
767.938880	155.151049
770.205502	158.127273
772.471555	160.386014
774.735055	160.285315
776.999969	160.437762
779.264313	160.855944
781.524128	160.739161
783.785356	158.153147
786.046015	152.777622
788.304129	150.683217
790.559698	153.594406
792.818658	153.444056
795.071119	152.857343
797.328947	154.892308
799.582255	153.724476
801.833024	151.525175
804.085205	150.803497
806.334848	149.988811
808.585902	149.915385
810.832445	150.842657
813.080400	148.730070
815.325821	148.167133
817.572653	148.832867
819.818924	147.413986
822.060691	141.980420
824.305840	140.369231
826.544517	137.351049
828.786577	133.632168
831.024138	135.224476
833.263110	134.162937
835.499556	134.412587
837.737413	134.404196
839.972745	134.123776
842.205554	132.824476
844.439774	130.926573
846.671472	131.264336
848.902615	126.644056
851.133203	125.933566
853.363236	126.838462
855.592716	124.552448
857.817714	126.118881
860.046087	125.633566
862.269981	126.913287
864.495285	131.113287
866.716114	132.820979
868.940315	129.551049
871.160043	129.995105
873.381182	130.691608
875.601770	129.276923
877.819848	127.366434
880.039337	127.658042
882.254359	129.011888
884.468833	129.683916
886.682760	134.753147
888.896139	139.193007
891.108971	142.941958
893.321257	142.076224
895.531040	138.832867
897.740278	141.005594
899.948971	138.765035
902.155165	136.522378
904.362768	131.934965
906.567874	131.860839
908.772436	130.834266
910.974502	128.830769
913.177978	131.847552
915.378960	130.118881
917.579401	129.816783
919.781249	129.974126
921.976707	128.691608
924.175524	130.909091
926.369902	130.958741
928.567638	130.973427
930.760938	128.445455
932.955647	129.721678
935.147870	128.664336
937.339555	129.404895
939.530702	131.411888
941.719366	130.275524
943.907493	134.778322
946.093140	136.037063
948.282139	137.211888
950.466715	141.047552
952.650756	143.329371
954.838147	144.902797
957.017234	148.619580
959.199672	152.358741
961.381576	157.010490
963.561006	158.202098
965.737963	160.945455
967.916327	161.775524
970.096099	166.093007
972.269522	167.381818
974.446291	169.851748
976.618653	173.673427
978.792423	172.969930
980.961789	174.430070
983.134500	179.446154
985.304744	182.019580
987.474460	184.255245
989.643647	183.857343
991.808437	182.994406
993.976568	183.732867
996.140305	186.590909
998.305448	190.544755
1000.468133	192.793007
1002.630291	196.060140
1004.789993	194.219580
1006.949171	196.833566
1009.109755	201.720280
1011.267884	204.217483
1013.425489	205.870629
1015.582571	206.427972
1017.739130	205.928671
1019.891309	208.907692
1022.044894	209.753147
1024.197958	212.450350
1026.348574	213.354545
1028.500595	215.827273
1030.648243	213.379720
1032.799223	216.950350
1034.945832	218.050350
1037.091923	219.530070
1039.237494	221.602797
1041.384471	221.434266
1043.525159	224.983916
1045.669177	230.302797
1047.810754	231.970629
1049.951815	236.849650
1052.094280	238.424476
1054.230466	240.367832
1056.369978	239.020979
1058.505134	241.225874
1060.643615	238.067832
1062.777742	235.128671
1064.911356	233.193706
1067.046375	228.320979
1069.177044	227.435664
1071.309118	224.878322
1073.438763	219.571329
1075.567896	217.067133
1077.696517	210.322378
1079.824627	206.145455
1081.950311	205.309790
1084.075485	204.322378
1086.202063	204.423077
1088.324304	203.432867
1090.447948	204.925175
1092.567259	204.126573
1094.691798	204.720979
1096.810092	202.064336
1098.929791	200.374825
1101.047071	196.903497
1103.163845	189.488811
1105.280112	185.366434
1107.393964	185.115385
1109.509219	180.476923
1111.620152	182.248951
1113.734396	177.107692
1115.844320	174.355944
1117.955648	173.488811
1120.066471	174.453147
1122.172979	174.669231
1124.282795	175.309790
1126.388297	175.688811
1128.495202	172.164336
1130.595892	171.257343
1132.701794	172.224476
1134.803387	166.200000
1136.906383	167.179021
1139.008878	161.492308
1141.105166	157.837762
1143.206662	157.529371
1145.303855	158.540559
1147.400549	156.035664
1149.496745	158.753147
1151.592444	159.769231
1153.687645	159.441259
1155.780449	162.203497
1157.874655	161.636364
1159.962670	157.232867
1162.055883	159.344755
1164.142908	155.395105
1166.233232	153.254545
1168.319269	151.071329
1170.408603	147.460140
1172.491756	146.990909
1174.576311	148.420979
1176.662268	147.837063
1178.743943	148.376224
1180.827020	150.925175
1182.907711	148.205594
1184.987910	147.733566
1187.067618	147.386014
1189.146835	146.609091
1191.223670	148.169930
1193.298124	148.007692
1195.375870	150.113287
1197.449345	153.127972
1199.524221	151.615385
1201.594830	152.563636
1203.666841	153.074126
1205.736475	153.601399
1207.807510	150.875524
1209.878057	147.320979
1211.944343	144.343357
1214.012030	142.127972
1216.077345	140.458042
1218.144060	138.368531
1220.206519	139.627972
1222.272263	140.206294
1224.333754	138.571329
1226.396644	140.986713
1228.457167	141.820280
1230.517206	143.065035
1232.576763	140.042657
1234.633954	135.818881
1236.690664	133.706294
1238.745011	131.202098
1240.802638	130.465035
1242.857903	128.528671
1244.908927	130.783916
1246.961351	131.583217
1249.013295	129.716783
1251.062881	132.155245
1253.111988	131.633566
1255.160617	129.919580
1257.208767	124.101399
1259.256439	123.098601
1261.299880	123.720280
1263.346596	122.401399
1265.390959	122.113986
1267.434846	119.683916
1269.476382	120.730070
1271.515567	121.206294
1273.558026	122.120280
1275.596262	121.138462
1277.635897	120.559441
1279.675057	119.860140
1281.709998	117.253846
1283.746339	121.205594
1285.780334	122.671329
1287.815728	121.225175
1289.846908	120.314685
1291.879487	119.983916
1293.911593	119.793706
1295.941359	118.872028
1297.972523	116.145455
1299.999479	110.765035
1302.027833	110.533566
1304.051983	108.750350
1306.079397	107.315385
1308.102609	110.400699
1310.127219	109.144056
1312.149495	111.840559
1314.173168	113.289510
1316.194508	118.137063
1318.215380	116.822378
1320.235786	118.103497
1322.251997	117.725175
1324.269606	118.072727
1326.284888	121.283217
1328.303427	121.488112
1330.317778	122.102098
1332.329803	121.190909
1334.345085	119.823776
1336.356182	120.513986
1338.368676	117.750350
1340.376987	117.027273
1342.388554	115.011888
1344.394081	113.511189
1346.402864	112.216783
1348.407469	111.859441
1350.415328	114.171329
1352.422725	113.869930
1354.424091	114.965734
1356.426854	114.712587
1358.429156	113.990909
1360.430999	113.967832
1362.432382	112.703497
1364.431452	112.907692
1366.430063	112.891608
1368.428216	112.723077
1370.425911	113.748951
1372.419442	113.679021
1374.414370	114.370629
1376.408841	115.577622
1378.402855	116.843357
1380.394561	115.581119
1382.385813	115.551049
1384.374759	115.778322
1386.365100	115.946853
1388.354986	114.688112
1390.342569	113.523776
1392.329697	115.271329
1394.314525	113.318881
1396.300746	113.565035
1398.284668	114.746853
1400.268137	114.532867
1402.251154	114.192308
1404.231872	113.456643
1406.213986	114.469231
1408.193802	115.540559
1410.173168	116.988112
1412.148394	116.478322
1414.126860	117.758741
1416.103031	121.720280
1418.078754	123.651748
1420.054027	128.906993
1422.027009	129.188112
1423.999543	122.376923
1425.971630	122.995804
1427.943268	122.691608
1429.910778	121.246853
1431.883363	118.492308
1433.848141	115.034965
1435.817991	114.387413
1437.783718	114.816783
1439.750837	115.343357
1441.715673	116.323077
1443.676390	115.394406
1445.642174	112.427273
1447.602003	113.073427
1449.563225	118.100000
1451.525840	121.541259
1453.484340	123.341259
1455.442398	123.727972
1457.400013	124.415385
1459.357187	125.561538
1461.312085	126.728671
1463.268375	126.959441
1465.222391	125.737762
1467.175967	124.494406
1469.127270	124.515385
1471.079965	124.861538
1473.030389	122.022378
1474.980373	121.790210
1476.929919	123.410490
1478.877196	123.681818
1480.822206	123.441958
1482.768607	126.091608
1484.714572	131.730070
1486.660098	136.117483
1488.603360	134.646154
1490.546185	136.646853
1492.486747	135.943357
1494.428700	133.697203
1496.368392	132.288811
1498.307648	131.281119
1500.246469	130.278322
1502.183031	130.713986
1504.120984	129.982517
1506.056679	132.314685
1507.991939	132.517483
1509.924944	133.228671
1511.857516	132.865035
1513.789656	137.195105
1515.721364	140.523776
1517.650818	144.516783
1519.581663	149.502797
1521.512077	152.298601
1523.438417	152.078322
1525.366149	155.002797
1527.291630	154.873427
1529.216682	152.176224
1531.141305	147.332168
1533.065499	147.789510
1534.987446	149.960140
1536.910782	152.739161
1538.831873	156.739860
1540.750719	160.803497
1542.670955	168.018881
1544.588947	175.630769
1546.506513	181.000699
1548.421837	194.795804
1550.338551	209.396503
1552.251210	219.076923
1554.167073	232.518182
1556.080696	250.562937
1557.992082	269.490909
1559.904856	291.078322
1561.813581	317.408392
1563.723696	354.436364
1565.633387	409.411888
1567.542654	494.669231
1569.449688	611.433566
1571.354489	764.544056
1573.260679	929.988112
1575.164637	1083.674126
1577.068175	1206.232867
1578.971291	1272.627972
1580.872179	1275.790909
1582.774454	1215.388811
1584.674502	1100.265734
1586.575937	944.549650
1588.473339	772.390210
1590.370322	613.463636
1592.266887	481.933566
1594.164840	389.381119
1596.056958	329.009091
1597.952269	290.269930
1599.847163	260.149650
1601.739835	238.313986
1603.632091	224.262238
1605.522126	211.851748
1607.411747	204.520979
1609.300951	194.672028
1611.189741	185.839161
1613.076314	180.291608
1614.964273	176.016783
1616.848216	173.348252
1618.733547	170.548951
1620.618463	165.581119
1622.501166	158.950350
1624.385256	155.293007
1626.265335	151.405594
1628.146800	147.018881
1630.026055	144.349650
1631.906696	140.746154
1633.781533	137.374126
1635.661352	137.109790
1637.537165	137.995804
1639.412568	143.327972
1641.289358	142.625874
1643.160350	142.455944
1645.034524	140.323776
1646.904700	138.579021
1648.778056	135.753846
1650.649209	132.427972
1652.518160	131.800000
1654.388497	130.313287
1656.254840	128.147552
1658.122569	127.774825
1659.988100	129.138462
1661.855015	131.740559
1663.717942	127.985315
1665.582254	126.930070
1667.444370	123.183916
1669.306082	122.503497
1671.169178	122.588112
1673.030080	122.343357
1674.888788	124.043357
1676.747093	123.030070
1678.606783	123.932168
1680.460706	127.260140
1682.317801	126.089510
1684.174494	126.843357
1686.027211	126.552448
1687.883098	124.995105
1689.735012	123.678322
1691.586525	125.674825
1693.437637	128.001399
1695.288349	128.851748
1697.138660	128.741958
1698.986787	128.074126
1700.836297	130.109091
1702.680059	130.960839
1704.528770	128.371329
1706.371736	126.902098
1708.217867	124.615385
1710.060037	122.390909
1711.905371	120.072028
1713.744965	120.629371
1715.585943	122.406993
1717.428304	122.974825
1719.266709	122.946853
1721.106497	122.317483
1722.944110	123.505594
1724.781327	124.449650
1726.616371	123.913287
1728.452798	125.744755
1730.287053	124.131469
1732.120913	124.865035
1733.954380	126.354545
1735.783900	125.878322
1737.616579	127.917483
1739.445314	128.358042
1741.277207	127.026573
1743.105157	126.483217
1744.932715	128.088811
1746.759881	126.793007
1748.586656	125.239161
1750.413040	126.131469
1752.235487	122.246853
1754.061088	123.204196
1755.882755	123.137762
1757.705804	121.404895
1759.526692	122.737063
1761.347190	122.816783
1763.169070	119.006294
1764.985250	119.913986
1766.804582	120.499301
1768.619987	119.320280
1770.438542	118.851049
1772.253172	119.327972
1774.067416	116.689510
1775.881272	118.086713
1777.694742	118.137762
1779.506059	118.933566
1781.318757	120.724476
1783.131068	121.389510
1784.939462	122.025874
1786.749237	122.806993
1788.555096	123.332168
1790.364101	122.912587
1792.169193	122.235664
1793.975666	122.786014
1795.781755	120.753147
1797.583934	120.916084
1799.389256	120.324476
1801.190670	118.318182
1802.993464	119.283916
1804.792352	120.681818
1806.592621	121.844755
1808.392508	119.369930
1810.190254	120.576224
1811.987618	119.886014
1813.784603	123.236364
1815.581207	124.325175
1817.375672	126.093706
1819.171516	125.544755
1820.961706	127.387413
1822.756792	128.553846
1824.546225	130.092308
1826.338795	132.109091
1828.129230	131.683916
1829.917531	127.615385
1831.708967	126.716783
1833.494757	125.087413
1835.281927	124.572028
1837.066965	121.518182
1838.855137	120.862937
1840.639423	120.647552
1842.421580	121.881119
1844.205115	122.256643
1845.986522	123.690210
1847.769308	124.101399
1849.548214	125.416084
1851.328498	124.529371
1853.106656	127.051049
1854.886193	126.298601
1856.663605	125.312587
1858.438893	124.137762
1860.215560	123.760140
1861.990103	121.697902
1863.766025	115.839860
1865.536326	114.833566
1867.309755	115.240559
1869.081064	115.202797
1870.852003	117.674825
1872.624318	121.409091
1874.391020	123.662937
1876.160848	126.853147
1877.926812	130.347552
1879.695900	130.623776
1881.461126	131.143357
1883.225983	129.341958
1884.992218	125.295804
1886.754594	126.230070
1888.516603	125.759441
1890.278244	126.990210
1892.039519	125.289510
1893.800426	124.641958
1895.560967	124.177622
1897.319398	126.618182
1899.077464	125.858741
1900.833421	123.347552
1902.590756	125.690909
1904.347724	126.823077
1906.102587	122.219580
1907.855344	121.288811
1909.607738	121.779720
1911.361507	120.679021
1913.113173	119.667133
1914.862737	117.623077
1916.613677	117.717483
1918.364253	117.057343
1920.110990	116.189510
1921.859104	114.731469
1923.605118	118.237063
1925.352508	118.457343
1927.097799	116.154545
1928.840993	117.711189
1930.585563	119.522378
1932.328036	119.907692
1934.070149	122.941259
1935.811902	122.608392
1937.553296	122.981818
1939.292596	122.886014
1941.031536	121.675524
1942.770119	121.610490
1944.506609	122.971329
1946.242742	119.992308
1947.980249	117.247552
1949.713934	117.965734
1951.448994	118.027273
1953.181966	118.303497
1954.914581	120.397902
1956.646839	119.283916
1958.378741	119.124476
1960.108557	124.390210
1961.836289	125.933566
1963.565394	128.199301
1965.294145	129.778322
1967.020812	127.833566
1968.747125	127.859441
1970.474811	128.564336
1972.196961	128.444056
1973.922212	127.993706
1975.643657	124.212587
1977.368201	120.944755
1979.090666	118.525874
1980.809327	119.758741
1982.531087	115.762238
1984.249045	113.789510
1985.968376	115.175524
1987.683908	117.907692
1989.404261	120.798601
1991.120814	122.707692
1992.833571	126.290909
1994.549425	127.832867
1996.263205	125.661538
1997.976636	126.263636
1999.687996	123.583916
2001.400729	122.127972
2003.109670	119.701399
2004.821705	120.484615
2006.528230	120.483916
2008.237848	121.755245
2009.945398	122.479021
2011.652601	123.935664
2013.357738	126.555944
2015.062528	125.346853
2016.768690	124.593706
2018.471070	122.053846
2020.174822	120.988112
2021.876510	119.972727
2023.577854	121.639161
2025.278852	123.158042
2026.977790	121.136364
2028.678098	117.939161
2030.374632	117.759441
2032.072537	118.404895
2033.768383	119.738462
2035.467315	118.533566
2037.160761	120.721678
2038.855579	119.389510
2040.550053	120.612587
2042.240759	120.930070
2043.934549	124.976923
2045.624572	126.906993
2047.315966	126.730070
2049.005307	123.047552
2050.696018	122.576923
2052.382966	122.564336
2054.069575	121.869231
2055.757554	120.959441
2057.441773	121.308392
2059.127362	118.492308
2060.812612	116.326573
2062.495814	116.168531
2064.180385	117.458741
2065.859494	120.491608
2067.543388	121.367832
2069.221822	121.819580
2070.903332	121.674825
2072.581092	123.790909
2074.258514	121.088811
2075.937306	120.677622
2077.614056	120.740559
2079.288764	119.523077
2080.964841	117.503497
2082.638878	117.178322
2084.312579	116.388811
2085.985945	116.761538
2087.657273	116.320280
2089.328266	117.544755
2090.998925	117.897203
2092.669249	119.873427
2094.339240	118.138462
2096.007195	121.493007
2097.674817	122.785315
2099.340404	122.892308
2101.007361	121.020979
2102.672283	120.839161
2104.336874	118.037063
2105.999433	118.158042
2107.663360	116.988811
2109.325257	116.044056
2110.986822	115.596503
2112.648056	115.289510
2114.307262	114.285315
2115.966137	117.276224
2117.624683	117.031469
2119.282899	117.255944
2120.937391	117.763636
2122.594948	115.395105
2124.252176	114.648252
2125.905682	116.196503
2127.560556	114.548252
2129.211712	114.904196
2130.865929	115.614685
2132.516430	114.711888
2134.168297	115.737063
2135.814756	119.187413
2137.465970	119.621678
2139.113470	121.713986
2140.762337	122.153147
2142.409186	122.020979
2144.055708	124.460140
2145.701905	125.648951
2147.344394	126.381119
2148.989941	125.979021
2150.631781	125.713986
2152.276678	123.166434
2153.917870	121.536364
2155.558738	121.763636
2157.199282	121.771329
2158.837814	122.541259
2160.477712	124.290210
2162.113910	126.744755
2163.751475	131.281818
2165.388716	132.699301
2167.023948	132.051748
2168.658859	131.619580
2170.293448	131.147552
2171.927715	130.880420
2173.558289	128.937762
2175.191915	125.479021
2176.821849	122.726573
2178.453148	124.116783
2180.082442	124.158741
2181.711417	123.283217
2183.340073	125.988112
2184.968409	124.573427
2186.594742	123.031469
2188.220757	124.823077
2189.844771	123.132168
2191.470149	122.472028
2193.093528	117.651049
2194.718270	113.548951
2196.339332	114.320979
2197.960077	116.511888
2199.582187	116.523776
2201.202299	115.530769
2202.820414	118.723776
2204.438214	119.838462
2206.055699	121.918182
2207.672868	121.555944
2209.289722	118.533566
2210.906261	117.840559
2212.520806	116.720280
2214.133359	117.219580
2215.747276	118.107692
2217.359202	117.551049
2218.972491	119.787413
2220.583790	119.922378
2222.193099	122.261538
2223.803772	123.688112
2225.412456	125.431469
2227.020828	123.218182
2228.627212	122.558042
2230.234960	122.114685
2231.840721	120.504895
2233.446171	118.667832
2235.049636	121.289510
2236.654464	121.524476
2238.257309	123.069231
2239.858170	124.212587
2241.460393	126.149650
2243.060635	128.303497
2244.662239	130.068531
2246.260191	130.346154
2247.859505	128.586713
2249.456839	126.246853
2251.053864	123.804196
2252.652252	120.706294
2254.246991	122.400000
2255.839753	119.269231
2257.433878	116.981818
2259.029364	116.970629
2260.621206	118.634965
2262.212741	117.595804
2263.805637	119.657343
2265.393224	120.427273
2266.985508	119.770629
2268.572484	118.354545
2270.162489	117.058741
2271.747189	114.355245
2273.336583	115.714685
2274.920674	113.618182
2276.506127	114.549650
2278.089610	113.648252
2279.676120	114.204196
2281.258996	113.244056
2282.841568	114.486713
2284.423837	114.786713
2286.002477	116.613986
2287.584140	115.105594
2289.162175	116.408392
2290.743233	115.458042
2292.320665	115.550350
2293.896132	114.851748
2295.474622	115.853147
2297.049488	112.068531
2298.624053	111.620280
2300.198318	110.290210
2301.772282	109.518182
2303.345946	109.341958
2304.919309	111.641259
2306.489054	114.590210
2308.058500	119.680420
2309.630965	123.897902
2311.198154	127.356643
2312.768362	129.263636
2314.334955	129.317483
2315.902908	127.098601
2317.468905	123.306294
2319.034605	122.455245
2320.600008	123.113287
2322.163456	127.219580
2323.728264	135.496503
2325.289464	139.862937
2326.853678	140.958741
2328.412631	142.021678
2329.974597	140.633566
2331.534613	136.104895
2333.094333	129.311888
2334.652104	123.327273
2336.209580	116.489510
2337.766762	113.206294
2339.321997	114.139860
2340.876937	116.243357
2342.431584	119.872727
2343.985937	117.869231
2345.539996	116.253147
2347.093761	117.358042
2348.645583	119.317483
2350.195461	118.003497
2351.748347	116.506993
2353.295991	116.035664
2354.846642	115.214685
2356.393702	114.481119
2357.942121	116.813287
2359.490247	118.909091
2361.034785	121.216084
2362.580681	123.086014
2364.124639	123.181818
2365.669954	125.330769
2367.211684	125.350350
2368.754771	124.144056
2370.295923	124.755245
2371.836785	122.851049
2373.377358	123.365035
2374.917641	122.124476
2376.457636	120.269231
2377.994053	118.189510
2379.533471	115.419580
2381.069312	114.714685
2382.606509	112.227273
2384.140131	113.049650
2385.676754	114.344755
2387.211445	115.418881
2388.744207	118.355245
2390.276682	120.162937
2391.807230	120.991608
2393.340775	121.851049
2394.869109	120.743357
2396.398799	121.190210
2397.928204	121.079720
2399.457323	121.734266
2400.986158	121.462937
2402.509787	123.731469
2404.038053	124.452448
2405.561115	123.654545
2407.088811	127.062937
2408.609668	127.324476
2410.135158	125.310490
2411.657087	126.730769
2413.180372	126.695105
2414.701736	129.434266
2416.221180	126.019580
2417.741979	128.950350
2419.260859	127.432867
2420.779457	125.433566
2422.296138	124.662238
2423.814173	122.745455
2425.331927	125.281818
2426.846130	122.807692
2428.360052	123.690909
2429.873694	127.201399
2431.388691	131.420280
2432.900139	136.106993
2434.412942	137.408392
2435.923832	143.654545
2437.434442	143.209091
2438.943141	145.162238
2440.454827	149.734266
2441.962968	148.951748
2443.470832	148.074126
2444.978418	144.644056
2446.482463	146.246154
2447.989494	146.561538
2449.494616	143.081818
2450.999461	140.072028
2452.502399	137.331469
2454.005060	137.735664
2455.507445	137.002797
2457.007925	137.126573
2458.509758	140.469231
2460.009687	137.783217
2461.509340	136.630769
2463.008717	137.073427
2464.506192	137.379021
2466.001765	135.216084
2467.500319	132.710490
2468.995343	133.634266
2470.491721	133.741259
2471.984571	135.269930
2473.478775	135.075524
2474.972705	135.383217
2476.463112	136.440559
2477.956495	135.132168
2479.447981	131.609091
2480.937570	128.558741
2482.426887	126.791608
2483.914309	125.420280
2485.404706	125.306993
2486.891584	127.031469
2488.379814	124.981119
2489.864528	126.227273
2491.348971	125.923776
2492.834766	127.365035
2494.318668	127.495804
2495.803922	128.826573
2497.284042	125.213986
2498.767134	125.630070
2500.248336	127.498601
2501.729269	126.884615
2503.208313	127.199301
2504.687088	125.979021
2506.165595	123.761538
2507.643834	123.127273
2509.121804	120.067133
2510.596270	119.913986
2512.073704	119.712587
2513.547635	120.080420
2515.022916	119.679021
2516.497931	120.103497
2517.969444	120.422378
2519.442307	122.953147
2520.913288	124.327273
2522.385619	124.302098
2523.852837	123.724476
2525.323020	121.262238
2526.791323	119.405594
2528.259361	119.055245
2529.727134	118.254545
2531.194642	121.869930
2532.661885	125.199301
2534.125636	124.866434
2535.590737	124.955245
2537.053961	126.771329
2538.518535	125.741259
2539.979619	123.765734
2541.442053	120.415385
2542.904224	115.404196
2544.362909	114.438462
2545.826166	114.256643
2547.284326	116.834965
2548.743835	122.637063
2550.198251	125.555944
2551.657236	127.159441
2553.114350	127.188811
2554.569593	127.700699
2556.024575	124.055245
2557.477687	123.639860
2558.932148	121.825175
2560.384740	118.084615
2561.837072	117.365734
2563.287536	117.731469
2564.740956	119.356643
2566.189294	119.460839
2567.640588	119.753846
2569.090015	121.483916
2570.535970	120.790909
2571.984881	123.825874
2573.430320	122.473427
2574.877108	124.191608
2576.322032	125.397203
2577.766699	124.961538
2579.212713	124.686713
2580.655260	124.967832
2582.099155	125.362238
2583.539585	123.800000
2584.981362	124.625874
2586.421280	124.592308
2587.862545	122.687413
2589.300349	126.091608
2590.741102	128.255944
2592.176792	129.458741
2593.615432	133.239161
2595.052215	132.727273
2596.487141	133.746154
2597.925016	132.316084
2599.357832	132.518881
2600.791996	129.351049
2602.224306	130.713287
2603.657962	129.063636
2605.089765	132.199301
2606.521315	137.781119
2607.952611	139.701399
2609.382055	141.900699
2610.811248	144.793007
2612.238589	143.000000
2613.667277	142.140559
2615.095712	138.984615
2616.520700	137.016084
2617.947035	134.272028
2619.371521	136.325175
2620.797353	137.180420
2622.219741	139.569930
2623.643475	140.995105
2625.065362	138.933566
2626.487000	142.567832
2627.906792	144.051049
2629.327930	144.183217
2630.748818	145.685315
2632.166268	145.887413
2633.586657	148.967832
2635.003609	153.077622
2636.420313	155.866434
2637.836768	160.884615
2639.252975	162.317483
2640.668933	165.438462
2642.083051	167.396503
2643.496922	171.725175
2644.908953	175.479021
2646.322329	176.759441
2647.732275	178.943357
2649.145156	182.383217
2650.554610	190.025874
2651.963817	194.308392
2653.371187	196.324476
2654.781493	202.660140
2656.189962	206.291608
2657.596596	211.595105
2659.002985	218.664336
2660.407540	223.182517
2661.813439	228.420979
2663.217505	232.742657
2664.621326	240.167832
2666.024904	246.065035
2667.426649	253.734266
2668.829738	257.583916
2670.229409	260.913986
2671.630424	264.725874
2673.028023	268.537063
2674.428552	271.750350
2675.825666	273.422378
2677.224123	273.540559
2678.620752	274.359441
2680.017139	275.397902
2681.413285	273.830070
2682.807604	272.292308
2684.203266	273.742657
2685.595518	274.701399
2686.989114	277.720280
2688.380885	279.941958
2689.773998	284.555245
2691.165288	290.000000
2692.554755	296.070629
2693.943982	298.193007
2695.332970	305.477622
2696.723300	310.309790
2698.108645	315.660140
2699.496914	321.765734
2700.883363	330.721678
2702.269573	340.595804
2703.655545	353.534965
2705.038117	365.742657
2706.422032	380.324476
2707.805709	395.393706
2709.189148	409.459441
2710.569191	420.837063
2711.950576	438.918881
2713.330145	451.193007
2714.711056	459.564336
2716.090151	464.623776
2717.467433	466.590210
2718.846056	463.153147
2720.222866	455.537762
2721.599440	442.714685
2722.975778	424.990210
2724.350304	406.516084
2725.726171	390.002098
2727.098651	375.867133
2728.474047	362.034965
2729.844483	346.030769
2731.216260	329.169930
2732.587802	315.675524
2733.957536	302.770629
2735.328611	290.237762
2736.697877	279.369231
2738.066911	267.118881
2739.434137	253.609091
2740.801131	246.543357
2742.167892	239.944755
2743.534420	235.220280
2744.899143	227.791608
2746.263635	218.836364
2747.627894	209.458741
2748.991921	198.748252
2750.355717	188.021678
2751.716139	179.393007
2753.079472	173.018881
2754.437862	165.002098
2755.799162	157.134965
2757.157091	153.777622
2758.517930	147.482517
2759.876968	146.134965
2761.232638	146.694406
2762.591216	145.476923
2763.946428	143.250350
2765.301410	139.644056
2766.654595	137.254545
2768.010687	138.237762
2769.363415	140.934965
2770.715914	140.718182
2772.068185	140.083217
2773.421795	137.467133
2774.772043	133.981119
2776.120498	134.776923
2777.471857	136.512587
2778.819857	134.423776
2780.169196	131.706993
2781.516742	129.969231
2782.864061	129.046853
2784.211154	128.271329
2785.556456	128.244056
2786.901532	124.323776
2788.246382	122.334965
2789.591005	120.591608
2790.932277	118.369930
2792.274887	119.339860
2793.617271	118.986713
2794.959431	120.041958
2796.298241	117.225175
2797.639950	115.209790
2798.978312	114.558042
2800.318011	111.754545
2801.655924	110.611888
2802.992053	110.439860
2804.327958	112.104895
2805.665201	115.959441
2807.000660	117.320979
2808.335896	119.835664
2809.669349	120.753846
2811.004140	122.644056
2812.335589	119.441259
2813.669934	117.760140
2814.999381	114.806294
2816.330165	110.822378
2817.660727	110.641259
2818.989510	109.988112
2820.319629	111.627972
2821.647970	115.095804
2822.976090	115.358741
2824.302432	114.996503
2825.630111	114.706294
2826.954457	116.034266
2828.280138	114.390210
2829.604044	111.179720
2830.927731	106.123776
2832.252753	105.936364
2833.574445	106.181119
2834.895919	105.421678
2836.217174	108.739860
2837.538210	108.102797
2838.857474	107.710490
2840.178073	109.255944
2841.496900	110.664336
2842.815509	113.604895
2844.132347	111.310490
2845.448968	109.825874
2846.765372	106.674126
2848.080007	105.504895
2849.395976	102.069930
2850.708625	99.730070
2852.022610	97.120280
2853.336377	93.518182
2854.649929	90.765734
2855.961713	92.765035
2857.271731	95.056643
2858.583084	96.504196
2859.891122	97.409790
2861.200495	100.169930
2862.509652	100.295105
2863.818594	101.497902
2865.125773	102.512587
2866.431188	104.662937
2867.737938	103.543357
2869.042925	100.734266
2870.347699	97.946154
2871.650711	99.157343
2872.956605	100.335664
2874.257643	97.757343
2875.560016	97.729371
2876.860629	98.257343
2878.162576	98.274825
2879.464310	99.777622
2880.762739	101.956643
2882.062503	105.158741
2883.360508	106.347552
2884.658302	104.194406
2885.954340	106.117483
2887.251711	104.419580
2888.547326	104.826573
2889.842730	101.531469
2891.137924	100.863636
2892.429819	100.697902
2893.724591	102.054545
2895.016066	100.565035
2896.308874	101.146154
2897.601472	102.023077
2898.890776	101.353147
2900.181412	97.888112
2901.470297	97.339860
2902.760515	97.851748
2904.047440	100.420979
2905.335699	102.566434
2906.622207	105.979021
2907.908508	107.437063
2909.194600	107.805594
2910.478944	103.559441
2911.766160	101.958741
2913.048548	100.723077
2914.332269	96.077622
2915.614244	95.923776
2916.896012	95.897902
2918.176034	97.570629
2919.458926	98.413287
2920.740073	99.200000
2922.017938	97.836364
2923.298672	97.100000
2924.576125	98.090210
2925.853372	96.141958
2927.128878	96.751748
2928.407251	96.003497
2929.680809	95.042657
2930.957235	98.341958
2932.231920	98.365035
2933.504865	97.067133
2934.779140	96.485315
2936.051676	94.513986
2937.324008	88.806993
2938.593066	88.896503
2939.864990	91.737063
2941.135176	89.485315
2942.405159	93.028671
2943.674938	92.885315
2944.942980	94.752448
2946.209287	98.063636
2947.475391	99.479720
2948.742825	100.704895
2950.008525	102.169231
2951.274022	100.832168
2952.539317	97.607692
2953.801347	97.732168
2955.064708	99.780420
2956.327866	98.629371
2957.589293	101.422378
2958.852049	101.854545
2960.113074	103.037063
2961.372367	104.315385
2962.631461	101.518182
2963.890354	103.199301
2965.149047	104.464336
2966.407540	105.572028
2967.664304	105.880420
2968.920868	103.037762
2970.175705	104.667832
2971.431871	101.570629
2972.684781	99.001399
2973.939021	97.145455
2975.193062	96.530070
2976.445377	93.074126
2977.697494	89.371329
2978.947886	88.703497
2980.201133	89.123776
2981.449603	91.681818
2982.700927	90.875524
2983.949003	91.500000
2985.196881	96.086014
2986.444562	96.882517
2987.692047	97.718182
2988.937810	98.858042
2990.183376	97.827273
2991.430270	93.934266
2992.673920	92.360140
2993.918898	92.106993
2995.160633	92.837762
2996.405218	93.331469
2997.648085	93.319580
2998.887711	95.074825
3000.130187	98.015385
3001.369424	98.540559
3002.609988	97.932867
3003.848835	95.358042
3005.087488	94.148951
3006.324425	90.285315
3007.562689	91.172727
3008.799239	90.104895
3010.035594	89.530070
3011.271756	87.830769
3012.506205	86.595804
3013.740460	86.429371
3014.974522	87.092308
3016.206872	87.002797
3017.437510	88.041259
3018.670994	88.849650
3019.902766	93.672727
3021.132828	92.390210
3022.362698	95.889510
3023.590858	98.309790
3024.820344	98.932867
3026.048122	100.865035
3027.275708	103.032168
3028.504620	103.339860
3029.728790	102.823077
3030.955803	104.949650
3032.179592	103.682517
3033.404708	100.924476
3034.628117	97.473427
3035.851337	93.704196
3037.072851	93.383217
3038.297206	92.267832
3039.516826	89.566434
3040.737771	93.198601
3041.958528	94.695105
3043.177581	93.118881
3044.397960	91.624476
3045.615122	94.127972
3046.833609	92.153846
3048.050394	89.976923
3049.266992	86.895804
3050.483401	85.635664
3051.696598	86.924476
3052.912632	86.051049
3054.125454	87.838462
3055.341113	88.679720
3056.552049	90.689510
3057.764310	89.560839
3058.976385	88.373427
3060.188273	89.719580
3061.398463	87.343357
3062.608467	87.417832
3063.818286	86.987413
3065.026408	88.452098
3066.234344	89.834266
3067.440586	88.333217
3068.648151	90.382517
3069.854023	91.793357
3071.059709	94.402098
3072.265210	93.079371
3073.469018	93.197203
3074.674150	93.449301
3075.877590	90.710490
3077.079337	91.416434
3078.280901	90.209091
3079.482281	88.172028
3080.683477	85.227972
3081.882983	85.833566
3083.082305	88.161538
3084.282951	88.372727
3085.481907	89.130070
3086.677669	90.038462
3087.876260	93.719580
3089.071657	96.557343
3090.268377	93.360140
3091.461905	95.792308
3092.658261	92.822378
3093.852931	93.331469
3095.044410	91.964336
3096.240220	93.072028
3097.431337	91.101399
3098.623776	89.260140
3099.813028	87.527273
3101.005106	87.218881
3102.195499	88.238462
3103.382707	88.136364
3104.571238	85.323776
3105.761091	87.581818
3106.947759	85.199301
3108.134248	86.058042
3109.320557	82.884615
3110.508188	82.874825
3111.692638	81.531469
3112.875407	80.727273
3114.061000	78.658741
3115.244912	79.374126
3116.427146	81.812587
3117.609201	83.913287
3118.791079	83.132168
3119.972778	86.527972
3121.152799	87.475524
3122.331144	87.246853
3123.512310	85.844056
3124.690300	85.372727
3125.868113	86.734965
3127.045749	86.923077
3128.221710	86.125175
3129.397494	85.628671
3130.574600	88.310490
3131.750031	88.234266
3132.923789	90.341259
3134.095875	91.282517
3135.269281	88.866434
3136.442512	88.528671
3137.614070	87.086014
3138.786950	85.417483
3139.956662	85.596503
3141.127695	85.003497
3142.297057	84.630769
3143.464750	86.672727
3144.635258	87.089510
3145.801107	87.909790
3146.971266	89.660140
3148.136767	85.400000
3149.302095	84.899301
3150.467249	84.729371
3151.632229	83.597203
3152.798530	80.978322
3153.960177	81.869930
3155.123145	85.388811
3156.285939	86.672727
3157.448561	89.897902
3158.609518	89.396503
3159.770302	88.518881
3160.930914	87.563636
3162.089863	85.654545
3163.248639	85.665035
3164.407244	83.100699
3165.565677	85.000699
3166.723938	86.106294
3167.880537	87.720979
3169.035475	89.283217
3170.191732	86.720979
3171.346329	87.442657
3172.500754	86.668531
3173.653520	84.183217
3174.806116	83.772727
3175.958541	82.860839
3177.110797	81.211189
3178.262883	78.631469
3179.411822	80.957343
3180.563568	82.488112
3181.713656	80.060839
3182.862088	80.088112
3184.010351	78.407692
3185.158444	80.376224
3186.306369	83.230769
3187.452639	85.048252
3188.598740	85.246853
3189.743186	86.255944
3190.887465	85.893007
3192.031576	87.171329
3193.177005	91.862238
3194.319294	89.836364
3195.461417	86.333566
3196.603372	84.545455
3197.745161	82.046853
3198.886782	78.519580
3200.025267	78.650350
3201.165070	79.706993
3202.306191	78.531469
3203.444177	80.437762
3204.580514	81.544056
3205.716685	85.316084
3206.854174	90.009790
3207.990013	89.965734
3209.127170	89.761538
3210.259714	89.413287
3211.396540	88.797203
3212.528754	87.521678
3213.662286	87.806294
3214.795652	87.295105
3215.925891	83.595804
3217.058928	80.837762
3218.188839	80.224476
3219.320067	79.512587
3220.448169	79.306294
3221.579068	79.196503
3222.708324	77.918182
3223.835935	77.720280
3224.960425	77.812587
3226.089190	79.997203
3227.214833	78.627273
3228.340313	80.206993
3229.464152	82.651049
3230.590785	85.058741
3231.712821	88.879720
3232.836173	90.182517
3233.959363	88.458042
3235.082391	90.014685
3236.203779	91.551748
3237.325006	93.688811
3238.444594	92.714685
3239.564021	96.008392
3240.681810	96.902098
3241.802392	102.730769
3242.919859	107.420280
3244.037167	110.874825
3245.154313	111.664336
3246.269824	110.717483
3247.386650	104.462937
3248.500365	101.751049
3249.616870	94.403497
3250.731741	88.953147
3251.843503	82.080420
3252.955106	80.766434
3254.068023	79.341958
3255.180782	80.348951
3256.290434	80.162238
3257.401400	80.531469
3258.512208	83.021678
3259.621385	84.399301
3260.728930	85.734266
3261.837790	85.576224
3262.946491	82.823077
3264.052090	84.153147
3265.159003	83.990909
3266.264288	84.448252
3267.370886	81.996503
3268.474384	82.382517
3269.579196	80.835664
3270.683851	79.202098
3271.785407	81.569930
3272.886808	80.944056
3273.989522	82.333566
3275.092079	81.133566
3276.191540	80.925175
3277.293785	81.564336
3278.392934	80.927273
3279.490459	80.274126
3280.587828	78.979021
3281.687980	82.293007
3282.785038	79.138462
3283.881941	78.869231
3284.978689	79.181818
3286.070879	77.596503
3287.167317	78.924476
3288.262134	77.372727
3289.356795	80.077622
3290.449835	80.524476
3291.542721	79.776224
3292.633986	77.137063
3293.726564	77.223776
3294.817521	73.802797
3295.906859	70.237762
3296.996044	68.990909
3298.086542	67.041958
3299.173955	67.034965
3300.261216	69.790909
3301.349789	72.032168
3302.438209	76.853846
3303.522082	76.796503
3304.610197	76.586713
3305.695231	74.644056
3306.778648	72.643357
3307.863378	68.604895
3308.946493	67.704196
3310.030919	64.947552
3311.112267	63.736364
3312.194927	65.713986
3313.275973	67.443357
3314.356868	70.085315
3315.436150	73.863636
3316.515281	75.021678
3317.595723	78.546853
3318.673092	78.549650
3319.751771	78.040559
3320.828840	78.294406
3321.905758	75.790210
3322.981065	76.858741
3324.056223	77.338462
3325.132692	80.054545
3326.206091	79.393706
3327.279341	79.039161
3328.353902	80.916783
3329.426853	79.925874
3330.498197	79.686014
3331.570851	76.223776
3332.640438	74.208392
3333.711336	70.726573
3334.780627	70.218182
3335.851229	71.974825
3336.920224	72.106993
3337.987613	73.901399
3339.053397	71.935664
3340.123407	70.665035
3341.190354	71.932867
3342.254239	72.035664
3343.320892	70.255245
3344.385940	70.281818
3345.449385	72.244755
3346.512684	72.517483
3347.575836	76.795105
3348.638842	76.552448
3349.701702	76.884615
3350.762960	78.909091
3351.821161	77.284615
3352.883583	76.501399
3353.942948	76.253846
3355.002168	73.269231
3356.062698	69.345455
3357.118718	68.344056
3358.177503	68.678322
3359.231780	69.868531
3360.288820	70.176224
3361.344263	72.501399
3362.401014	73.503497
3363.456168	77.453147
3364.509724	77.263636
3365.561683	76.555944
3366.616404	75.758042
3367.668076	73.189510
3368.719605	71.602098
3369.772443	71.441259
3370.822233	73.195804
3371.873331	75.623776
3372.921384	74.631469
3373.972197	75.016084
3375.019964	74.077622
3376.067589	73.172028
3377.115071	72.474825
3378.160961	71.958042
3379.208159	72.400699
3380.252315	71.916783
3381.299229	71.680420
3382.344551	75.885315
3383.386833	78.441958
3384.428973	82.508392
3385.472421	82.310490
3386.515729	78.443357
3387.557446	76.248951
3388.599022	75.023077
3389.640458	75.152448
3390.680304	70.176224
3391.718563	65.837762
3392.758129	62.779720
3393.797554	61.974126
3394.835392	64.154545
3395.871643	63.998601
3396.907755	68.255245
3397.945174	70.568531
3398.979560	70.237063
3400.015253	70.825175
3401.050807	73.270629
3402.083330	71.623077
3403.118606	68.889510
3404.150851	68.624476
3405.182958	67.583916
3406.213481	66.644056
3407.245312	64.365035
3408.277003	65.783217
3409.305668	69.397203
3410.334194	70.406294
3411.364028	69.988112
3412.393723	72.181818
3413.420393	72.013986
3414.448370	73.360140
3415.473322	74.140559
3416.501024	74.876224
3417.525703	74.487413
3418.551688	73.825874
3419.576093	75.574825
3420.600362	79.243357
3421.623052	79.893007
3422.645606	77.634266
3423.669466	76.046154
3424.690306	75.640559
3425.711011	71.639261
3426.733021	67.813362
3427.752013	64.861638
3428.770870	63.482867
3429.791032	64.375824
3430.808178	68.239286
