-118.187858	1.185714
-115.518258	0.085714
-112.851593	0.067133
-110.185680	0.890110
-107.522699	2.314785
-104.858289	4.101299
-102.196809	6.009790
-99.533899	6.569930
-96.876097	9.525874
-94.216864	10.164336
-91.558380	9.965734
-88.902821	7.599301
-86.245833	4.965734
-83.593942	2.675524
-80.940622	1.972727
-78.290222	2.169930
-75.638392	2.405594
-72.991653	1.432867
-70.343484	1.322378
-67.696059	0.572028
-65.051547	4.406294
-62.405607	4.055944
-59.764748	3.423776
-57.122460	2.530769
-54.483080	-1.596503
-51.842272	0.265035
-49.202204	-0.324476
-46.567208	1.721678
-43.930783	3.338462
-41.297262	4.912587
-38.662312	5.896503
-36.032427	7.911888
-33.398950	14.193706
-30.770535	13.320280
-28.142853	13.630070
-25.513744	3.942657
-22.889691	-52.267832
-20.262049	-238.953147
-17.639460	-575.730769
-15.017602	-688.532168
-12.396476	375.367133
-9.776079	2900.339161
-7.158570	5032.817483
-4.539633	6539.120280
-1.923582	7405.435664
0.691741	7629.976923
3.306337	7217.939860
5.918050	6174.289510
8.531192	4537.746853
11.139300	2440.496503
13.750990	316.060140
16.357649	-1044.644755
18.965736	-960.287413
21.573099	-84.906993
24.175437	16.411888
26.781353	16.246853
29.382247	14.601399
31.984570	13.420979
34.581874	14.348252
37.182754	14.318182
39.778620	16.976224
42.375913	17.073427
44.972487	17.258042
47.564052	13.574126
50.157045	12.562937
52.747177	9.223776
55.338737	7.032867
57.927437	3.561538
60.517564	3.308392
63.102693	1.902098
65.689249	3.709091
68.275090	2.613287
70.858078	1.698601
73.442493	-1.446853
76.019778	-1.137063
78.600630	-4.483916
81.178633	-3.518881
83.755926	-4.539161
86.334645	-3.537063
88.908383	-3.742657
91.483547	-0.839161
94.055868	-0.846154
96.627481	0.513986
99.196255	2.440559
101.766455	1.648252
104.333816	1.441958
106.902604	2.164336
109.468554	-0.643357
112.031670	0.237063
114.598342	1.357343
117.155793	2.886713
119.718929	5.074126
122.277106	8.660140
124.838836	17.148951
127.395611	33.383217
129.953811	55.366434
132.507059	82.439161
135.059608	114.643357
137.615708	150.826573
140.166861	187.016783
142.717315	221.448252
145.267073	251.421678
147.814011	274.699301
150.360253	288.890210
152.907922	298.404196
155.454894	303.989510
157.996930	305.653147
160.538273	304.805594
163.078924	305.013986
165.620999	304.662937
168.160264	303.130070
170.696719	301.056643
173.232484	297.887413
175.769674	299.033566
178.306172	297.436364
180.839865	293.240559
183.370755	294.424476
185.900956	295.498601
188.432582	294.731469
190.961407	294.077622
193.487433	294.425874
196.012774	294.129371
198.539539	291.586014
201.063508	292.156643
203.586791	291.576923
206.109390	292.248252
208.629196	290.758042
211.148319	290.262937
213.666759	296.534266
216.186623	300.106993
218.699486	301.760839
221.215880	305.051049
223.731592	306.179720
226.242415	306.517483
228.754662	307.836364
231.264126	308.824476
233.772912	307.665734
236.281020	307.700699
238.790551	307.352448
241.295203	310.170629
243.799178	311.323776
246.304577	310.414685
248.805101	313.249650
251.309148	315.744056
253.806225	317.379021
256.306824	319.893706
258.804652	323.846853
261.301807	325.299301
263.798289	325.720979
266.289909	326.376224
268.785047	326.366434
271.277420	328.795804
273.769122	323.642657
276.258061	321.033566
278.748423	320.332168
281.236024	321.825874
283.720865	321.223776
286.209220	324.546154
288.690636	326.210490
291.175566	328.543357
293.655651	331.998601
296.139248	334.196503
298.618002	337.304895
301.098180	341.324476
303.575605	343.088112
306.052367	347.546853
308.528466	358.226573
311.001816	374.286713
313.474504	390.774825
315.946531	408.087413
318.417897	419.055944
320.886519	424.633566
323.354481	424.941958
325.823866	418.721678
328.288428	407.660140
330.756493	396.725175
333.219739	382.176224
335.682328	371.481818
338.144259	367.891608
340.605534	367.030070
343.064075	372.523776
345.524038	375.923077
347.981269	377.545455
350.437844	376.642657
352.893766	376.819580
355.346959	378.315385
357.801573	376.454545
360.251386	377.525175
362.704696	375.969930
365.153206	376.379720
367.601066	375.495804
370.050347	374.867133
372.494835	378.964336
374.940745	380.470629
377.386006	380.585315
379.828548	378.421678
382.270442	378.385315
384.711688	377.635664
387.150219	374.397902
389.590172	372.619580
392.027411	369.158741
394.461938	366.123077
396.899953	364.376923
399.333191	363.580420
401.767851	365.099301
404.197737	365.383916
406.631109	368.470629
409.059711	366.531469
411.487672	369.535664
413.917053	369.332867
416.341669	373.025874
418.767707	375.883916
421.193104	378.087413
423.617861	381.636364
426.037860	381.748951
428.459280	382.568531
430.878003	383.804196
433.298147	382.480420
435.715596	382.158741
438.134465	376.698601
440.550641	374.652448
442.962070	374.517483
445.376975	375.044056
447.789190	376.983217
450.200771	378.432168
452.611718	380.469930
455.019979	380.294406
457.427607	379.863636
459.834604	379.076923
462.240968	376.402098
464.644650	375.499301
467.047702	371.067133
469.450124	371.457343
471.851917	372.386713
474.251031	372.041958
476.651565	373.868531
479.051470	374.941259
481.446652	378.399301
483.845301	378.095804
486.239230	375.722378
488.632533	373.287413
491.025210	369.548252
493.417262	363.360140
495.810733	355.390210
498.199491	347.410490
500.585583	334.457343
502.973095	324.357343
505.359983	313.552448
507.744208	308.833566
510.129852	302.865734
512.512833	294.698601
514.893154	292.034266
517.274894	286.851748
519.653975	283.280420
522.034475	280.020979
524.412317	279.079720
526.787504	273.465035
529.162073	269.814685
531.538061	269.441958
533.911395	268.732867
536.286148	268.383217
538.656214	262.846154
541.025665	258.129371
543.396535	255.825175
545.762723	252.266434
548.130330	252.206993
550.495291	253.844755
552.859639	255.233566
555.223375	258.040559
557.588528	259.008392
559.949008	261.024476
562.310907	262.793007
564.670166	263.061538
567.026786	260.181818
569.386851	257.262238
571.740226	253.017483
574.097045	250.469930
576.451228	249.916783
578.804804	249.070629
581.157771	248.783217
583.508107	249.445455
585.859859	245.851748
588.204935	245.009790
590.555475	246.480420
592.899342	247.043357
595.248669	246.066434
597.593349	245.889510
599.935404	247.397203
602.278875	249.920979
604.619724	249.615385
606.959971	253.118182
609.297597	251.568531
611.638658	250.753846
613.975082	248.090210
616.312922	245.358741
618.648144	242.662937
620.980751	241.601399
623.314775	241.548252
625.646184	239.105594
627.976995	242.189510
630.307208	242.390909
632.636823	242.681818
634.961816	244.162937
637.292250	241.082517
639.618062	241.185315
641.941268	240.589510
644.265889	239.158741
646.587906	234.704895
648.909328	238.265734
651.228147	239.790909
653.548382	236.862238
655.868024	238.544755
658.185065	237.373427
660.501515	238.891608
662.815366	237.704196
665.130632	235.344755
667.443302	233.127972
669.757387	233.844056
672.066872	231.095105
674.377773	228.558042
676.686081	233.455944
678.993801	234.218182
681.302936	230.198601
683.607478	229.362937
685.911434	229.494406
688.214803	230.366434
690.519587	230.143357
692.819785	228.367133
695.121398	227.089510
697.422425	227.180420
699.718870	225.938462
702.016731	227.251049
704.314008	228.100699
706.610702	228.264336
708.902820	225.793007
711.198349	226.898601
713.489305	229.079021
715.781675	227.611189
718.071469	228.137762
720.360684	226.670629
722.649318	224.097902
724.935381	223.944056
727.222857	225.619580
729.507763	225.474825
731.792090	226.508392
734.073849	229.523077
736.357023	229.479720
738.639618	233.083217
740.917659	235.958741
743.197113	236.720979
745.475992	237.645455
747.754295	237.541259
750.028049	237.577622
752.303217	239.046154
754.577811	240.810490
756.849846	239.810490
759.123293	240.697902
761.394183	239.530070
763.662517	238.665734
765.932264	239.491608
768.199457	239.976923
770.466079	242.361538
772.732132	240.334965
774.995632	241.544056
777.260546	240.572028
779.524890	241.765035
781.784705	242.390210
784.045933	241.926573
786.306593	241.225175
788.564706	240.351748
790.820275	243.200000
793.079235	241.074126
795.331696	243.909790
797.589524	244.307692
799.842832	242.990210
802.093601	241.900699
804.345782	239.472727
806.595425	238.883916
808.846479	239.427273
811.093022	239.601399
813.340978	240.339860
815.586398	239.773427
817.833230	242.420979
820.079501	240.131469
822.321268	242.049650
824.566417	241.482517
826.805094	242.086713
829.047154	237.724476
831.284715	236.102797
833.523687	234.783217
835.760133	232.761538
837.997991	229.067133
840.233323	227.910490
842.466131	223.238462
844.700351	226.130769
846.932049	224.458042
849.163192	228.111189
851.393780	231.398601
853.623814	231.796503
855.853293	231.934965
858.078291	231.899301
860.306664	232.548951
862.530558	230.305594
864.755862	228.404196
866.976691	227.196503
869.200892	224.238462
871.420620	224.587413
873.641759	221.630070
875.862347	224.188112
878.080425	225.043357
880.299914	225.177622
882.514936	227.964336
884.729410	229.769231
886.943337	228.758042
889.156716	228.934965
891.369549	228.168531
893.581834	227.517483
895.791618	226.773427
898.000856	226.649650
900.209548	224.344056
902.415742	226.511189
904.623345	226.294406
906.828451	227.431469
909.033013	229.718182
911.235079	231.425874
913.438555	229.155944
915.639537	232.199301
917.839978	229.312587
920.041827	230.244056
922.237284	228.074825
924.436101	226.343357
926.630480	224.946154
928.828215	225.316084
931.021515	222.718182
933.216224	222.639860
935.408447	223.746154
937.600132	224.473427
939.791279	225.779021
941.979943	227.211888
944.168070	224.798601
946.353717	226.246853
948.542716	225.656643
950.727292	227.590210
952.911333	228.367133
955.098724	229.544056
957.277812	232.709790
959.460249	235.811888
961.642153	239.790909
963.821583	242.500000
965.998540	247.079021
968.176905	249.018881
970.356676	250.204895
972.530099	252.651049
974.706868	253.364336
976.879231	253.938462
979.053000	252.522378
981.222366	255.049650
983.395077	258.233566
985.565321	259.044056
987.735037	261.275524
989.904224	263.663636
992.069014	265.878322
994.237145	266.622378
996.400882	271.232867
998.566025	273.764336
1000.728710	275.090210
1002.890868	276.633566
1005.050570	279.976224
1007.209748	282.251049
1009.370332	283.076923
1011.528461	282.267832
1013.686066	283.309790
1015.843148	283.916783
1017.999707	283.838462
1020.151886	283.512587
1022.305471	286.523776
1024.458535	285.193007
1026.609151	283.911189
1028.761172	283.146154
1030.908820	285.638462
1033.059800	287.302797
1035.206409	287.834965
1037.352500	290.746853
1039.498071	293.201399
1041.645048	292.002098
1043.785737	291.547552
1045.929754	293.169231
1048.071331	296.460140
1050.212392	298.327273
1052.354857	298.979021
1054.491043	299.379720
1056.630555	303.655245
1058.765711	304.425175
1060.904192	305.066434
1063.038320	303.794406
1065.171933	299.014685
1067.306952	294.090210
1069.437621	291.037063
1071.569695	289.806993
1073.699340	290.746154
1075.828473	290.181119
1077.957094	289.309091
1080.085204	288.322378
1082.210888	289.675524
1084.336062	287.230769
1086.462640	285.325874
1088.584881	281.372028
1090.708525	278.404196
1092.827836	276.982517
1094.952375	273.717483
1097.070669	272.093706
1099.190368	270.090210
1101.307648	266.179021
1103.424422	262.419580
1105.540689	259.463636
1107.654541	259.821678
1109.769796	260.381818
1111.880729	258.848951
1113.994973	259.978322
1116.104897	261.819580
1118.216225	262.128671
1120.327049	262.797902
1122.433556	261.624476
1124.543372	259.479021
1126.648874	255.150350
1128.755779	253.278322
1130.856469	249.726573
1132.962371	247.081119
1135.063964	246.720979
1137.166960	245.522378
1139.269455	245.840559
1141.365744	246.409091
1143.467239	244.273427
1145.564432	244.032867
1147.661126	243.144755
1149.757323	242.694406
1151.853021	243.818881
1153.948222	249.594406
1156.041026	249.090210
1158.135232	252.440559
1160.223247	255.593706
1162.316460	258.336364
1164.403485	258.962937
1166.493810	258.658042
1168.579846	257.113287
1170.669180	254.693706
1172.752333	252.684615
1174.836889	249.233566
1176.922845	248.585315
1179.004520	247.899301
1181.087597	246.897902
1183.168288	249.174126
1185.248487	248.525175
1187.328195	248.316783
1189.407412	247.490210
1191.484247	247.497902
1193.558701	246.995105
1195.636447	248.553147
1197.709922	249.046853
1199.784798	246.836364
1201.855407	245.806294
1203.927418	243.500699
1205.997052	245.177622
1208.068087	245.323776
1210.138634	243.373427
1212.204920	244.162937
1214.272607	242.900699
1216.337922	242.847552
1218.404637	242.616084
1220.467096	244.937762
1222.532840	243.334266
1224.594331	242.269930
1226.657221	240.129371
1228.717744	237.402098
1230.777784	236.826573
1232.837340	235.222378
1234.894531	235.055245
1236.951241	235.897902
1239.005588	232.536364
1241.063215	231.753147
1243.118480	232.131469
1245.169504	234.032168
1247.221928	235.530769
1249.273873	235.535664
1251.323458	234.193706
1253.372565	232.788112
1255.421194	229.541958
1257.469344	228.166434
1259.517016	226.141259
1261.560457	225.623077
1263.607173	223.802098
1265.651537	224.676923
1267.695423	229.816084
1269.736959	233.751049
1271.776145	234.806294
1273.818603	233.048951
1275.856839	230.585315
1277.896474	227.748252
1279.935634	224.069231
1281.970576	220.237063
1284.006916	217.534266
1286.040911	219.599301
1288.076305	221.551748
1290.107485	225.474126
1292.140064	230.588112
1294.172170	234.052448
1296.201936	234.808392
1298.233100	232.774126
1300.260056	232.577622
1302.288410	232.896503
1304.312560	232.665734
1306.339974	230.534965
1308.363187	229.476923
1310.387796	229.705594
1312.410072	230.420280
1314.433745	228.327273
1316.455085	228.622378
1318.475957	229.411189
1320.496363	226.441958
1322.512574	223.516084
1324.530184	223.791608
1326.545465	221.513986
1328.564005	223.420280
1330.578355	224.339161
1332.590380	223.576923
1334.605662	224.252448
1336.616759	224.568531
1338.629253	223.632867
1340.637564	223.858042
1342.649131	225.553147
1344.654658	225.386014
1346.663441	226.011888
1348.668046	225.346853
1350.675905	221.627972
1352.683302	221.030070
1354.684668	221.046154
1356.687431	222.887413
1358.689733	225.543357
1360.691576	228.735664
1362.692960	229.986014
1364.692029	230.596503
1366.690640	230.423077
1368.688793	228.091608
1370.686488	226.166434
1372.680019	225.636364
1374.674947	223.461538
1376.669418	221.957343
1378.663432	223.002098
1380.655139	225.575524
1382.646390	225.944755
1384.635336	227.651049
1386.625677	227.337762
1388.615563	225.702098
1390.603146	222.256643
1392.590275	221.258741
1394.575102	220.672028
1396.561323	225.953147
1398.545245	227.859441
1400.528714	230.019580
1402.511731	230.602098
1404.492450	232.378322
1406.474563	232.798601
1408.454379	231.525175
1410.433745	229.780420
1412.408971	226.588811
1414.387437	226.072727
1416.363609	225.367832
1418.339331	220.190210
1420.314604	222.030769
1422.287586	222.325874
1424.260120	223.482517
1426.232207	224.715385
1428.203845	227.315385
1430.171355	227.522378
1432.143940	227.124476
1434.108718	228.347552
1436.078569	228.283916
1438.044295	230.060140
1440.011415	230.301399
1441.976250	226.952448
1443.936967	228.246154
1445.902751	226.960140
1447.862580	225.158741
1449.823802	226.739161
1451.786417	225.993706
1453.744917	226.843357
1455.702975	227.009091
1457.660590	228.711888
1459.617764	228.467832
1461.572662	229.986713
1463.528952	229.804895
1465.482968	228.939161
1467.436544	227.807692
1469.387847	225.704895
1471.340542	224.910490
1473.290966	225.040559
1475.240951	224.737063
1477.190496	225.672028
1479.137773	226.675524
1481.082783	230.579720
1483.029184	232.007692
1484.975149	234.603497
1486.920675	235.383916
1488.863937	240.971329
1490.806762	241.601399
1492.747324	239.848951
1494.689277	239.256643
1496.628969	239.016783
1498.568225	240.297203
1500.507047	239.313287
1502.443608	239.911888
1504.381561	240.386713
1506.317256	239.310490
1508.252517	243.383916
1510.185521	245.333566
1512.118093	247.920280
1514.050233	246.787413
1515.981941	246.563636
1517.911395	248.466434
1519.842240	250.113287
1521.772654	249.755944
1523.698995	245.222378
1525.626726	245.319580
1527.552207	244.937063
1529.477259	247.021678
1531.401882	249.519580
1533.326076	248.679720
1535.248023	252.483916
1537.171359	254.720979
1539.092450	258.122378
1541.011296	262.883916
1542.931532	265.174825
1544.849524	269.694406
1546.767090	277.455245
1548.682414	288.965734
1550.599128	296.401399
1552.511787	303.862238
1554.427650	311.982517
1556.341273	319.979021
1558.252659	333.651748
1560.165433	344.862937
1562.074158	367.017483
1563.984273	400.352448
1565.893964	439.668531
1567.803231	506.337063
1569.710265	591.288112
1571.615066	692.307692
1573.521256	796.772727
1575.425214	890.677622
1577.328752	962.082517
1579.231868	990.988112
1581.132756	986.941259
1583.035031	940.304196
1584.935079	863.166434
1586.836515	761.799301
1588.733916	645.986014
1590.630899	544.380420
1592.527464	459.772028
1594.425417	399.460839
1596.317535	357.827273
1598.212846	329.410490
1600.107740	307.250350
1602.000412	291.555245
1603.892668	283.826573
1605.782704	273.486014
1607.672324	265.967133
1609.561529	259.499301
1611.450318	252.888811
1613.336891	249.799301
1615.224850	248.565035
1617.108793	246.521678
1618.994124	244.441259
1620.879040	244.312587
1622.761744	242.257343
1624.645833	241.588811
1626.525912	235.851748
1628.407377	231.534266
1630.286632	228.149650
1632.167273	223.979720
1634.042110	221.893706
1635.921929	221.142657
1637.797742	219.209790
1639.673145	218.611189
1641.549935	214.323077
1643.420927	222.651748
1645.295101	228.646154
1647.165277	231.784615
1649.038633	232.655944
1650.909786	235.472028
1652.778737	235.258042
1654.649074	232.495804
1656.515417	229.333566
1658.383146	227.521678
1660.248677	223.484615
1662.115592	220.296503
1663.978519	213.513986
1665.842831	218.952448
1667.704947	217.495105
1669.566659	216.172727
1671.429755	216.070629
1673.290657	216.268531
1675.149365	215.129371
1677.007670	214.361538
1678.867360	212.675524
1680.721283	216.851049
1682.578378	217.143357
1684.435071	216.192308
1686.287788	214.744755
1688.143676	215.119580
1689.995589	214.386713
1691.847102	213.806993
1693.698215	213.944056
1695.548926	214.685315
1697.399237	213.856643
1699.247364	214.834965
1701.096874	213.232867
1702.940636	217.412587
1704.789348	216.601399
1706.632313	216.675524
1708.478444	215.792308
1710.320614	216.423077
1712.165948	216.623776
1714.005542	216.838462
1715.846520	220.585315
1717.688881	221.031469
1719.527286	219.462238
1721.367074	218.621678
1723.204687	218.821678
1725.041904	221.693706
1726.876948	222.066434
1728.713375	222.746154
1730.547630	222.066434
1732.381490	223.560839
1734.214957	222.313287
1736.044477	222.994406
1737.877156	224.290909
1739.705891	220.611888
1741.537784	217.921678
1743.365734	215.391608
1745.193292	214.955944
1747.020458	213.563636
1748.847233	214.801399
1750.673617	214.586014
1752.496064	214.231469
1754.321665	211.753147
1756.143332	208.925175
1757.966381	207.643357
1759.787269	206.778322
1761.607767	202.575524
1763.429647	198.736364
1765.245827	200.457343
1767.065159	202.604895
1768.880564	204.039860
1770.699119	206.734266
1772.513749	209.422378
1774.327993	212.120280
1776.141849	213.598601
1777.955319	215.326573
1779.766636	215.665734
1781.579334	215.932168
1783.391645	213.701399
1785.200039	211.603497
1787.009814	212.515385
1788.815673	211.884615
1790.624679	209.634965
1792.429771	206.620979
1794.236243	207.883916
1796.042332	208.492308
1797.844511	211.502098
1799.649833	211.792308
1801.451247	209.983916
1803.254041	212.415385
1805.052929	215.130070
1806.853198	216.701399
1808.653085	217.659441
1810.450831	218.711189
1812.248196	217.848951
1814.045180	216.984615
1815.841784	214.913986
1817.636249	215.085315
1819.432093	214.438462
1821.222283	209.502098
1823.017369	206.316783
1824.806802	208.335664
1826.599372	208.491608
1828.389807	206.637063
1830.178108	207.509091
1831.969544	206.034965
1833.755334	207.984615
1835.542504	207.386713
1837.327542	206.041259
1839.115714	208.388811
1840.900000	207.057343
1842.682157	205.088811
1844.465692	203.991608
1846.247099	204.674825
1848.029885	202.177622
1849.808791	200.702098
1851.589075	201.983217
1853.367233	202.958042
1855.146770	205.856643
1856.924182	204.923776
1858.699470	208.013986
1860.476137	210.239161
1862.250681	211.991608
1864.026602	211.241958
1865.796904	210.502098
1867.570332	209.743357
1869.341641	207.634266
1871.112580	206.030769
1872.884895	203.916084
1874.651598	205.453147
1876.421425	204.011189
1878.187389	205.251049
1879.956477	208.980420
1881.721703	208.849650
1883.486561	210.961538
1885.252795	208.805594
1887.015171	207.089510
1888.777180	206.067832
1890.538822	203.857343
1892.300096	200.726573
1894.061003	196.437762
1895.821544	192.717483
1897.579975	193.823077
1899.338041	196.462937
1901.093998	197.805594
1902.851333	197.371329
1904.608301	199.249650
1906.363164	199.751049
1908.115921	201.840559
1909.868315	201.582517
1911.622084	198.594406
1913.373750	196.075524
1915.123314	194.293007
1916.874254	195.016783
1918.624830	198.402098
1920.371568	198.482517
1922.119681	196.783916
1923.865695	196.621678
1925.613085	195.918881
1927.358376	198.596503
1929.101570	196.838462
1930.846140	193.753846
1932.588613	194.005594
1934.330726	193.183916
1936.072479	195.872727
1937.813873	200.153147
1939.553173	202.622378
1941.292114	204.344755
1943.030696	204.258042
1944.767186	207.515385
1946.503319	206.403497
1948.240826	206.937762
1949.974512	202.675524
1951.709571	202.684615
1953.442543	200.039161
1955.175158	195.070629
1956.907416	195.041259
1958.639318	196.611189
1960.369134	198.811189
1962.096866	202.638462
1963.825971	205.585315
1965.554722	208.151748
1967.281389	209.540559
1969.007702	210.487413
1970.735388	209.577622
1972.457538	209.574126
1974.182789	210.116084
1975.904234	209.131469
1977.628778	209.680420
1979.351243	208.095804
1981.069904	208.237762
1982.791664	208.639860
1984.509622	207.163636
1986.228954	206.671329
1987.944485	207.694406
1989.664838	204.306294
1991.381391	203.644056
1993.094149	203.697203
1994.810002	208.050350
1996.523782	207.387413
1998.237213	206.406993
1999.948573	204.404196
2001.661306	202.432168
2003.370247	200.779021
2005.082282	198.625874
2006.788807	196.525175
2008.498425	200.653147
2010.205975	200.799301
2011.913178	204.538462
2013.618315	208.023077
2015.323105	210.059441
2017.029267	209.867133
2018.731647	207.505594
2020.435399	203.063636
2022.137087	201.025175
2023.838431	197.881818
2025.539429	196.091608
2027.238367	195.340559
2028.938675	196.909091
2030.635209	197.120979
2032.333114	197.477622
2034.028961	198.735664
2035.727892	198.000000
2037.421338	197.704196
2039.116156	197.397902
2040.810630	198.273427
2042.501336	201.580420
2044.195126	198.869930
2045.885149	199.046853
2047.576543	197.698601
2049.265884	194.513287
2050.956595	192.802797
2052.643544	188.701399
2054.330152	187.625874
2056.018131	185.235664
2057.702350	186.993706
2059.387939	190.190909
2061.073189	192.168531
2062.756391	192.113986
2064.440962	190.627972
2066.120071	191.180420
2067.803965	192.990909
2069.482399	193.265035
2071.163909	193.006294
2072.841669	193.490909
2074.519091	194.093007
2076.197884	190.744056
2077.874633	193.219580
2079.549341	192.591608
2081.225418	191.820979
2082.899455	192.105594
2084.573156	191.990210
2086.246522	189.820280
2087.917850	190.264336
2089.588843	188.298601
2091.259502	187.784615
2092.929826	187.720280
2094.599817	185.306993
2096.267772	181.832867
2097.935394	183.301399
2099.600982	183.244056
2101.267938	183.853147
2102.932861	186.938462
2104.597451	187.557343
2106.260010	188.678322
2107.923937	189.836364
2109.585834	190.851748
2111.247399	192.446853
2112.908634	195.426573
2114.567839	194.845455
2116.226715	196.924476
2117.885260	196.978322
2119.543476	195.567832
2121.197968	195.168531
2122.855525	194.622378
2124.512753	193.016783
2126.166259	195.302098
2127.821133	194.882517
2129.472289	196.372727
2131.126506	194.674825
2132.777007	194.193007
2134.428874	192.551049
2136.075333	192.786713
2137.726547	192.146853
2139.374047	191.043357
2141.022914	193.720979
2142.669763	193.797902
2144.316285	193.407692
2145.962482	194.878322
2147.604971	194.474126
2149.250518	191.494406
2150.892358	187.296503
2152.537255	183.462937
2154.178447	183.820979
2155.819315	183.646154
2157.459860	185.011189
2159.098392	183.422378
2160.738290	187.617483
2162.374488	187.197203
2164.012052	187.602098
2165.649293	188.271329
2167.284525	188.411189
2168.919436	186.256643
2170.554025	185.086713
2172.188292	186.860839
2173.818867	189.747552
2175.452492	188.922378
2177.082426	188.893007
2178.713725	188.384615
2180.343020	190.300699
2181.971994	191.762238
2183.600650	192.671329
2185.228986	191.081818
2186.855319	190.821678
2188.481334	189.134965
2190.105348	187.047552
2191.730726	187.785315
2193.354105	187.238462
2194.978847	183.411888
2196.599909	182.151049
2198.220654	180.983916
2199.842764	182.127273
2201.462876	183.278322
2203.080991	180.493007
2204.698791	180.113986
2206.316276	181.018881
2207.933445	180.937063
2209.550299	180.300000
2211.166838	179.355245
2212.781383	180.529371
2214.393936	179.795804
2216.007853	180.623776
2217.619779	182.145455
2219.233068	184.726573
2220.844367	183.406993
2222.453676	180.405594
2224.064349	179.758042
2225.673033	181.304895
2227.281405	183.079021
2228.887789	180.866434
2230.495537	180.135664
2232.101298	182.289510
2233.706748	182.147552
2235.310214	182.746853
2236.915042	182.933566
2238.517886	181.483217
2240.118747	180.137063
2241.720971	179.581818
2243.321212	181.208392
2244.922816	184.693007
2246.520768	186.586014
2248.120082	183.373427
2249.717416	187.160839
2251.314442	189.785315
2252.912829	189.008392
2254.507568	188.527273
2256.100331	187.425874
2257.694455	185.344755
2259.289941	186.237762
2260.881783	185.239860
2262.473318	183.665734
2264.066214	182.623776
2265.653801	181.723776
2267.246085	179.131469
2268.833061	181.936364
2270.423066	181.119580
2272.007766	178.369231
2273.597160	177.817483
2275.181251	177.276224
2276.766704	176.949650
2278.350187	177.079720
2279.936697	175.682517
2281.519573	176.439860
2283.102145	178.101748
2284.684414	180.377622
2286.263054	180.231119
2287.844717	181.196503
2289.422752	177.931119
2291.003810	176.583916
2292.581242	177.007343
2294.156710	175.768531
2295.735199	175.181469
2297.310065	176.044755
2298.884630	175.851399
2300.458895	177.383916
2302.032859	178.122727
2303.606523	178.889510
2305.179886	175.381119
2306.749631	176.792308
2308.319077	175.327972
2309.891542	177.838462
2311.458731	176.048252
2313.028939	172.689510
2314.595532	174.871329
2316.163485	177.979021
2317.729483	178.437762
2319.295182	180.413287
2320.860585	183.193007
2322.424034	189.284615
2323.988841	193.264336
2325.550041	198.404196
2327.114255	202.402797
2328.673208	202.634266
2330.235174	199.049650
2331.795190	193.603497
2333.354910	192.708392
2334.912681	187.172727
2336.470158	180.718881
2338.027339	178.097902
2339.582574	178.748951
2341.137514	180.560140
2342.692161	180.222378
2344.246514	179.157343
2345.800573	180.581119
2347.354338	180.400000
2348.906160	180.230769
2350.456038	177.646154
2352.008924	176.825874
2353.556568	176.358042
2355.107219	173.046853
2356.654280	173.569231
2358.202698	172.393007
2359.750824	173.839860
2361.295363	175.443357
2362.841259	176.693706
2364.385216	178.889510
2365.930531	182.146853
2367.472261	183.028671
2369.015348	184.548951
2370.556500	185.461538
2372.097362	184.927273
2373.637935	180.733566
2375.178219	178.573427
2376.718214	174.295804
2378.254630	171.859441
2379.794048	172.600699
2381.329889	170.167133
2382.867086	172.429371
2384.400709	173.914685
2385.937331	174.514685
2387.472022	176.189510
2389.004784	178.064336
2390.537260	178.629371
2392.067807	181.547552
2393.601352	181.786713
2395.129686	181.115385
2396.659376	179.757343
2398.188781	182.688112
2399.717900	180.209091
2401.246735	182.467133
2402.770365	180.932867
2404.298630	179.638462
2405.821692	178.806993
2407.349388	178.348951
2408.870245	178.186713
2410.395735	178.995804
2411.917664	178.083217
2413.440949	176.633566
2414.962313	175.666434
2416.481757	175.530070
2418.002556	174.721678
2419.521436	175.360839
2421.040034	174.720280
2422.556715	177.162937
2424.074750	179.102797
2425.592504	180.102797
2427.106707	181.604196
2428.620629	183.208392
2430.134272	184.178322
2431.649268	183.546853
2433.160716	185.782517
2434.673519	186.271329
2436.184409	185.851049
2437.695019	184.676224
2439.203718	185.129371
2440.715404	186.237762
2442.223546	185.480420
2443.731409	183.348951
2445.238995	184.392308
2446.743040	183.476923
2448.250071	183.398601
2449.755193	181.060140
2451.260038	180.529371
2452.762976	180.562238
2454.265637	177.704196
2455.768022	174.650350
2457.268502	177.330070
2458.770335	177.156643
2460.270264	177.374825
2461.769917	176.451748
2463.269295	179.722378
2464.766769	178.783916
2466.262343	178.611189
2467.760896	175.773427
2469.255920	175.160839
2470.752298	175.981119
2472.245149	175.211189
2473.739352	173.857343
2475.233282	176.267832
2476.723689	176.467832
2478.217072	176.920280
2479.708558	175.613986
2481.198147	174.419580
2482.687464	172.149650
2484.174886	171.286713
2485.665283	171.487413
2487.152161	170.467133
2488.640391	172.600000
2490.125105	172.817483
2491.609548	171.521678
2493.095343	170.021678
2494.579245	171.072028
2496.064499	170.907692
2497.544619	168.562238
2499.027711	164.413287
2500.508913	164.060140
2501.989846	164.041958
2503.468890	164.253147
2504.947666	161.739161
2506.426172	163.621678
2507.904411	164.014685
2509.382381	163.815385
2510.856847	162.302797
2512.334281	162.172028
2513.808212	161.426573
2515.283494	160.334965
2516.758508	158.100000
2518.230021	160.078322
2519.702885	161.488811
2521.173865	161.593706
2522.646196	160.863636
2524.113414	162.667832
2525.583597	161.362238
2527.051900	160.730769
2528.519938	160.165734
2529.987711	158.650350
2531.455219	159.416084
2532.922462	159.190909
2534.386213	157.382517
2535.851315	157.745455
2537.314538	158.037762
2538.779112	156.374825
2540.240196	159.099301
2541.702630	158.892308
2543.164801	158.983916
2544.623486	163.606993
2546.086743	167.453846
2547.544903	169.123776
2549.004412	173.890909
2550.458828	174.199301
2551.917813	173.348951
2553.374927	173.761538
2554.830170	173.572028
2556.285152	174.908392
2557.738264	175.141259
2559.192725	173.199301
2560.645317	172.818881
2562.097649	173.093007
2563.548113	171.448252
2565.001533	167.148951
2566.449871	166.558042
2567.901165	162.993007
2569.350592	160.549650
2570.796548	160.594406
2572.245458	159.221678
2573.690897	159.964336
2575.137685	158.784615
2576.582609	162.718182
2578.027276	161.986014
2579.473290	162.658042
2580.915837	160.169930
2582.359732	158.452448
2583.800162	159.224476
2585.241940	159.448951
2586.681857	161.847552
2588.123122	163.062238
2589.560926	164.141259
2591.001679	165.833566
2592.437369	167.388112
2593.876009	170.380420
2595.312792	169.395105
2596.747718	169.740559
2598.185593	167.990210
2599.618410	168.092308
2601.052573	169.405594
2602.484883	171.253846
2603.918539	173.418182
2605.350342	174.520280
2606.781892	174.915385
2608.213188	173.141958
2609.642633	172.244755
2611.071825	172.836364
2612.499166	173.298601
2613.927854	173.233566
2615.356289	172.642657
2616.781277	175.595804
2618.207612	177.167832
2619.632098	178.813287
2621.057930	178.126573
2622.480318	180.537762
2623.904052	179.715385
2625.325940	180.102797
2626.747577	179.655944
2628.167369	179.193706
2629.588507	180.888811
2631.009395	182.032168
2632.426845	186.064336
2633.847234	186.538462
2635.264186	187.705594
2636.680890	178.789510
2638.097345	191.133566
2639.513552	204.144056
2640.929510	215.484615
2642.343628	221.644755
2643.757499	225.698601
2645.169530	228.635664
2646.582906	230.216783
2647.992852	228.093706
2649.405733	223.074825
2650.815187	215.045455
2652.224394	209.895105
2653.631765	201.622378
2655.042070	218.014685
2656.450539	224.525175
2657.857173	232.125874
2659.263562	236.839860
2660.668117	241.676224
2662.074016	247.406294
2663.478082	253.892308
2664.881904	259.213986
2666.285481	265.372028
2667.687226	272.134266
2669.090315	274.174825
2670.489987	279.518881
2671.891001	285.358741
2673.288600	288.321678
2674.689129	290.834965
2676.086243	290.081818
2677.484700	285.922378
2678.881329	287.844755
2680.277716	289.313986
2681.673862	290.127273
2683.068181	291.400699
2684.463843	289.976224
2685.856095	290.544755
2687.249691	294.570629
2688.641462	296.104196
2690.034575	299.235664
2691.425865	302.869231
2692.815332	304.334266
2694.204560	302.690909
2695.593547	304.718881
2696.983877	305.903497
2698.369222	307.390909
2699.757491	310.006294
2701.143940	311.367133
2702.530150	317.565035
2703.916122	325.399301
2705.298695	335.726573
2706.682609	351.825874
2708.066286	361.306294
2709.449725	373.816084
2710.829768	381.606294
2712.211153	391.881119
2713.590722	400.671329
2714.971633	404.793007
2716.350729	403.121678
2717.728010	397.254545
2719.106633	389.965035
2720.483443	385.143357
2721.860017	375.974825
2723.236355	367.068531
2724.610881	352.441958
2725.986748	342.004196
2727.359228	329.093007
2728.734625	317.963636
2730.105060	307.511888
2731.476837	294.506294
2732.848380	281.272727
2734.218114	271.589510
2735.589188	260.113986
2736.958455	255.318881
2738.327488	247.532867
2739.694714	242.614685
2741.061708	237.273427
2742.428469	229.776923
2743.794997	224.062937
2745.159720	220.039161
2746.524212	215.045455
2747.888471	209.779720
2749.252499	204.445455
2750.616294	199.123077
2751.976716	192.220280
2753.340049	190.827273
2754.698439	184.576224
2756.059739	179.396503
2757.417668	176.023776
2758.778507	171.781119
2760.137545	170.565734
2761.493215	163.184615
2762.851793	167.072028
2764.207005	169.633566
2765.561987	169.655944
2766.915172	171.669231
2768.271264	173.086713
2769.623992	171.562937
2770.976491	165.668531
2772.328762	164.223776
2773.682372	162.636364
2775.032620	160.325874
2776.381075	156.565734
2777.732434	151.093706
2779.080434	158.840559
2780.429773	158.951049
2781.777319	159.694406
2783.124638	160.100000
2784.471731	159.024476
2785.817033	154.400699
2787.162109	152.938462
2788.506959	153.683916
2789.851582	152.416084
2791.192854	151.948951
2792.535464	151.048252
2793.877848	149.464336
2795.220008	149.852448
2796.558818	148.396503
2797.900527	146.039860
2799.238889	145.135664
2800.578588	145.265734
2801.916501	142.491608
2803.252630	144.441958
2804.588536	142.925175
2805.925778	143.335664
2807.261237	145.087413
2808.596473	147.687413
2809.929927	148.426573
2811.264717	148.201399
2812.596166	146.429371
2813.930511	145.595804
2815.259958	147.726573
2816.590742	146.507692
2817.921304	144.751049
2819.250087	145.855245
2820.580207	144.380420
2821.908547	144.123077
2823.236667	144.800000
2824.563010	145.087413
2825.890688	144.431469
2827.215034	141.222378
2828.540715	139.358042
2829.864621	141.419580
2831.188308	142.769930
2832.513330	142.430070
2833.835023	143.714685
2835.156496	143.948252
2836.477751	144.043357
2837.798787	142.322378
2839.118051	141.779720
2840.438650	139.661538
2841.757477	136.016783
2843.076086	132.058042
2844.392925	132.188811
2845.709546	132.146154
2847.025949	131.800699
2848.340584	131.086014
2849.656553	132.435664
2850.969202	133.543357
2852.283187	135.332867
2853.596955	137.555245
2854.910506	138.788811
2856.222290	138.869231
2857.532309	137.860140
2858.843661	136.307692
2860.151699	135.888112
2861.461072	134.004196
2862.770229	133.845455
2864.079171	131.415385
2865.386350	131.499301
2866.691765	128.931469
2867.998515	129.044755
2869.303502	129.213287
2870.608276	130.509091
2871.911288	132.046853
2873.217182	134.119580
2874.518220	131.400000
2875.820593	132.365734
2877.121206	134.377622
2878.423153	134.652448
2879.724887	133.834266
2881.023317	135.632168
2882.323080	132.627972
2883.621085	133.527273
2884.918879	131.739860
2886.214917	135.108392
2887.512288	135.431469
2888.807903	136.695105
2890.103307	133.614685
2891.398501	133.790210
2892.690396	137.534965
2893.985168	136.627273
2895.276643	134.546853
2896.569452	135.053846
2897.862049	132.496503
2899.151353	135.000699
2900.441989	133.583217
2901.730874	132.753147
2903.021092	131.411888
2904.308018	130.536364
2905.596276	128.159441
2906.882784	128.772028
2908.169085	129.902797
2909.455177	126.734965
2910.739521	124.489510
2912.026737	126.079720
2913.309126	129.632867
2914.592846	133.065734
2915.874821	131.980420
2917.156589	131.025874
2918.436611	132.093007
2919.719503	131.749650
2921.000650	130.377622
2922.278515	129.646853
2923.559249	129.494406
2924.836702	129.719580
2926.113950	129.724476
2927.389455	131.258741
2928.667828	132.260140
2929.941386	131.127273
2931.217812	128.216084
2932.492497	125.900699
2933.765442	124.573427
2935.039717	122.142657
2936.312253	117.999301
2937.584585	117.141259
2938.853644	118.441259
2940.125567	117.173427
2941.395753	115.716783
2942.665736	117.031469
2943.935515	116.260839
2945.203557	118.595105
2946.469864	118.587413
2947.735968	121.258042
2949.003402	122.605594
2950.269102	121.555944
2951.534599	120.753846
2952.799894	121.549650
2954.061924	120.565035
2955.325285	117.479720
2956.588444	116.345455
2957.849870	117.144755
2959.112626	116.623776
2960.373651	118.270629
2961.632945	117.458042
2962.892038	118.254545
2964.150931	118.648951
2965.409624	117.975524
2966.668117	121.076923
2967.924881	122.198601
2969.181445	120.304895
2970.436282	120.641259
2971.692448	121.260140
2972.945358	120.167133
2974.199598	120.253147
2975.453639	118.761538
2976.705954	116.320280
2977.958071	115.889510
2979.208463	116.086713
2980.461710	115.632867
2981.710180	118.240559
2982.961504	119.070629
2984.209580	120.515385
2985.457458	121.506294
2986.705139	121.086014
2987.952624	120.903497
2989.198387	122.687413
2990.443953	119.746154
2991.690848	120.918881
2992.934497	120.691608
2994.179475	121.740559
2995.421210	119.430070
2996.665796	118.279720
2997.908662	120.302098
2999.148288	120.796503
3000.390765	117.948252
3001.630001	117.889510
3002.870565	116.640559
3004.109412	116.878322
3005.348065	114.743357
3006.585002	116.251748
3007.823266	115.759441
3009.059816	115.027273
3010.296171	113.324476
3011.532333	112.337762
3012.766782	113.902797
3014.001037	115.132168
3015.235099	115.462937
3016.467449	114.654545
3017.698087	111.895804
3018.931571	111.912587
3020.163343	110.393706
3021.393405	110.548951
3022.623275	111.934266
3023.851435	111.613986
3025.080921	115.493706
3026.308699	116.027273
3027.536285	118.255245
3028.765197	119.104196
3029.989367	118.179021
3031.216380	114.150350
3032.440170	111.675524
3033.665285	110.790909
3034.888694	109.930769
3036.111914	109.655245
3037.333428	108.354545
3038.557783	108.132867
3039.777403	109.604895
3040.998348	112.186014
3042.219105	113.647552
3043.438158	115.745455
3044.658537	114.279021
3045.875699	111.462937
3047.094186	111.071329
3048.310972	110.578322
3049.527569	109.387413
3050.743979	106.672727
3051.957175	105.268531
3053.173209	105.383217
3054.386031	105.618182
3055.601690	108.988811
3056.812626	109.107692
3058.024887	110.637063
3059.236962	108.306294
3060.448850	107.766434
3061.659040	107.453846
3062.869045	104.998252
3064.078863	101.617483
3065.286985	100.484965
3066.494921	100.764336
3067.701163	100.357692
3068.908728	99.572727
3070.114600	100.198252
3071.320286	100.745455
3072.525787	101.863287
3073.729596	103.018881
3074.934728	105.222727
3076.138167	104.722378
3077.339914	103.913636
3078.541478	101.760839
3079.742858	104.375524
3080.944054	104.024476
3082.143560	103.293007
3083.342882	106.028671
3084.543528	107.865734
3085.742485	109.732168
3086.938246	109.518182
3088.136837	106.782517
3089.332234	107.709790
3090.528954	106.667133
3091.722482	103.367832
3092.918839	100.290909
3094.113508	102.351049
3095.304987	102.530070
3096.500797	103.759441
3097.691914	107.069231
3098.884353	107.809091
3100.073605	108.640559
3101.265683	106.104895
3102.456076	104.495804
3103.643284	105.865035
3104.831815	105.804196
3106.021668	102.639860
3107.208336	100.645455
3108.394825	101.591608
3109.581134	102.690210
3110.768765	101.205594
3111.953215	99.902797
3113.135984	99.567133
3114.321577	100.110490
3115.505489	98.925175
3116.687723	100.889510
3117.869779	100.400000
3119.051656	102.314685
3120.233355	101.869231
3121.413376	100.734965
3122.591721	102.449650
3123.772887	100.955245
3124.950877	100.015385
3126.128690	99.409091
3127.306326	100.450350
3128.482287	101.438462
3129.658072	101.914685
3130.835177	101.916783
3132.010608	99.462238
3133.184366	100.395105
3134.356452	99.859441
3135.529858	101.171329
3136.703089	101.124476
3137.874647	99.766434
3139.047527	101.897203
3140.217239	101.788112
3141.388272	102.649650
3142.557634	102.690909
3143.725327	102.874825
3144.895835	100.302098
3146.061684	98.848951
3147.231843	97.194406
3148.397344	93.004196
3149.562672	94.103497
3150.727826	95.774825
3151.892806	94.519580
3153.059107	97.293007
3154.220754	98.186014
3155.383722	98.779021
3156.546516	98.619580
3157.709138	98.846853
3158.870095	98.946853
3160.030879	98.543357
3161.191491	94.470629
3162.350440	93.393007
3163.509216	95.257343
3164.667821	95.916783
3165.826254	91.500699
3166.984515	93.464336
3168.141114	91.944056
3169.296052	90.244056
3170.452309	89.510490
3171.606906	89.544755
3172.761331	90.549650
3173.914097	90.130769
3175.066693	90.309790
3176.219118	91.989510
3177.371374	93.018182
3178.523460	92.405594
3179.672399	91.115385
3180.824145	90.939860
3181.974234	92.359441
3183.122665	93.227972
3184.270928	94.355944
3185.419021	94.416783
3186.566946	95.011888
3187.713216	95.361538
3188.859317	93.488112
3190.003763	91.336364
3191.148042	92.825874
3192.292153	90.969930
3193.437582	90.419580
3194.579872	89.762238
3195.721994	91.825874
3196.863950	91.811189
3198.005738	90.406993
3199.147359	91.172028
3200.285844	91.325175
3201.425647	93.289510
3202.566768	92.855944
3203.704754	93.110490
3204.841091	95.866434
3205.977262	94.246853
3207.114751	94.487413
3208.250591	92.306294
3209.387747	91.195804
3210.520291	90.273427
3211.657117	86.735664
3212.789331	87.039860
3213.922863	85.441259
3215.056229	89.306993
3216.186468	91.614685
3217.319505	94.012587
3218.449416	95.380420
3219.580644	95.483916
3220.708746	97.326573
3221.839645	96.480420
3222.968901	96.807692
3224.096512	96.576224
3225.221002	93.016783
3226.349767	91.958741
3227.475410	89.203497
3228.600890	90.075524
3229.724729	92.616783
3230.851362	93.675524
3231.973398	93.395804
3233.096750	95.840559
3234.219940	98.130070
3235.342968	97.688811
3236.464356	97.381119
3237.585583	98.450350
3238.705171	99.414685
3239.824598	104.509091
3240.942387	105.491608
3242.062969	107.483916
3243.180436	112.121678
3244.297744	112.490909
3245.414890	113.379021
3246.530401	112.492308
3247.647227	110.474126
3248.760942	107.194406
3249.877448	102.106294
3250.992318	98.192308
3252.104080	95.110490
3253.215683	94.318182
3254.328600	88.594406
3255.441359	88.225175
3256.551011	88.203497
3257.661978	85.904196
3258.772786	82.525175
3259.881962	79.612587
3260.989507	84.944056
3262.098367	92.161538
3263.207068	94.123776
3264.312667	96.193007
3265.419581	96.146853
3266.524865	96.918881
3267.631463	95.437063
3268.734961	97.337063
3269.839773	94.757343
3270.944428	88.955944
3272.045984	85.098601
3273.147385	83.045455
3274.250099	88.305594
3275.352656	91.503497
3276.452118	92.725175
3277.554362	93.262937
3278.653512	89.356643
3279.751036	90.084615
3280.848405	89.404895
3281.948557	85.630769
3283.045615	82.883916
3284.142518	80.780420
3285.239267	80.058741
3286.331456	80.186713
3287.427895	83.830769
3288.522711	83.441259
3289.617372	84.840559
3290.710412	86.093706
3291.803298	85.441958
3292.894563	85.683217
3293.987141	84.303497
3295.078098	79.722378
3296.167437	80.457343
3297.256621	79.372727
3298.347119	78.713986
3299.434532	81.067133
3300.521793	82.218881
3301.610366	79.471329
3302.698786	81.470629
3303.782659	82.915385
3304.870774	81.662937
3305.955808	79.888811
3307.039226	77.784615
3308.123955	76.328671
3309.207070	77.571329
3310.291496	76.583217
3311.372844	77.635664
3312.455504	76.032168
3313.536550	76.889510
3314.617445	77.147552
3315.696727	77.864336
3316.775858	75.247552
3317.856300	74.915385
3318.933669	76.075524
3320.012349	75.359441
3321.089417	75.944056
3322.166335	77.097203
3323.241642	79.102797
3324.316800	79.856643
3325.393270	80.022378
3326.466668	79.560839
3327.539918	80.673427
3328.614479	76.958741
3329.687430	74.754545
3330.758774	74.689510
3331.831428	72.862238
3332.901015	71.102797
3333.971913	68.323776
3335.041204	65.937063
3336.111806	66.927273
3337.180801	69.951748
3338.248190	72.688811
3339.313974	69.360140
3340.383984	75.648252
3341.450931	77.058042
3342.514816	79.339161
3343.581469	78.775524
3344.646517	77.345455
3345.709963	74.851748
3346.773261	69.079720
3347.836414	62.972028
3348.899420	60.019580
3349.962279	61.272727
3351.023537	60.564336
3352.081738	59.758042
3353.144160	66.282517
3354.203525	68.490909
3355.262745	72.527972
3356.323275	74.361538
3357.379295	75.088112
3358.438080	73.650350
3359.492357	71.296503
3360.549397	70.305594
3361.604840	66.879720
3362.661591	64.374825
3363.716745	62.979720
3364.770301	61.761538
3365.822260	63.346154
3366.876981	64.842657
3367.928653	66.900699
3368.980182	68.502098
3370.033020	69.186014
3371.082810	68.953147
3372.133908	69.244056
3373.181961	71.656643
3374.232774	69.886713
3375.280541	66.638462
3376.328166	66.074825
3377.375649	65.903497
3378.421538	68.732867
3379.468736	69.144056
3380.512892	69.446853
3381.559806	70.869930
3382.605128	67.177622
3383.647410	67.997203
3384.689550	69.537762
3385.732998	71.379720
3386.776306	70.445455
3387.818023	67.675524
3388.859599	68.381818
3389.901035	69.077622
3390.940881	68.738462
3391.979140	68.958042
3393.018706	68.257343
3394.058131	67.455944
3395.095970	62.777622
3396.132221	64.295105
3397.168332	62.823776
3398.205751	58.897203
3399.240137	57.091608
3400.275830	54.283217
3401.311384	55.475524
3402.343907	55.774825
3403.379183	56.306294
3404.411428	60.458042
3405.443535	63.891608
3406.474058	64.702098
3407.505889	65.914685
3408.537580	70.801399
3409.566245	73.773427
3410.594771	72.413986
3411.624605	72.090909
3412.654300	68.618881
3413.680970	68.357343
3414.708947	66.442657
3415.733899	64.749650
3416.761601	64.572727
3417.786280	63.778322
3418.812265	62.400699
3419.836670	66.410490
3420.860939	67.981818
3421.883629	67.639161
3422.906183	67.257343
3423.930043	66.303497
3424.950883	64.260140
3425.971588	63.376723
3426.993598	62.617682
3428.012590	62.013786
3429.031447	61.595804
3430.051609	61.394505
3431.068755	61.440659
