-118.187858	-2.854670
-115.518258	-10.025275
-112.851593	-13.569680
-110.185680	-14.218482
-107.522699	-12.702273
-104.858289	-9.751648
-102.196809	-6.097203
-99.533899	-4.086014
-96.876097	-1.925874
-94.216864	-0.544755
-91.558380	0.058042
-88.902821	-3.418881
-86.245833	-5.511189
-83.593942	-6.675524
-80.940622	-6.534965
-78.290222	-4.889510
-75.638392	-4.477622
-72.991653	-2.858741
-70.343484	-4.311888
-67.696059	-4.573427
-65.051547	-4.828671
-62.405607	-4.549650
-59.764748	-5.674126
-57.122460	-6.767133
-54.483080	-7.468531
-51.842272	-4.699301
-49.202204	-5.286713
-46.567208	-2.969231
-43.930783	-2.715385
-41.297262	0.053846
-38.662312	-1.732867
-36.032427	-1.641958
-33.398950	-0.532168
-30.770535	-2.097203
-28.142853	-1.953147
-25.513744	-1.560140
-22.889691	-4.453846
-20.262049	-21.361538
-17.639460	-55.071329
-15.017602	-32.272028
-12.396476	82.862238
-9.776079	246.727972
-7.158570	376.448951
-4.539633	464.598601
-1.923582	510.246853
0.691741	510.521678
3.306337	468.867832
5.918050	386.145455
8.531192	265.057343
11.139300	113.250350
13.750990	-24.748252
16.357649	-74.452448
18.965736	-45.693007
21.573099	-8.204895
24.175437	-4.876224
26.781353	-4.290210
29.382247	-5.006993
31.984570	-5.064336
34.581874	-4.072028
37.182754	0.425175
39.778620	0.981818
42.375913	1.948252
44.972487	2.659441
47.564052	0.339161
50.157045	-1.048951
52.747177	-2.213287
55.338737	-3.413287
57.927437	-4.767832
60.517564	-6.218182
63.102693	-5.792308
65.689249	-3.258042
68.275090	-2.603497
70.858078	-3.932168
73.442493	-1.988112
76.019778	-3.166434
78.600630	-6.006294
81.178633	-6.024476
83.755926	-5.565035
86.334645	-5.893706
88.908383	-7.437063
91.483547	-7.181119
94.055868	-7.612587
96.627481	-5.821678
99.196255	-6.576923
101.766455	-6.566434
104.333816	-5.705594
106.902604	-7.065035
109.468554	-6.520280
112.031670	-4.656643
114.598342	-3.394406
117.155793	-3.878322
119.718929	-2.532867
122.277106	-1.967832
124.838836	0.102797
127.395611	5.522378
129.953811	10.324476
132.507059	15.655944
135.059608	22.316084
137.615708	29.410490
140.166861	37.485315
142.717315	46.924476
145.267073	53.988811
147.814011	61.184615
150.360253	66.172028
152.907922	67.925175
155.454894	70.243357
157.996930	72.821678
160.538273	71.672727
163.078924	69.999301
165.620999	67.678322
168.160264	66.701399
170.696719	64.658042
173.232484	64.960140
175.769674	67.155944
178.306172	68.554545
180.839865	67.300000
183.370755	67.655944
185.900956	68.269930
188.432582	68.246154
190.961407	65.129371
193.487433	64.044755
196.012774	59.995804
198.539539	58.193706
201.063508	56.881818
203.586791	57.651049
206.109390	59.904895
208.629196	58.600000
211.148319	59.208392
213.666759	62.829371
216.186623	65.037063
218.699486	65.465734
221.215880	65.200699
223.731592	65.026573
226.242415	63.258741
228.754662	63.033566
231.264126	62.886713
233.772912	62.344755
236.281020	62.551049
238.790551	63.594406
241.295203	64.789510
243.799178	66.370629
246.304577	67.698601
248.805101	68.487413
251.309148	69.165035
253.806225	70.176923
256.306824	69.711189
258.804652	68.892308
261.301807	66.418881
263.798289	64.706294
266.289909	64.330769
268.785047	64.495804
271.277420	63.569930
273.769122	62.736364
276.258061	65.027273
278.748423	67.620979
281.236024	70.123077
283.720865	73.786014
286.209220	75.114685
288.690636	76.069930
291.175566	75.046154
293.655651	75.465035
296.139248	74.264336
298.618002	72.765734
301.098180	70.841259
303.575605	68.923776
306.052367	69.325874
308.528466	73.300000
311.001816	78.412587
313.474504	84.653846
315.946531	90.264336
318.417897	94.046154
320.886519	95.602098
323.354481	96.590909
325.823866	95.927972
328.288428	92.348951
330.756493	88.162238
333.219739	82.899301
335.682328	79.348951
338.144259	79.191608
340.605534	77.089510
343.064075	78.051049
345.524038	78.297902
347.981269	78.744056
350.437844	79.692308
352.893766	81.956643
355.346959	83.623776
357.801573	80.272727
360.251386	81.074825
362.704696	77.326573
365.153206	77.327972
367.601066	75.840559
370.050347	74.911189
372.494835	76.127972
374.940745	77.455944
377.386006	79.227972
379.828548	80.399301
382.270442	81.076224
384.711688	78.564336
387.150219	76.731469
389.590172	77.040559
392.027411	73.555944
394.461938	73.569231
396.899953	71.684615
399.333191	73.118881
401.767851	72.160140
404.197737	71.953147
406.631109	72.049650
409.059711	75.072727
411.487672	75.017483
413.917053	75.224476
416.341669	77.489510
418.767707	77.286014
421.193104	77.430769
423.617861	78.806993
426.037860	76.329371
428.459280	77.728671
430.878003	74.818182
433.298147	74.620979
435.715596	75.806993
438.134465	78.712587
440.550641	77.447552
442.962070	76.848252
445.376975	77.719580
447.789190	78.233566
450.200771	79.820979
452.611718	79.656643
455.019979	76.469930
457.427607	76.700699
459.834604	74.942657
462.240968	75.155944
464.644650	73.431469
467.047702	72.591608
469.450124	72.002098
471.851917	71.351049
474.251031	73.723077
476.651565	74.254545
479.051470	73.337762
481.446652	72.404196
483.845301	73.378322
486.239230	73.063636
488.632533	72.509790
491.025210	71.941958
493.417262	70.962937
495.810733	68.027273
498.199491	66.887413
500.585583	63.299301
502.973095	58.945455
505.359983	54.289510
507.744208	51.902797
510.129852	50.647552
512.512833	48.707692
514.893154	45.161538
517.274894	43.023776
519.653975	43.426573
522.034475	42.860839
524.412317	40.604895
526.787504	39.193706
529.162073	37.830070
531.538061	37.537063
533.911395	38.455944
536.286148	38.872727
538.656214	37.650350
541.025665	37.120280
543.396535	35.867133
545.762723	35.653846
548.130330	34.334266
550.495291	33.950350
552.859639	32.176923
555.223375	30.579021
557.588528	29.719580
559.949008	29.683916
562.310907	29.977622
564.670166	30.160140
567.026786	31.581818
569.386851	31.603497
571.740226	31.236364
574.097045	31.757343
576.451228	30.200699
578.804804	31.690909
581.157771	30.356643
583.508107	30.062937
585.859859	27.515385
588.204935	27.741259
590.555475	28.672727
592.899342	28.918182
595.248669	29.139860
597.593349	27.548252
599.935404	27.868531
602.278875	27.173427
604.619724	26.944056
606.959971	29.465035
609.297597	29.415385
611.638658	30.114685
613.975082	28.805594
616.312922	27.930769
618.648144	27.760839
620.980751	25.862937
623.314775	25.845455
625.646184	24.900699
627.976995	24.883916
630.307208	24.087413
632.636823	24.769930
634.961816	25.664336
637.292250	25.018881
639.618062	25.188112
641.941268	25.618182
644.265889	25.154545
646.587906	24.567832
648.909328	23.905594
651.228147	25.214685
653.548382	23.216084
655.868024	23.860140
658.185065	22.499301
660.501515	21.924476
662.815366	20.624476
665.130632	19.809091
667.443302	18.987413
669.757387	20.542657
672.066872	22.613287
674.377773	22.986014
676.686081	22.505594
678.993801	24.085315
681.302936	20.799301
683.607478	22.557343
685.911434	20.449650
688.214803	18.390210
690.519587	16.242657
692.819785	16.149650
695.121398	16.049650
697.422425	18.024476
699.718870	18.436364
702.016731	18.581818
704.314008	17.397203
706.610702	18.999301
708.902820	16.356643
711.198349	19.136364
713.489305	17.464336
715.781675	17.241259
718.071469	18.887413
720.360684	21.351748
722.649318	22.294406
724.935381	22.753846
727.222857	19.805594
729.507763	19.982517
731.792090	17.790210
734.073849	16.446154
736.357023	15.577622
738.639618	15.744755
740.917659	15.004895
743.197113	16.653846
745.475992	17.909091
747.754295	19.011189
750.028049	20.519580
752.303217	20.607692
754.577811	19.008392
756.849846	20.105594
759.123293	17.407692
761.394183	16.638462
763.662517	17.752448
765.932264	17.781119
768.199457	20.249650
770.466079	22.795105
772.732132	23.753147
774.995632	25.272028
777.260546	27.158042
779.524890	27.476923
781.784705	25.351748
784.045933	22.823776
786.306593	17.546853
788.564706	15.771329
790.820275	17.332867
793.079235	17.599301
795.331696	19.311888
797.589524	21.881818
799.842832	22.877622
802.093601	26.541958
804.345782	27.133566
806.595425	26.669930
808.846479	24.670629
811.093022	22.799301
813.340978	21.090909
815.586398	19.967832
817.833230	18.472028
820.079501	16.284615
822.321268	15.260839
824.566417	17.641958
826.805094	18.387413
829.047154	19.537762
831.284715	17.444056
833.523687	18.054545
835.760133	20.909790
837.997991	20.836364
840.233323	19.888811
842.466131	19.593706
844.700351	19.156643
846.932049	20.259441
849.163192	22.544755
851.393780	23.322378
853.623814	22.010490
855.853293	20.281818
858.078291	18.288811
860.306664	19.057343
862.530558	16.937762
864.755862	13.802098
866.976691	13.196503
869.200892	15.683217
871.420620	15.980420
873.641759	17.147552
875.862347	15.843357
878.080425	14.581818
880.299914	14.986014
882.514936	14.834965
884.729410	14.125175
886.943337	15.309790
889.156716	13.206993
891.369549	14.753846
893.581834	14.873427
895.791618	17.086713
898.000856	18.406294
900.209548	18.555944
902.415742	18.750350
904.623345	19.883916
906.828451	21.611888
909.033013	21.590909
911.235079	19.849650
913.438555	19.951049
915.639537	19.141259
917.839978	21.009790
920.041827	19.302098
922.237284	20.927273
924.436101	20.012587
926.630480	20.669930
928.828215	21.267133
931.021515	20.507692
933.216224	19.786014
935.408447	16.302797
937.600132	15.023077
939.791279	15.904196
941.979943	15.293007
944.168070	16.241958
946.353717	15.528671
948.542716	16.780420
950.727292	16.598601
952.911333	17.779720
955.098724	18.207692
957.277812	21.541259
959.460249	22.420979
961.642153	22.350350
963.821583	25.488112
965.998540	25.132168
968.176905	22.691608
970.356676	24.023776
972.530099	25.143357
974.706868	25.914685
976.879231	23.674825
979.053000	22.061538
981.222366	23.088811
983.395077	23.982517
985.565321	22.910490
987.735037	23.576923
989.904224	23.676224
992.069014	24.203497
994.237145	23.370629
996.400882	26.623077
998.566025	28.220280
1000.728710	29.231469
1002.890868	28.935664
1005.050570	31.048951
1007.209748	30.923077
1009.370332	30.565035
1011.528461	28.789510
1013.686066	29.904196
1015.843148	28.157343
1017.999707	29.303497
1020.151886	29.255245
1022.305471	31.828671
1024.458535	32.331469
1026.609151	33.936364
1028.761172	37.240559
1030.908820	39.854545
1033.059800	40.453846
1035.206409	41.720280
1037.352500	39.737762
1039.498071	38.781119
1041.645048	37.274126
1043.785737	36.597203
1045.929754	35.213287
1048.071331	34.715385
1050.212392	34.820979
1052.354857	37.677622
1054.491043	40.064336
1056.630555	39.344056
1058.765711	39.341259
1060.904192	39.048252
1063.038320	36.586014
1065.171933	36.171329
1067.306952	34.923776
1069.437621	33.746853
1071.569695	32.024476
1073.699340	34.537063
1075.828473	35.616783
1077.957094	36.780420
1080.085204	35.376923
1082.210888	34.062937
1084.336062	33.707692
1086.462640	32.893706
1088.584881	32.158741
1090.708525	31.790909
1092.827836	30.820280
1094.952375	29.947552
1097.070669	31.032867
1099.190368	33.734266
1101.307648	35.384615
1103.424422	36.141259
1105.540689	34.062937
1107.654541	33.656643
1109.769796	32.520979
1111.880729	32.381119
1113.994973	30.694406
1116.104897	28.237762
1118.216225	26.611888
1120.327049	25.428671
1122.433556	25.965734
1124.543372	25.890210
1126.648874	26.464336
1128.755779	24.151049
1130.856469	21.532168
1132.962371	19.628671
1135.063964	19.720280
1137.166960	20.934965
1139.269455	20.949650
1141.365744	22.485315
1143.467239	23.231469
1145.564432	24.561538
1147.661126	25.145455
1149.757323	24.646853
1151.853021	25.249650
1153.948222	26.313986
1156.041026	27.128671
1158.135232	28.097203
1160.223247	28.418881
1162.316460	27.954545
1164.403485	27.413287
1166.493810	27.572028
1168.579846	24.739860
1170.669180	22.587413
1172.752333	20.209790
1174.836889	17.579720
1176.922845	17.266434
1179.004520	17.679021
1181.087597	16.901399
1183.168288	19.009790
1185.248487	18.717483
1187.328195	20.521678
1189.407412	22.863636
1191.484247	25.600699
1193.558701	24.119580
1195.636447	24.384615
1197.709922	23.386713
1199.784798	21.926573
1201.855407	20.808392
1203.927418	20.104895
1205.997052	17.946154
1208.068087	19.228671
1210.138634	17.978322
1212.204920	19.737762
1214.272607	19.874126
1216.337922	20.129371
1218.404637	18.448252
1220.467096	19.806294
1222.532840	18.051748
1224.594331	18.079021
1226.657221	17.600699
1228.717744	17.365734
1230.777784	17.117483
1232.837340	18.160140
1234.894531	16.937063
1236.951241	20.097203
1239.005588	20.482517
1241.063215	20.385315
1243.118480	20.406294
1245.169504	22.313287
1247.221928	22.897203
1249.273873	24.087413
1251.323458	22.209091
1253.372565	22.255245
1255.421194	21.488112
1257.469344	21.141259
1259.517016	19.839161
1261.560457	21.386014
1263.607173	18.760140
1265.651537	17.444056
1267.695423	18.811189
1269.736959	20.791608
1271.776145	21.817483
1273.818603	22.220280
1275.856839	21.939860
1277.896474	24.718881
1279.935634	24.967832
1281.970576	26.585315
1284.006916	26.307692
1286.040911	27.964336
1288.076305	28.900000
1290.107485	29.931469
1292.140064	32.134965
1294.172170	32.984615
1296.201936	33.075524
1298.233100	35.032168
1300.260056	34.951049
1302.288410	37.320979
1304.312560	37.325874
1306.339974	39.430769
1308.363187	41.381818
1310.387796	44.750350
1312.410072	45.618881
1314.433745	47.680420
1316.455085	50.886014
1318.475957	52.617483
1320.496363	54.295804
1322.512574	56.927972
1324.530184	57.439161
1326.545465	59.988112
1328.564005	61.674825
1330.578355	64.081818
1332.590380	67.178322
1334.605662	67.932867
1336.616759	66.104196
1338.629253	67.413287
1340.637564	67.133566
1342.649131	66.013287
1344.654658	62.944755
1346.663441	61.160140
1348.668046	58.357343
1350.675905	58.465734
1352.683302	55.725874
1354.684668	53.543357
1356.687431	52.137063
1358.689733	48.947552
1360.691576	45.522378
1362.692960	43.279720
1364.692029	41.269231
1366.690640	37.683916
1368.688793	33.074126
1370.686488	30.310490
1372.680019	28.256643
1374.674947	30.350350
1376.669418	27.044056
1378.663432	27.807692
1380.655139	27.053846
1382.646390	27.457343
1384.635336	28.339860
1386.625677	27.479720
1388.615563	25.981119
1390.603146	24.437762
1392.590275	21.775524
1394.575102	19.368531
1396.561323	19.793007
1398.545245	19.186014
1400.528714	16.782517
1402.511731	16.874825
1404.492450	15.925175
1406.474563	18.166434
1408.454379	20.455245
1410.433745	19.474825
1412.408971	18.238462
1414.387437	19.123776
1416.363609	18.551049
1418.339331	18.652448
1420.314604	18.569231
1422.287586	18.026573
1424.260120	18.656643
1426.232207	18.704196
1428.203845	19.447552
1430.171355	19.939161
1432.143940	18.569231
1434.108718	16.227972
1436.078569	14.237762
1438.044295	15.390210
1440.011415	14.941958
1441.976250	14.101399
1443.936967	13.733566
1445.902751	14.691608
1447.862580	15.304895
1449.823802	16.388112
1451.786417	16.786713
1453.744917	16.683916
1455.702975	16.558042
1457.660590	16.916084
1459.617764	15.902098
1461.572662	17.420979
1463.528952	18.018182
1465.482968	17.458741
1467.436544	16.672028
1469.387847	16.698601
1471.340542	16.658042
1473.290966	17.398601
1475.240951	16.654545
1477.190496	16.481119
1479.137773	16.723077
1481.082783	17.026573
1483.029184	17.468531
1484.975149	19.297203
1486.920675	20.662937
1488.863937	20.513287
1490.806762	21.825175
1492.747324	22.016783
1494.689277	22.334965
1496.628969	22.581818
1498.568225	22.015385
1500.507047	21.965734
1502.443608	21.669231
1504.381561	21.730070
1506.317256	22.153147
1508.252517	23.858741
1510.185521	24.067133
1512.118093	24.403497
1514.050233	25.461538
1515.981941	25.113986
1517.911395	23.325874
1519.842240	22.326573
1521.772654	21.339161
1523.698995	21.472727
1525.626726	21.140559
1527.552207	21.588112
1529.477259	25.526573
1531.401882	29.586014
1533.326076	29.988811
1535.248023	32.502098
1537.171359	34.401399
1539.092450	35.462937
1541.011296	34.525175
1542.931532	34.622378
1544.849524	36.281119
1546.767090	38.581818
1548.682414	40.175524
1550.599128	40.610490
1552.511787	43.368531
1554.427650	45.980420
1556.341273	45.639860
1558.252659	48.607692
1560.165433	50.955245
1562.074158	53.348951
1563.984273	55.730769
1565.893964	57.552448
1567.803231	58.526573
1569.710265	58.447552
1571.615066	58.170629
1573.521256	54.372727
1575.425214	51.934266
1577.328752	51.576923
1579.231868	46.934965
1581.132756	48.145455
1583.035031	46.483916
1584.935079	47.937063
1586.836515	47.625874
1588.733916	47.937762
1590.630899	45.262937
1592.527464	45.031469
1594.425417	43.384615
1596.317535	39.905594
1598.212846	36.442657
1600.107740	35.039161
1602.000412	32.088811
1603.892668	31.081119
1605.782704	28.392308
1607.672324	28.864336
1609.561529	26.453846
1611.450318	26.402098
1613.336891	24.958741
1615.224850	26.386014
1617.108793	26.529371
1618.994124	25.553147
1620.879040	24.502797
1622.761744	24.204196
1624.645833	21.681119
1626.525912	20.686014
1628.407377	18.416783
1630.286632	17.993706
1632.167273	17.760140
1634.042110	18.377622
1635.921929	18.320280
1637.797742	18.799301
1639.673145	19.348951
1641.549935	15.450350
1643.420927	17.218881
1645.295101	17.862238
1647.165277	18.188811
1649.038633	19.824476
1650.909786	17.138462
1652.778737	19.160839
1654.649074	19.316084
1656.515417	17.947552
1658.383146	18.578322
1660.248677	19.408392
1662.115592	17.332867
1663.978519	14.659441
1665.842831	18.179021
1667.704947	18.848951
1669.566659	18.190909
1671.429755	16.258042
1673.290657	14.160140
1675.149365	13.327273
1677.007670	10.748252
1678.867360	9.048951
1680.721283	11.745455
1682.578378	12.464336
1684.435071	11.719580
1686.287788	11.938462
1688.143676	10.385315
1689.995589	10.402797
1691.847102	9.867133
1693.698215	7.955245
1695.548926	7.489510
1697.399237	6.246853
1699.247364	5.600000
1701.096874	5.288112
1702.940636	7.924476
1704.789348	9.004196
1706.632313	10.192308
1708.478444	10.683916
1710.320614	11.688811
1712.165948	13.698601
1714.005542	15.637762
1715.846520	14.670629
1717.688881	12.981818
1719.527286	12.740559
1721.367074	10.013287
1723.204687	10.735664
1725.041904	11.836364
1726.876948	11.346853
1728.713375	11.735664
1730.547630	11.486014
1732.381490	10.957343
1734.214957	10.195105
1736.044477	9.958741
1737.877156	6.423077
1739.705891	4.249650
1741.537784	2.618182
1743.365734	1.349650
1745.193292	3.002797
1747.020458	1.594406
1748.847233	3.476923
1750.673617	4.183217
1752.496064	3.990210
1754.321665	4.590909
1756.143332	4.742657
1757.966381	3.604196
1759.787269	4.399301
1761.607767	6.120979
1763.429647	4.206993
1765.245827	6.464336
1767.065159	6.621678
1768.880564	6.746154
1770.699119	8.890210
1772.513749	7.376224
1774.327993	5.746154
1776.141849	4.684615
1777.955319	3.546853
1779.766636	3.097203
1781.579334	6.111189
1783.391645	7.295105
1785.200039	6.081818
1787.009814	8.681818
1788.815673	9.335664
1790.624679	9.554545
1792.429771	8.553846
1794.236243	7.062937
1796.042332	4.728671
1797.844511	4.785315
1799.649833	3.667133
1801.451247	1.994406
1803.254041	5.706294
1805.052929	8.860140
1806.853198	11.026573
1808.653085	11.980420
1810.450831	13.155944
1812.248196	10.745455
1814.045180	9.404196
1815.841784	9.557343
1817.636249	8.767832
1819.432093	8.313986
1821.222283	5.973427
1823.017369	3.490210
1824.806802	7.420979
1826.599372	7.845455
1828.389807	8.772028
1830.178108	8.346154
1831.969544	8.262238
1833.755334	4.300000
1835.542504	5.606294
1837.327542	6.103497
1839.115714	6.763636
1840.900000	5.778322
1842.682157	4.926573
1844.465692	3.795105
1846.247099	5.304895
1848.029885	3.974126
1849.808791	6.267832
1851.589075	7.733566
1853.367233	8.577622
1855.146770	6.171329
1856.924182	7.181818
1858.699470	7.769231
1860.476137	9.483217
1862.250681	10.317483
1864.026602	11.939161
1865.796904	10.739860
1867.570332	10.094406
1869.341641	10.186014
1871.112580	11.365035
1872.884895	8.724476
1874.651598	8.184615
1876.421425	6.574825
1878.187389	8.120979
1879.956477	8.733566
1881.721703	9.297203
1883.486561	10.672727
1885.252795	11.867832
1887.015171	9.223077
1888.777180	9.786014
1890.538822	7.878322
1892.300096	6.523776
1894.061003	3.706993
1895.821544	3.964336
1897.579975	2.957343
1899.338041	3.548252
1901.093998	0.617483
1902.851333	1.516783
1904.608301	3.848951
1906.363164	3.985315
1908.115921	3.830769
1909.868315	6.125874
1911.622084	4.124476
1913.373750	4.360839
1915.123314	4.185315
1916.874254	3.604895
1918.624830	3.844755
1920.371568	3.000699
1922.119681	-0.384615
1923.865695	0.851748
1925.613085	1.293007
1927.358376	2.288112
1929.101570	4.026573
1930.846140	4.524476
1932.588613	5.237762
1934.330726	5.782517
1936.072479	6.577273
1937.813873	6.726573
1939.553173	7.883566
1941.292114	5.716084
1943.030696	3.497552
1944.767186	3.260140
1946.503319	1.475874
1948.240826	2.166434
1949.974512	2.545804
1951.709571	2.139860
1953.442543	4.913636
1955.175158	7.100000
1956.907416	7.303147
1958.639318	10.211189
1960.369134	11.152448
1962.096866	11.576224
1963.825971	10.298601
1965.554722	8.840559
1967.281389	6.404895
1969.007702	6.260839
1970.735388	5.646853
1972.457538	4.051049
1974.182789	6.537063
1975.904234	7.193706
1977.628778	6.042657
1979.351243	9.203497
1981.069904	8.872028
1982.791664	9.867832
1984.509622	9.690210
1986.228954	9.807692
1987.944485	8.846853
1989.664838	8.236364
1991.381391	7.950350
1993.094149	8.035664
1994.810002	9.535664
1996.523782	8.334266
1998.237213	8.500699
1999.948573	9.611888
2001.661306	8.739860
2003.370247	6.882517
2005.082282	5.461538
2006.788807	3.569231
2008.498425	3.230769
2010.205975	2.812587
2011.913178	2.285315
2013.618315	1.074126
2015.323105	0.939161
2017.029267	1.897203
2018.731647	3.413287
2020.435399	3.092308
2022.137087	4.782517
2023.838431	5.485315
2025.539429	7.486014
2027.238367	10.768531
2028.938675	11.527972
2030.635209	12.346853
2032.333114	10.961538
2034.028961	10.330769
2035.727892	9.668531
2037.421338	9.267832
2039.116156	6.941958
2040.810630	5.952448
2042.501336	6.825175
2044.195126	5.384615
2045.885149	6.479021
2047.576543	7.139860
2049.265884	5.065035
2050.956595	7.018182
2052.643544	6.293706
2054.330152	7.649650
2056.018131	8.296503
2057.702350	11.624476
2059.387939	11.309790
2061.073189	13.432867
2062.756391	11.777622
2064.440962	9.924476
2066.120071	10.032168
2067.803965	7.820280
2069.482399	6.153147
2071.163909	3.123077
2072.841669	0.537762
2074.519091	1.313287
2076.197884	0.258042
2077.874633	2.612587
2079.549341	1.608392
2081.225418	3.660839
2082.899455	3.597203
2084.573156	4.567832
2086.246522	5.106294
2087.917850	6.090210
2089.588843	7.537762
2091.259502	6.258741
2092.929826	6.684615
2094.599817	8.039860
2096.267772	8.845455
2097.935394	9.630070
2099.600982	9.464336
2101.267938	9.400699
2102.932861	9.181818
2104.597451	8.751748
2106.260010	9.187413
2107.923937	10.236364
2109.585834	10.202098
2111.247399	8.606294
2112.908634	9.181818
2114.567839	9.267832
2116.226715	9.804895
2117.885260	8.016783
2119.543476	8.207692
2121.197968	9.339860
2122.855525	10.367832
2124.512753	9.379720
2126.166259	10.439161
2127.821133	9.655944
2129.472289	8.318182
2131.126506	7.413986
2132.777007	7.679720
2134.428874	6.384615
2136.075333	6.260140
2137.726547	7.406993
2139.374047	8.717483
2141.022914	12.090210
2142.669763	12.335664
2144.316285	14.436364
2145.962482	13.876224
2147.604971	13.281818
2149.250518	11.052448
2150.892358	9.064336
2152.537255	8.014685
2154.178447	6.474126
2155.819315	6.411888
2157.459860	4.957343
2159.098392	5.293007
2160.738290	7.125874
2162.374488	8.002098
2164.012052	10.683916
2165.649293	8.860839
2167.284525	9.348252
2168.919436	9.341958
2170.554025	8.435664
2172.188292	8.642657
2173.818867	9.650350
2175.452492	7.754545
2177.082426	6.371329
2178.713725	7.381119
2180.343020	7.994406
2181.971994	8.446853
2183.600650	9.158741
2185.228986	8.276923
2186.855319	8.280420
2188.481334	8.341958
2190.105348	7.866434
2191.730726	8.650350
2193.354105	7.714685
2194.978847	5.553846
2196.599909	6.093007
2198.220654	7.442657
2199.842764	7.848252
2201.462876	9.342657
2203.080991	9.113986
2204.698791	10.061538
2206.316276	12.759441
2207.933445	11.703497
2209.550299	12.774126
2211.166838	13.456643
2212.781383	11.857343
2214.393936	10.495105
2216.007853	9.287413
2217.619779	8.624476
2219.233068	5.883916
2220.844367	5.393706
2222.453676	3.921678
2224.064349	5.802098
2225.673033	7.197902
2227.281405	5.734266
2228.887789	7.368531
2230.495537	9.959441
2232.101298	11.000699
2233.706748	9.839161
2235.310214	9.720979
2236.915042	8.295105
2238.517886	5.714685
2240.118747	4.468531
2241.720971	4.472727
2243.321212	5.917483
2244.922816	5.487413
2246.520768	3.924476
2248.120082	3.443357
2249.717416	5.899301
2251.314442	8.924476
2252.912829	10.015385
2254.507568	10.755245
2256.100331	8.827273
2257.694455	8.297203
2259.289941	8.960839
2260.881783	8.815385
2262.473318	8.848252
2264.066214	6.685315
2265.653801	3.208392
2267.246085	2.596503
2268.833061	3.552448
2270.423066	6.202098
2272.007766	5.404196
2273.597160	3.967832
2275.181251	3.239161
2276.766704	6.013986
2278.350187	6.339161
2279.936697	7.409091
2281.519573	9.463636
2283.102145	10.819231
2284.684414	11.264336
2286.263054	10.500350
2287.844717	9.004895
2289.422752	7.928322
2291.003810	4.899301
2292.581242	4.875874
2294.156710	4.733566
2295.735199	5.201748
2297.310065	4.137762
2298.884630	5.757692
2300.458895	7.017483
2302.032859	6.003846
2303.606523	5.628671
2305.179886	4.534965
2306.749631	5.373427
2308.319077	8.041958
2309.891542	9.429371
2311.458731	10.756643
2313.028939	10.046154
2314.595532	10.403497
2316.163485	9.281119
2317.729483	9.835664
2319.295182	8.293706
2320.860585	6.913986
2322.424034	8.865734
2323.988841	10.620979
2325.550041	12.395105
2327.114255	16.223776
2328.673208	16.172028
2330.235174	16.086014
2331.795190	15.827273
2333.354910	15.065035
2334.912681	11.865035
2336.470158	10.799301
2338.027339	8.262937
2339.582574	8.679720
2341.137514	7.378322
2342.692161	5.504196
2344.246514	5.626573
2345.800573	7.130070
2347.354338	7.782517
2348.906160	8.676224
2350.456038	7.909790
2352.008924	7.897203
2353.556568	7.500699
2355.107219	6.625874
2356.654280	6.113287
2358.202698	5.542657
2359.750824	3.569930
2361.295363	4.411189
2362.841259	6.821678
2364.385216	8.555245
2365.930531	10.295105
2367.472261	10.519580
2369.015348	10.667832
2370.556500	13.020979
2372.097362	12.552448
2373.637935	11.336364
2375.178219	10.098601
2376.718214	8.330769
2378.254630	8.369930
2379.794048	8.470629
2381.329889	8.058042
2382.867086	8.504196
2384.400709	9.558042
2385.937331	7.924476
2387.472022	8.134266
2389.004784	8.241958
2390.537260	5.801399
2392.067807	5.816783
2393.601352	5.635664
2395.129686	5.448951
2396.659376	7.128671
2398.188781	7.371329
2399.717900	8.027273
2401.246735	10.162238
2402.770365	11.130070
2404.298630	9.966434
2405.821692	10.247552
2407.349388	8.528671
2408.870245	7.876923
2410.395735	9.174126
2411.917664	8.855245
2413.440949	7.472727
2414.962313	8.063636
2416.481757	7.384615
2418.002556	6.827972
2419.521436	6.911189
2421.040034	6.942657
2422.556715	7.311888
2424.074750	6.797902
2425.592504	6.707692
2427.106707	8.907692
2428.620629	9.739860
2430.134272	9.804895
2431.649268	9.868531
2433.160716	9.766434
2434.673519	7.948252
2436.184409	6.924476
2437.695019	7.062238
2439.203718	5.867832
2440.715404	6.190210
2442.223546	3.960140
2443.731409	5.119580
2445.238995	5.633566
2446.743040	5.994406
2448.250071	6.816084
2449.755193	7.165734
2451.260038	7.084615
2452.762976	5.970629
2454.265637	5.860839
2455.768022	5.641958
2457.268502	5.578322
2458.770335	7.493706
2460.270264	5.957343
2461.769917	5.567133
2463.269295	5.387413
2464.766769	5.751049
2466.262343	6.483217
2467.760896	7.199301
2469.255920	7.796503
2470.752298	6.274825
2472.245149	6.339860
2473.739352	7.078322
2475.233282	8.449650
2476.723689	9.197203
2478.217072	7.518182
2479.708558	7.157343
2481.198147	7.325175
2482.687464	9.560140
2484.174886	11.144056
2485.665283	10.781119
2487.152161	12.018881
2488.640391	11.734965
2490.125105	12.749650
2491.609548	13.411888
2493.095343	13.475524
2494.579245	12.895105
2496.064499	9.543357
2497.544619	8.581119
2499.027711	5.583916
2500.508913	6.839860
2501.989846	4.900699
2503.468890	4.300699
2504.947666	4.569231
2506.426172	6.755944
2507.904411	8.816084
2509.382381	11.271329
2510.856847	10.865734
2512.334281	9.730070
2513.808212	6.741259
2515.283494	6.065734
2516.758508	6.065734
2518.230021	5.581818
2519.702885	2.988112
2521.173865	3.870629
2522.646196	4.953846
2524.113414	8.490909
2525.583597	9.696503
2527.051900	9.697902
2528.519938	7.238462
2529.987711	7.997902
2531.455219	5.934266
2532.922462	7.840559
2534.386213	8.240559
2535.851315	6.603497
2537.314538	5.525874
2538.779112	6.719580
2540.240196	7.541259
2541.702630	8.067133
2543.164801	8.165035
2544.623486	7.616084
2546.086743	6.091608
2547.544903	8.675524
2549.004412	7.865035
2550.458828	10.811189
2551.917813	8.979021
2553.374927	10.737762
2554.830170	9.702797
2556.285152	10.080420
2557.738264	8.053147
2559.192725	7.377622
2560.645317	5.559441
2562.097649	4.823077
2563.548113	3.181119
2565.001533	4.252448
2566.449871	3.248951
2567.901165	4.775524
2569.350592	4.968531
2570.796548	8.407692
2572.245458	7.855944
2573.690897	8.524476
2575.137685	7.818182
2576.582609	9.213287
2578.027276	10.479720
2579.473290	12.325874
2580.915837	10.459441
2582.359732	11.355944
2583.800162	7.874825
2585.241940	8.745455
2586.681857	7.872727
2588.123122	6.955944
2589.560926	4.337063
2591.001679	3.737762
2592.437369	3.474126
2593.876009	5.199301
2595.312792	6.710490
2596.747718	6.964336
2598.185593	6.741259
2599.618410	7.790210
2601.052573	6.595105
2602.484883	8.662238
2603.918539	7.299301
2605.350342	7.379720
2606.781892	5.777622
2608.213188	3.550350
2609.642633	2.741958
2611.071825	3.295105
2612.499166	4.783916
2613.927854	5.186713
2615.356289	5.102098
2616.781277	7.743357
2618.207612	9.118881
2619.632098	9.188811
2621.057930	9.449650
2622.480318	9.351748
2623.904052	7.067133
2625.325940	3.459441
2626.747577	4.867133
2628.167369	6.265035
2629.588507	7.730070
2631.009395	8.184615
2632.426845	9.919580
2633.847234	12.874825
2635.264186	13.865035
2636.680890	10.111888
2638.097345	17.724476
2639.513552	21.511189
2640.929510	25.034266
2642.343628	27.577622
2643.757499	30.807692
2645.169530	30.879720
2646.582906	28.865035
2647.992852	25.780420
2649.405733	21.176224
2650.815187	15.745455
2652.224394	11.698601
2653.631765	5.834266
2655.042070	11.765734
2656.450539	11.669930
2657.857173	14.667133
2659.263562	17.939161
2660.668117	18.618182
2662.074016	19.622378
2663.478082	20.494406
2664.881904	18.522378
2666.285481	18.409790
2667.687226	17.941958
2669.090315	17.420979
2670.489987	17.092308
2671.891001	18.324476
2673.288600	19.409790
2674.689129	18.431469
2676.086243	17.663636
2677.484700	16.267133
2678.881329	16.251049
2680.277716	15.609091
2681.673862	14.679021
2683.068181	14.401399
2684.463843	13.122378
2685.856095	13.581818
2687.249691	14.360140
2688.641462	15.560839
2690.034575	15.600000
2691.425865	14.065035
2692.815332	14.209790
2694.204560	14.225874
2695.593547	14.334965
2696.983877	14.066434
2698.369222	14.118881
2699.757491	12.608392
2701.143940	10.646154
2702.530150	10.626573
2703.916122	8.942657
2705.298695	6.482517
2706.682609	6.371329
2708.066286	6.855245
2709.449725	8.755245
2710.829768	8.413287
2712.211153	10.920979
2713.590722	11.980420
2714.971633	11.131469
2716.350729	11.130070
2717.728010	9.046853
2719.106633	10.374825
2720.483443	10.482517
2721.860017	9.143357
2723.236355	11.246154
2724.610881	10.183217
2725.986748	8.730070
2727.359228	6.567832
2728.734625	9.227273
2730.105060	7.416783
2731.476837	4.989510
2732.848380	3.456643
2734.218114	2.749650
2735.589188	4.739161
2736.958455	6.305594
2738.327488	4.013986
2739.694714	4.619580
2741.061708	2.547552
2742.428469	1.348252
2743.794997	1.472028
2745.159720	3.410490
2746.524212	2.668531
2747.888471	1.379720
2749.252499	2.402098
2750.616294	4.366434
2751.976716	5.375524
2753.340049	6.232168
2754.698439	4.558741
2756.059739	4.965734
2757.417668	6.084615
2758.778507	5.062238
2760.137545	2.347552
2761.493215	0.712587
2762.851793	2.725175
2764.207005	3.004196
2765.561987	4.947552
2766.915172	7.187413
2768.271264	9.490210
2769.623992	11.305594
2770.976491	12.263636
2772.328762	12.906294
2773.682372	12.836364
2775.032620	11.040559
2776.381075	8.736364
2777.732434	7.744056
2779.080434	9.294406
2780.429773	8.634965
2781.777319	7.396503
2783.124638	8.246853
2784.471731	7.565035
2785.817033	6.655944
2787.162109	6.390210
2788.506959	8.462937
2789.851582	7.602098
2791.192854	8.446154
2792.535464	9.651049
2793.877848	8.908392
2795.220008	8.837063
2796.558818	10.304196
2797.900527	8.248951
2799.238889	7.247552
2800.578588	4.937063
2801.916501	3.711189
2803.252630	4.681119
2804.588536	6.760140
2805.925778	7.595804
2807.261237	7.250350
2808.596473	9.335664
2809.929927	9.018881
2811.264717	10.145455
2812.596166	10.128671
2813.930511	9.091608
2815.259958	8.427273
2816.590742	6.153846
2817.921304	6.443357
2819.250087	8.223776
2820.580207	6.664336
2821.908547	7.686713
2823.236667	6.262937
2824.563010	7.787413
2825.890688	9.278322
2827.215034	8.446154
2828.540715	8.599301
2829.864621	7.822378
2831.188308	7.990909
2832.513330	7.520979
2833.835023	9.298601
2835.156496	9.605594
2836.477751	8.545455
2837.798787	8.991608
2839.118051	8.694406
2840.438650	8.409091
2841.757477	8.304895
2843.076086	4.743357
2844.392925	4.863636
2845.709546	1.873427
2847.025949	2.571329
2848.340584	3.019580
2849.656553	3.474126
2850.969202	3.618881
2852.283187	5.422378
2853.596955	3.876224
2854.910506	4.261538
2856.222290	2.031469
2857.532309	1.375524
2858.843661	-0.941958
2860.151699	-1.792308
2861.461072	-2.569930
2862.770229	-1.256643
2864.079171	0.261538
2865.386350	2.919580
2866.691765	4.341259
2867.998515	7.813287
2869.303502	7.544056
2870.608276	9.469930
2871.911288	8.904196
2873.217182	8.904895
2874.518220	6.955245
2875.820593	8.674126
2877.121206	8.205594
2878.423153	7.493007
2879.724887	6.634266
2881.023317	8.211189
2882.323080	5.937063
2883.621085	7.093007
2884.918879	6.190210
2886.214917	7.327273
2887.512288	7.279720
2888.807903	7.627972
2890.103307	6.495804
2891.398501	8.418182
2892.690396	6.976224
2893.985168	8.465734
2895.276643	8.641958
2896.569452	9.595105
2897.862049	8.860140
2899.151353	10.777622
2900.441989	12.087413
2901.730874	12.223776
2903.021092	10.578322
2904.308018	9.186713
2905.596276	5.613287
2906.882784	5.954545
2908.169085	5.103497
2909.455177	5.450350
2910.739521	3.864336
2912.026737	3.661538
2913.309126	4.367133
2914.592846	6.770629
2915.874821	8.145455
2917.156589	7.490909
2918.436611	7.888112
2919.719503	8.544056
2921.000650	8.122378
2922.278515	8.105594
2923.559249	8.262238
2924.836702	8.832867
2926.113950	7.004895
2927.389455	6.980420
2928.667828	7.232867
2929.941386	7.423776
2931.217812	5.752448
2932.492497	7.071329
2933.765442	8.654545
2935.039717	8.991608
2936.312253	9.074126
2937.584585	10.039860
2938.853644	12.039161
2940.125567	9.823776
2941.395753	7.106294
2942.665736	7.837762
2943.935515	5.919580
2945.203557	4.245455
2946.469864	2.098601
2947.735968	4.243357
2949.003402	4.247552
2950.269102	4.533566
2951.534599	4.858741
2952.799894	5.987413
2954.061924	4.733566
2955.325285	2.765734
2956.588444	3.504196
2957.849870	4.613287
2959.112626	3.245455
2960.373651	2.755944
2961.632945	1.280420
2962.892038	2.394406
2964.150931	1.916783
2965.409624	1.982517
2966.668117	2.593706
2967.924881	3.395804
2969.181445	2.071329
2970.436282	1.467133
2971.692448	1.197203
2972.945358	0.255245
2974.199598	-0.022378
2975.453639	-0.874825
2976.705954	-0.967832
2977.958071	0.320280
2979.208463	1.051049
2980.461710	2.773427
2981.710180	4.795105
2982.961504	5.393706
2984.209580	4.861538
2985.457458	3.265734
2986.705139	4.448252
2987.952624	3.616783
2989.198387	3.920979
2990.443953	3.898601
2991.690848	4.217483
2992.934497	3.781818
2994.179475	3.432168
2995.421210	2.477622
2996.665796	2.176224
2997.908662	2.483217
2999.148288	1.648252
3000.390765	0.992308
3001.630001	2.228671
3002.870565	0.771329
3004.109412	1.839161
3005.348065	3.011189
3006.585002	4.083217
3007.823266	5.181818
3009.059816	5.268531
3010.296171	3.707692
3011.532333	2.427273
3012.766782	2.158741
3014.001037	0.283217
3015.235099	0.205594
3016.467449	-0.728671
3017.698087	-1.355245
3018.931571	0.018182
3020.163343	1.922378
3021.393405	3.732867
3022.623275	6.153846
3023.851435	6.095804
3025.080921	5.396503
3026.308699	4.091608
3027.536285	4.512587
3028.765197	3.355944
3029.989367	4.837762
3031.216380	2.991608
3032.440170	2.284615
3033.665285	2.775524
3034.888694	1.725874
3036.111914	1.037063
3037.333428	2.069231
3038.557783	2.232168
3039.777403	2.294406
3040.998348	2.777622
3042.219105	4.281818
3043.438158	3.482517
3044.658537	3.083217
3045.875699	-0.286014
3047.094186	-1.087413
3048.310972	-0.993706
3049.527569	-2.930070
3050.743979	-3.557343
3051.957175	-2.962937
3053.173209	-3.732867
3054.386031	-3.559441
3055.601690	-1.691608
3056.812626	0.968531
3058.024887	0.623776
3059.236962	2.234965
3060.448850	2.051748
3061.659040	3.910490
3062.869045	4.519231
3064.078863	2.924476
3065.286985	-0.859790
3066.494921	-3.041958
3067.701163	-6.261888
3068.908728	-7.960140
3070.114600	-6.652098
3071.320286	-3.775524
3072.525787	-4.112937
3073.729596	0.060839
3074.934728	1.345804
3076.138167	4.651049
3077.339914	5.626923
3078.541478	4.942657
3079.742858	1.807692
3080.944054	0.851049
3082.143560	-0.872028
3083.342882	0.323776
3084.543528	2.269231
3085.742485	3.083217
3086.938246	3.173427
3088.136837	6.595804
3089.332234	7.606993
3090.528954	9.170629
3091.722482	7.476923
3092.918839	5.044056
3094.113508	1.944755
3095.304987	-0.629371
3096.500797	-2.041259
3097.691914	-1.562937
3098.884353	-3.104196
3100.073605	-4.178322
3101.265683	-5.217483
3102.456076	-2.562238
3103.643284	-0.651049
3104.831815	-0.120979
3106.021668	-0.199301
3107.208336	1.083916
3108.394825	2.970629
3109.581134	2.742657
3110.768765	1.893007
3111.953215	1.965035
3113.135984	0.239161
3114.321577	-0.635664
3115.505489	-2.946853
3116.687723	-0.648951
3117.869779	-0.993706
3119.051656	-1.115385
3120.233355	0.176224
3121.413376	1.146853
3122.591721	1.821678
3123.772887	1.783217
3124.950877	1.762238
3126.128690	3.234965
3127.306326	3.709790
3128.482287	4.245455
3129.658072	3.023077
3130.835177	2.111888
3132.010608	0.467133
3133.184366	-0.513986
3134.356452	-1.376224
3135.529858	-1.210490
3136.703089	-2.523077
3137.874647	-2.841958
3139.047527	-3.190909
3140.217239	-0.478322
3141.388272	1.879021
3142.557634	2.857343
3143.725327	1.372727
3144.895835	-0.024476
3146.061684	-1.781119
3147.231843	-2.809091
3148.397344	-4.431469
3149.562672	-3.321678
3150.727826	-5.136364
3151.892806	-5.466434
3153.059107	-3.095105
3154.220754	1.481818
3155.383722	2.054545
3156.546516	2.895804
3157.709138	1.201399
3158.870095	1.218182
3160.030879	-0.908392
3161.191491	-2.000699
3162.350440	-2.737063
3163.509216	-2.261538
3164.667821	-2.839860
3165.826254	0.806993
3166.984515	3.756643
3168.141114	6.336364
3169.296052	5.509091
3170.452309	4.844755
3171.606906	4.447552
3172.761331	4.813986
3173.914097	2.546154
3175.066693	1.388112
3176.219118	0.225874
3177.371374	-2.107692
3178.523460	-1.207692
3179.672399	-0.920280
3180.824145	-2.153846
3181.974234	-1.506993
3183.122665	-2.237762
3184.270928	-3.015385
3185.419021	-1.347552
3186.566946	-1.174126
3187.713216	-0.811888
3188.859317	1.087413
3190.003763	3.713986
3191.148042	4.317483
3192.292153	5.133566
3193.437582	4.135664
3194.579872	4.518182
3195.721994	4.723077
3196.863950	4.450350
3198.005738	3.952448
3199.147359	2.746853
3200.285844	-0.941958
3201.425647	-0.711888
3202.566768	-0.810490
3203.704754	0.955944
3204.841091	-0.919580
3205.977262	-1.997902
3207.114751	-1.170629
3208.250591	-2.358741
3209.387747	-3.681119
3210.520291	-4.490210
3211.657117	-6.441259
3212.789331	-8.986014
3213.922863	-10.453147
3215.056229	-6.430070
3216.186468	-4.839860
3217.319505	-1.599301
3218.449416	-1.125175
3219.580644	-0.097902
3220.708746	1.911189
3221.839645	0.079021
3222.968901	0.280420
3224.096512	0.789510
3225.221002	0.048252
3226.349767	-1.165734
3227.475410	-1.997902
3228.600890	-1.045455
3229.724729	-2.863636
3230.851362	-3.677622
3231.973398	-4.741958
3233.096750	-4.583916
3234.219940	-4.789510
3235.342968	-4.730070
3236.464356	-2.889510
3237.585583	-0.259441
3238.705171	-0.434266
3239.824598	-0.009091
3240.942387	0.074825
3242.062969	0.156643
3243.180436	-0.068531
3244.297744	1.386014
3245.414890	0.858741
3246.530401	0.662238
3247.647227	-1.586713
3248.760942	-1.711189
3249.877448	-3.327273
3250.992318	-3.860839
3252.104080	-4.299301
3253.215683	-3.488811
3254.328600	-5.658741
3255.441359	-5.776923
3256.551011	-4.248951
3257.661978	-1.635664
3258.772786	-1.994406
3259.881962	-1.373427
3260.989507	1.424476
3262.098367	5.315385
3263.207068	8.320979
3264.312667	10.117483
3265.419581	10.823776
3266.524865	9.292308
3267.631463	7.448252
3268.734961	4.994406
3269.839773	4.324476
3270.944428	1.573427
3272.045984	-3.304196
3273.147385	-6.997203
3274.250099	-6.095804
3275.352656	-4.873427
3276.452118	-4.602098
3277.554362	-5.455944
3278.653512	-6.245455
3279.751036	-7.109091
3280.848405	-5.913986
3281.948557	-5.952448
3283.045615	-2.881818
3284.142518	-3.446853
3285.239267	-2.939860
3286.331456	-2.932867
3287.427895	-1.466434
3288.522711	-1.758042
3289.617372	-3.616084
3290.710412	-3.770629
3291.803298	-5.034266
3292.894563	-6.260839
3293.987141	-4.699301
3295.078098	-3.422378
3296.167437	-0.536364
3297.256621	0.493007
3298.347119	2.609091
3299.434532	2.509790
3300.521793	1.841259
3301.610366	0.426573
3302.698786	0.920280
3303.782659	-1.741259
3304.870774	-3.934965
3305.955808	-4.539860
3307.039226	-4.825874
3308.123955	-5.905594
3309.207070	-6.058741
3310.291496	-5.862937
3311.372844	-4.864336
3312.455504	-5.016084
3313.536550	-3.642657
3314.617445	-0.763636
3315.696727	0.125175
3316.775858	-1.358741
3317.856300	-0.286713
3318.933669	-0.434965
3320.012349	-1.316084
3321.089417	-3.155245
3322.166335	-3.162937
3323.241642	-3.912587
3324.316800	-5.184615
3325.393270	-6.702098
3326.466668	-6.589510
3327.539918	-5.309091
3328.614479	-5.583916
3329.687430	-5.820280
3330.758774	-5.932168
3331.831428	-5.155944
3332.901015	-5.913287
3333.971913	-5.530070
3335.041204	-5.372727
3336.111806	-7.102098
3337.180801	-6.168531
3338.248190	-5.543357
3339.313974	-5.897902
3340.383984	-3.111189
3341.450931	-3.440559
3342.514816	-2.745455
3343.581469	-1.561538
3344.646517	-1.280420
3345.709963	-2.031469
3346.773261	-2.538462
3347.836414	-4.646154
3348.899420	-4.959441
3349.962279	-3.741259
3351.023537	-3.588112
3352.081738	-5.083217
3353.144160	-4.327972
3354.203525	-4.288811
3355.262745	-1.764336
3356.323275	-1.395105
3357.379295	0.246154
3358.438080	0.832168
3359.492357	-2.158741
3360.549397	-1.291608
3361.604840	-2.484615
3362.661591	-1.510490
3363.716745	-2.077622
3364.770301	-1.873427
3365.822260	-2.416084
3366.876981	-1.944056
3367.928653	-3.398601
3368.980182	-5.018881
3370.033020	-5.423776
3371.082810	-8.202098
3372.133908	-12.355245
3373.181961	-8.521678
3374.232774	-9.053147
3375.280541	-6.437063
3376.328166	-4.156643
3377.375649	-2.594406
3378.421538	-1.353147
3379.468736	-0.727273
3380.512892	-2.678322
3381.559806	-3.543357
3382.605128	-6.411888
3383.647410	-6.860839
3384.689550	-8.001399
3385.732998	-5.911189
3386.776306	-7.799301
3387.818023	-7.622378
3388.859599	-6.285315
3389.901035	-6.111189
3390.940881	-3.871329
3391.979140	-3.076923
3393.018706	-3.168531
3394.058131	-2.281818
3395.095970	-2.159441
3396.132221	-1.237762
3397.168332	-2.683916
3398.205751	-5.003497
3399.240137	-9.589510
3400.275830	-11.597203
3401.311384	-13.016084
3402.343907	-12.409790
3403.379183	-13.658042
3404.411428	-11.958042
3405.443535	-10.808392
3406.474058	-8.888811
3407.505889	-7.044755
3408.537580	-7.783217
3409.566245	-7.783916
3410.594771	-8.054545
3411.624605	-8.054545
3412.654300	-5.563636
3413.680970	-4.936364
3414.708947	-3.370629
3415.733899	-3.659441
3416.761601	-1.694406
3417.786280	-1.293007
3418.812265	-0.642657
3419.836670	0.627972
3420.860939	0.144755
3421.883629	-1.548252
3422.906183	-1.072727
3423.930043	-0.603497
3424.950883	-2.084615
3425.971588	-4.931768
3426.993598	-7.389935
3428.012590	-8.870130
3429.031447	-8.783367
3430.051609	-6.540659
3431.068755	-1.553022
