-118.448435	-10.041758
-115.778835	-4.421978
-113.112170	-0.481918
-110.446257	2.049750
-107.783276	3.444356
-105.118866	3.973227
-102.457386	3.907692
-99.794476	3.520280
-97.136674	5.441259
-94.477441	5.102797
-91.818958	4.802797
-89.163398	3.658042
-86.506410	3.867133
-83.854519	4.132168
-81.201199	2.900699
-78.550799	1.397902
-75.898969	3.664336
-73.252230	4.177622
-70.604061	2.801399
-67.956636	2.450350
-65.312124	3.796503
-62.666184	3.183217
-60.025325	0.680420
-57.383037	-0.016084
-54.743657	-0.388811
-52.102849	-1.469930
-49.462781	-1.249650
-46.827785	-4.309790
-44.191360	-1.441259
-41.557839	-2.533566
-38.922889	-2.481818
-36.293004	-3.918881
-33.659527	-1.425175
-31.031112	-2.020280
-28.403430	0.332168
-25.774321	-1.925874
-23.150268	-22.073427
-20.522626	-89.806993
-17.900037	-181.122378
-15.278180	-96.003497
-12.657053	331.143357
-10.036656	923.638462
-7.419147	1402.958741
-4.800210	1722.660839
-2.184159	1883.926573
0.431164	1882.230070
3.045760	1719.626573
5.657473	1403.082517
8.270615	946.918881
10.878723	400.981818
13.490413	-79.200699
16.097072	-262.659441
18.705159	-152.675524
21.312522	-13.860140
23.914860	6.951748
26.520776	9.106993
29.121670	9.060839
31.723992	3.925175
34.321297	0.746853
36.922177	1.970629
39.518043	2.620280
42.115336	0.677622
44.711910	2.330769
47.303475	2.133566
49.896468	4.995804
52.486600	5.340559
55.078160	5.765035
57.666860	3.925175
60.256987	4.722378
62.842116	-0.135664
65.428671	2.361538
68.014513	4.955944
70.597501	6.304196
73.181915	5.100699
75.759201	7.812587
78.340053	7.321678
80.918056	8.643357
83.495349	4.882517
86.074068	5.803497
88.647806	2.761538
91.222970	3.304196
93.795291	0.160839
96.366904	3.476923
98.935677	6.088112
101.505877	6.901399
104.073239	4.806294
106.642026	8.946154
109.207977	8.023077
111.771093	8.116783
114.337765	6.724476
116.895216	7.636364
119.458352	8.695804
122.016529	11.830769
124.578259	19.301399
127.135034	36.568531
129.693234	59.793007
132.246482	87.613287
134.799031	116.187413
137.355131	151.612587
139.906284	183.031469
142.456738	215.066434
145.006496	239.190210
147.553434	258.186713
150.099676	270.005594
152.647344	277.961538
155.194317	277.851748
157.736353	282.744755
160.277696	282.300699
162.818346	281.031469
165.360422	273.951748
167.899687	272.397203
170.436142	270.268531
172.971907	268.421678
175.509097	266.491608
178.045595	264.511888
180.579288	260.535664
183.110178	261.851748
185.640379	258.322378
188.172005	260.760839
190.700830	259.374825
193.226856	263.286713
195.752197	262.169930
198.278962	266.189510
200.802930	267.719580
203.326214	270.759441
205.848813	271.737063
208.368619	270.712587
210.887742	269.528671
213.406182	267.206294
215.926046	263.415385
218.438909	261.402098
220.955303	259.093007
223.471015	264.702098
225.981838	262.384615
228.494085	265.939860
231.003549	267.081119
233.512335	272.612587
236.020443	274.165035
238.529974	277.168531
241.034625	281.303497
243.538601	282.474126
246.044000	282.115385
248.544524	285.842657
251.048571	287.806993
253.545648	293.206294
256.046247	287.938462
258.544075	290.402098
261.041230	289.223776
263.537712	291.689510
266.029331	289.923776
268.524470	287.505594
271.016843	284.650350
273.508545	282.209091
275.997483	277.564336
278.487846	279.618182
280.975447	280.174825
283.460288	282.757343
285.948643	284.553147
288.430059	289.699301
290.914989	294.294406
293.395074	298.831469
295.878671	302.562937
298.357425	303.412587
300.837603	303.616084
303.315028	305.502797
305.791790	308.637063
308.267889	321.661538
310.741239	338.373427
313.213927	360.014685
315.685954	379.055944
318.157320	391.903497
320.625942	399.326573
323.093904	399.214685
325.563289	394.255245
328.027850	381.620979
330.495916	363.237063
332.959162	345.232168
335.421750	330.089510
337.883682	325.384615
340.344957	320.576224
342.803498	320.794406
345.263461	323.041259
347.720691	319.593007
350.177267	321.309091
352.633189	323.651049
355.086382	322.934965
357.540996	323.871329
359.990809	322.142657
362.444119	320.969930
364.892629	319.383217
367.340489	324.075524
369.789770	322.143357
372.234258	326.840559
374.680168	329.951748
377.125429	330.870629
379.567970	334.478322
382.009864	333.933566
384.451111	331.806294
386.889642	331.313986
389.329595	328.104196
391.766834	324.597902
394.201361	323.300000
396.639376	325.051748
399.072614	321.488112
401.507274	323.752448
403.937160	322.143357
406.370532	323.710490
408.799134	322.300699
411.227095	322.479720
413.656476	323.464336
416.081092	326.181818
418.507130	327.213287
420.932527	328.559441
423.357284	329.632867
425.777283	330.360839
428.198703	328.921678
430.617426	327.986014
433.037570	324.669231
435.455019	326.848951
437.873888	326.865035
440.290064	329.950350
442.701493	331.143357
445.116398	330.910490
447.528613	327.753147
449.940194	329.713986
452.351141	325.055944
454.759402	325.315385
457.167030	323.594406
459.574027	323.349650
461.980391	321.302797
464.384073	321.603497
466.787125	316.346154
469.189547	318.725874
471.591340	314.497902
473.990454	310.344056
476.390988	309.013986
478.790893	310.147552
481.186075	309.582517
483.584724	314.666434
485.978653	312.816783
488.371956	310.264336
490.764633	304.630769
493.156685	295.513287
495.550156	284.172028
497.938914	275.779720
500.325006	258.340559
502.712518	246.374825
505.099406	233.809091
507.483631	226.938462
509.869275	222.783217
512.252256	216.689510
514.632577	207.165734
517.014317	203.581119
519.393398	201.020979
521.773898	194.308392
524.151740	190.366434
526.526927	186.326573
528.901496	180.006294
531.277484	179.781119
533.650818	178.046154
536.025570	180.216084
538.395637	177.367832
540.765088	176.897203
543.135957	175.422378
545.502146	174.169231
547.869753	171.336364
550.234714	169.175524
552.599062	168.748252
554.962798	168.255944
557.327951	169.034266
559.688431	171.555944
562.050330	171.161538
564.409589	170.504196
566.766209	162.787413
569.126274	162.371329
571.479649	156.765734
573.836468	152.679720
576.190651	153.881119
578.544227	155.886014
580.897194	152.920979
583.247530	157.550350
585.599282	158.567832
587.944358	158.555245
590.294898	156.925874
592.638765	155.141958
594.988092	147.697902
597.332772	148.092308
599.674826	144.016084
602.018298	146.669231
604.359147	149.909790
606.699394	152.298601
609.037020	150.472028
611.378081	153.490210
613.714504	149.166434
616.052345	148.718881
618.387567	149.605594
620.720174	149.159441
623.054197	147.406294
625.385607	145.544056
627.716418	141.627972
630.046631	140.419580
632.376246	137.606993
634.701239	135.508392
637.031673	129.193007
639.357485	127.856643
641.680691	123.857343
644.005312	125.358741
646.327329	127.646853
648.648751	129.253147
650.967570	128.172727
653.287805	125.017483
655.607447	123.071329
657.924488	122.055944
660.240937	120.513986
662.554788	122.544056
664.870055	122.588811
667.182725	125.958741
669.496810	121.130070
671.806295	122.471329
674.117196	121.791608
676.425504	119.883916
678.733224	115.469231
681.042359	114.624476
683.346901	113.723776
685.650856	113.327972
687.954226	114.390909
690.259010	119.990909
692.559208	122.379021
694.860820	124.416084
697.161848	119.376923
699.458293	119.067133
701.756154	116.340559
704.053431	115.773427
706.350125	112.906993
708.642243	112.985315
710.937772	110.725175
713.228728	109.932867
715.521098	111.393706
717.810892	117.777622
720.100107	118.256643
722.388741	120.352448
724.674804	119.054545
726.962280	117.379021
729.247186	118.843357
731.531513	119.295804
733.813272	118.600000
736.096445	119.896503
738.379041	121.230070
740.657082	121.425175
742.936536	122.318881
745.215415	127.183217
747.493718	125.755944
749.767472	128.695105
752.042640	125.049650
754.317234	124.755944
756.589268	126.152448
758.862716	125.805594
761.133606	128.302098
763.401940	128.108392
765.671687	130.039860
767.938880	128.434266
770.205502	126.197203
772.471555	127.522378
774.735055	127.473427
776.999969	127.706993
779.264313	126.726573
781.524128	130.883217
783.785356	132.448252
786.046015	137.352448
788.304129	136.091608
790.559698	134.716084
792.818658	133.442657
795.071119	132.020280
797.328947	127.166434
799.582255	130.801399
801.833024	129.054545
804.085205	126.850350
806.334848	127.667832
808.585902	126.595105
810.832445	126.372028
813.080400	126.522378
815.325821	119.475524
817.572653	118.213287
819.818924	115.874126
822.060691	116.037762
824.305840	113.483217
826.544517	116.694406
828.786577	113.681818
831.024138	115.125874
833.263110	117.404895
835.499556	115.504196
837.737413	115.567133
839.972745	115.223077
842.205554	111.188811
844.439774	110.269930
846.671472	108.340559
848.902615	105.772727
851.133203	102.254545
853.363236	99.307692
855.592716	100.671329
857.817714	102.637063
860.046087	103.572727
862.269981	104.825175
864.495285	104.353846
866.716114	106.755944
868.940315	105.916084
871.160043	106.567832
873.381182	106.560140
875.601770	105.137762
877.819848	105.489510
880.039337	108.606294
882.254359	110.564336
884.468833	112.227972
886.682760	110.148252
888.896139	110.556643
891.108971	105.524476
893.321257	107.390909
895.531040	106.376923
897.740278	106.684615
899.948971	106.744755
902.155165	107.300000
904.362768	106.704895
906.567874	109.399301
908.772436	106.123077
910.974502	104.615385
913.177978	99.032168
915.378960	99.033566
917.579401	97.532168
919.781249	102.008392
921.976707	102.481818
924.175524	108.644056
926.369902	110.574126
928.567638	112.730070
930.760938	112.835664
932.955647	117.476923
935.147870	119.363636
937.339555	121.540559
939.530702	119.999301
941.719366	119.568531
943.907493	116.327273
946.093140	115.374126
948.282139	113.523776
950.466715	118.198601
952.650756	116.549650
954.838147	118.023776
957.017234	122.744056
959.199672	129.783217
961.381576	135.174825
963.561006	136.794406
965.737963	135.083916
967.916327	133.924476
970.096099	130.390210
972.269522	132.951049
974.446291	132.104895
976.618653	135.414685
978.792423	135.479021
980.961789	140.066434
983.134500	145.093007
985.304744	147.398601
987.474460	148.900699
989.643647	148.865035
991.808437	148.328671
993.976568	149.854545
996.140305	152.140559
998.305448	154.966434
1000.468133	155.079720
1002.630291	159.232867
1004.789993	161.593706
1006.949171	167.848951
1009.109755	169.210490
1011.267884	170.236364
1013.425489	171.127972
1015.582571	169.608392
1017.739130	167.879021
1019.891309	170.897902
1022.044894	172.739161
1024.197958	172.035664
1026.348574	174.202797
1028.500595	179.011888
1030.648243	182.526573
1032.799223	187.602098
1034.945832	190.068531
1037.091923	190.190210
1039.237494	190.238462
1041.384471	192.818182
1043.525159	194.548951
1045.669177	195.703497
1047.810754	194.558741
1049.951815	195.640559
1052.094280	197.654545
1054.230466	200.283916
1056.369978	198.951748
1058.505134	198.965734
1060.643615	199.846154
1062.777742	200.267832
1064.911356	200.139860
1067.046375	200.077622
1069.177044	197.443357
1071.309118	193.030769
1073.438763	188.494406
1075.567896	188.616783
1077.696517	184.154545
1079.824627	183.604895
1081.950311	178.176224
1084.075485	178.059441
1086.202063	181.231469
1088.324304	182.977622
1090.447948	182.165035
1092.567259	182.058042
1094.691798	179.502098
1096.810092	174.511189
1098.929791	169.730769
1101.047071	168.333566
1103.163845	164.309091
1105.280112	165.532168
1107.393964	159.080420
1109.509219	163.082517
1111.620152	163.524476
1113.734396	163.614685
1115.844320	163.337063
1117.955648	160.868531
1120.066471	156.106993
1122.172979	150.513287
1124.282795	147.558042
1126.388297	145.907692
1128.495202	144.785315
1130.595892	143.241958
1132.701794	140.865035
1134.803387	143.109091
1136.906383	139.241958
1139.008878	139.015385
1141.105166	139.210490
1143.206662	139.611888
1145.303855	138.708392
1147.400549	139.733566
1149.496745	141.913287
1151.592444	143.983217
1153.687645	144.346154
1155.780449	143.945455
1157.874655	145.104895
1159.962670	143.695105
1162.055883	142.091608
1164.142908	145.415385
1166.233232	147.852448
1168.319269	148.376224
1170.408603	146.241259
1172.491756	147.297203
1174.576311	144.255944
1176.662268	141.011189
1178.743943	136.934266
1180.827020	133.235664
1182.907711	129.262238
1184.987910	128.362937
1187.067618	128.917483
1189.146835	132.157343
1191.223670	133.047552
1193.298124	135.132867
1195.375870	135.916084
1197.449345	137.652448
1199.524221	134.070629
1201.594830	135.461538
1203.666841	132.772727
1205.736475	130.816084
1207.807510	129.078322
1209.878057	130.373427
1211.944343	128.937063
1214.012030	128.706993
1216.077345	126.520280
1218.144060	129.972028
1220.206519	127.858042
1222.272263	125.534965
1224.333754	123.120280
1226.396644	123.713986
1228.457167	119.805594
1230.517206	120.266434
1232.576763	119.892308
1234.633954	121.665734
1236.690664	119.405594
1238.745011	117.998601
1240.802638	116.860140
1242.857903	122.926573
1244.908927	122.058741
1246.961351	125.787413
1249.013295	128.578322
1251.062881	133.637762
1253.111988	133.939161
1255.160617	135.204895
1257.208767	139.534266
1259.256439	143.630070
1261.299880	139.775524
1263.346596	140.419580
1265.390959	138.659441
1267.434846	139.200699
1269.476382	137.611888
1271.515567	137.997203
1273.558026	136.872727
1275.596262	139.063636
1277.635897	135.995804
1279.675057	139.013986
1281.709998	144.551049
1283.746339	150.868531
1285.780334	152.039860
1287.815728	158.739161
1289.846908	159.140559
1291.879487	163.595804
1293.911593	166.838462
1295.941359	172.216783
1297.972523	175.648951
1299.999479	178.974825
1302.027833	180.274825
1304.051983	184.946853
1306.079397	189.933566
1308.102609	194.758042
1310.127219	197.390909
1312.149495	204.920280
1314.173168	209.165035
1316.194508	216.483217
1318.215380	224.860140
1320.235786	233.538462
1322.251997	241.286014
1324.269606	247.960839
1326.284888	255.604196
1328.303427	265.102098
1330.317778	272.479720
1332.329803	278.395105
1334.345085	281.837762
1336.356182	285.333566
1338.368676	282.564336
1340.376987	281.557343
1342.388554	279.434266
1344.394081	274.225874
1346.402864	270.770629
1348.407469	264.860140
1350.415328	259.980420
1352.422725	254.051049
1354.424091	247.310490
1356.426854	238.679021
1358.429156	228.790909
1360.430999	218.724476
1362.432382	207.702797
1364.431452	198.406993
1366.430063	186.123776
1368.428216	176.906294
1370.425911	168.379720
1372.419442	161.758741
1374.414370	156.258042
1376.408841	154.662238
1378.402855	151.880420
1380.394561	150.056643
1382.385813	150.684615
1384.374759	150.969930
1386.365100	148.631469
1388.354986	145.876923
1390.342569	140.819580
1392.329697	138.293007
1394.314525	135.830769
1396.300746	133.579720
1398.284668	129.376923
1400.268137	128.837063
1402.251154	126.038462
1404.231872	127.083916
1406.213986	127.793706
1408.193802	129.129371
1410.173168	126.958042
1412.148394	129.420280
1414.126860	127.229371
1416.103031	125.927273
1418.078754	127.219580
1420.054027	128.004196
1422.027009	124.684615
1423.999543	123.956643
1425.971630	125.249650
1427.943268	126.927273
1429.910778	127.624476
1431.883363	127.583916
1433.848141	125.980420
1435.817991	124.506294
1437.783718	122.202098
1439.750837	121.350350
1441.715673	122.369930
1443.676390	124.900000
1445.642174	121.291608
1447.602003	121.948951
1449.563225	123.890210
1451.525840	124.307692
1453.484340	125.505594
1455.442398	125.121678
1457.400013	121.846154
1459.357187	119.181818
1461.312085	119.520280
1463.268375	116.655944
1465.222391	115.369231
1467.175967	115.846154
1469.127270	112.050350
1471.079965	111.834266
1473.030389	112.135664
1474.980373	113.173427
1476.929919	115.723776
1478.877196	118.456643
1480.822206	120.666434
1482.768607	123.385315
1484.714572	124.241958
1486.660098	124.524476
1488.603360	125.133566
1490.546185	124.893706
1492.486747	122.137762
1494.428700	122.374126
1496.368392	121.502797
1498.307648	121.872028
1500.246469	121.108392
1502.183031	123.988112
1504.120984	126.060839
1506.056679	127.966434
1507.991939	130.713986
1509.924944	129.461538
1511.857516	129.120979
1513.789656	130.441259
1515.721364	130.188112
1517.650818	133.976224
1519.581663	131.224476
1521.512077	132.379720
1523.438417	132.176224
1525.366149	136.061538
1527.291630	137.015385
1529.216682	139.189510
1531.141305	143.060839
1533.065499	141.320280
1534.987446	142.862937
1536.910782	145.934266
1538.831873	149.100699
1540.750719	155.423776
1542.670955	153.932168
1544.588947	160.988811
1546.506513	165.506993
1548.421837	170.972727
1550.338551	176.672028
1552.251210	183.708392
1554.167073	191.532867
1556.080696	197.183217
1557.992082	202.065734
1559.904856	208.206294
1561.813581	212.947552
1563.723696	219.405594
1565.633387	220.694406
1567.542654	224.849650
1569.449688	225.798601
1571.354489	225.947552
1573.260679	226.415385
1575.164637	224.356643
1577.068175	221.654545
1578.971291	217.227273
1580.872179	212.772727
1582.774454	211.683916
1584.674502	209.146853
1586.575937	210.267133
1588.473339	207.647552
1590.370322	205.237762
1592.266887	203.910490
1594.164840	200.278322
1596.056958	196.629371
1597.952269	192.967133
1599.847163	187.746853
1601.739835	181.592308
1603.632091	180.186014
1605.522126	180.124476
1607.411747	177.127972
1609.300951	176.397203
1611.189741	172.336364
1613.076314	166.972028
1614.964273	161.854545
1616.848216	159.131469
1618.733547	152.931469
1620.618463	150.711189
1622.501166	143.478322
1624.385256	138.469930
1626.265335	135.390210
1628.146800	132.458042
1630.026055	125.638462
1631.906696	124.464336
1633.781533	119.929371
1635.661352	116.420979
1637.537165	114.529371
1639.412568	114.462238
1641.289358	111.255245
1643.160350	111.304196
1645.034524	109.955245
1646.904700	113.018182
1648.778056	111.990909
1650.649209	110.408392
1652.518160	109.685315
1654.388497	112.172727
1656.254840	110.009091
1658.122569	111.176923
1659.988100	107.817483
1661.855015	109.300000
1663.717942	109.856643
1665.582254	109.921678
1667.444370	108.116084
1669.306082	105.730769
1671.169178	101.423776
1673.030080	101.700699
1674.888788	103.662238
1676.747093	106.055245
1678.606783	105.153846
1680.460706	107.030769
1682.317801	108.704895
1684.174494	116.139860
1686.027211	114.895105
1687.883098	113.041259
1689.735012	109.024476
1691.586525	105.020979
1693.437637	103.162937
1695.288349	102.641958
1697.138660	99.145455
1698.986787	101.169930
1700.836297	99.946154
1702.680059	101.695105
1704.528770	102.137762
1706.371736	103.995105
1708.217867	98.728671
1710.060037	98.826573
1711.905371	97.571329
1713.744965	95.748252
1715.585943	94.999301
1717.428304	94.683217
1719.266709	93.327972
1721.106497	97.288811
1722.944110	99.233566
1724.781327	102.053147
1726.616371	102.867832
1728.452798	104.567133
1730.287053	101.662937
1732.120913	101.569231
1733.954380	99.789510
1735.783900	99.483217
1737.616579	96.818881
1739.445314	96.409790
1741.277207	94.152448
1743.105157	95.454545
1744.932715	96.502797
1746.759881	97.567832
1748.586656	97.543357
1750.413040	98.122378
1752.235487	94.216084
1754.061088	95.310490
1755.882755	91.209790
1757.705804	91.253147
1759.526692	88.125874
1761.347190	91.434965
1763.169070	92.036364
1764.985250	95.904196
1766.804582	96.025874
1768.619987	98.644056
1770.438542	98.846853
1772.253172	102.354545
1774.067416	98.393706
1775.881272	98.255245
1777.694742	94.177622
1779.506059	93.813287
1781.318757	87.503497
1783.131068	91.216084
1784.939462	92.590210
1786.749237	93.988811
1788.555096	92.460140
1790.364101	94.869930
1792.169193	95.110490
1793.975666	97.223077
1795.781755	95.969231
1797.583934	98.320979
1799.389256	98.512587
1801.190670	99.370629
1802.993464	95.034266
1804.792352	100.439860
1806.592621	99.243357
1808.392508	102.674825
1810.190254	98.052448
1811.987618	97.784615
1813.784603	95.828671
1815.581207	95.801399
1817.375672	98.436364
1819.171516	99.332867
1820.961706	98.699301
1822.756792	101.230070
1824.546225	95.751049
1826.338795	95.601399
1828.129230	91.321678
1829.917531	93.025175
1831.708967	87.659441
1833.494757	89.698601
1835.281927	88.512587
1837.066965	90.270629
1838.855137	89.866434
1840.639423	91.222378
1842.421580	92.628671
1844.205115	96.832168
1845.986522	94.674825
1847.769308	96.573427
1849.548214	96.613287
1851.328498	96.920280
1853.106656	95.248252
1854.886193	93.919580
1856.663605	90.706993
1858.438893	88.997902
1860.215560	88.347552
1861.990103	91.572727
1863.766025	92.232867
1865.536326	99.222378
1867.309755	101.690909
1869.081064	106.200000
1870.852003	105.264336
1872.624318	105.827273
1874.391020	103.276923
1876.160848	101.843357
1877.926812	97.688811
1879.695900	96.150350
1881.461126	93.894406
1883.225983	93.691608
1884.992218	91.471329
1886.754594	93.311189
1888.516603	91.229371
1890.278244	91.213287
1892.039519	89.179021
1893.800426	90.772028
1895.560967	89.339860
1897.319398	91.172028
1899.077464	91.087413
1900.833421	97.580420
1902.590756	96.030070
1904.347724	97.713986
1906.102587	95.492308
1907.855344	96.637063
1909.607738	95.506993
1911.361507	95.783916
1913.113173	97.607692
1914.862737	98.100699
1916.613677	97.153147
1918.364253	98.204895
1920.110990	97.397203
1921.859104	99.255944
1923.605118	93.209790
1925.352508	94.159441
1927.097799	93.426573
1928.840993	95.367133
1930.585563	93.784615
1932.328036	92.434965
1934.070149	94.283916
1935.811902	93.934266
1937.553296	93.013986
1939.292596	95.601399
1941.031536	94.683916
1942.770119	96.793007
1944.506609	97.555944
1946.242742	100.566434
1947.980249	102.158741
1949.713934	102.887413
1951.448994	100.893007
1953.181966	97.818881
1954.914581	95.127972
1956.646839	94.503497
1958.378741	91.575524
1960.108557	93.932168
1961.836289	91.345455
1963.565394	92.805594
1965.294145	93.851049
1967.020812	96.734965
1968.747125	99.837063
1970.474811	101.193007
1972.196961	99.759441
1973.922212	97.737063
1975.643657	95.220280
1977.368201	96.130070
1979.090666	93.498601
1980.809327	95.983217
1982.531087	92.654545
1984.249045	93.093706
1985.968376	93.022378
1987.683908	97.558042
1989.404261	97.661538
1991.120814	96.806993
1992.833571	94.737762
1994.549425	97.660839
1996.263205	97.886014
1997.976636	101.306294
1999.687996	103.027273
2001.400729	104.277622
2003.109670	102.567133
2004.821705	102.978322
2006.528230	102.672727
2008.237848	103.189510
2009.945398	99.362238
2011.652601	97.410490
2013.357738	95.151049
2015.062528	97.524476
2016.768690	96.601399
2018.471070	100.028671
2020.174822	100.231469
2021.876510	101.027273
2023.577854	100.606294
2025.278852	103.697902
2026.977790	102.438462
2028.678098	101.043357
2030.374632	99.398601
2032.072537	99.176923
2033.768383	98.401399
2035.467315	101.648252
2037.160761	102.042657
2038.855579	102.587413
2040.550053	99.668531
2042.240759	99.387413
2043.934549	97.913287
2045.624572	99.688112
2047.315966	95.958042
2049.005307	95.918182
2050.696018	94.746853
2052.382966	94.120280
2054.069575	91.622378
2055.757554	93.225874
2057.441773	91.865734
2059.127362	91.772727
2060.812612	89.327972
2062.495814	88.300000
2064.180385	89.575524
2065.859494	93.009091
2067.543388	96.575524
2069.221822	99.015385
2070.903332	100.248252
2072.581092	100.456643
2074.258514	98.218881
2075.937306	97.092308
2077.614056	95.409790
2079.288764	95.595105
2080.964841	91.021678
2082.638878	90.443357
2084.312579	89.925175
2085.985945	92.018881
2087.657273	92.209091
2089.328266	89.709091
2090.998925	89.387413
2092.669249	92.098601
2094.339240	89.504196
2096.007195	88.897203
2097.674817	91.751748
2099.340404	97.950350
2101.007361	95.578322
2102.672283	98.433566
2104.336874	98.006294
2105.999433	98.491608
2107.663360	94.348951
2109.325257	94.949650
2110.986822	95.858741
2112.648056	98.214685
2114.307262	97.030769
2115.966137	100.983217
2117.624683	102.868531
2119.282899	103.718881
2120.937391	101.112587
2122.594948	103.825175
2124.252176	102.223776
2125.905682	99.841259
2127.560556	96.116084
2129.211712	98.986014
2130.865929	96.230769
2132.516430	95.582517
2134.168297	94.375524
2135.814756	93.608392
2137.465970	94.014685
2139.113470	94.715385
2140.762337	96.037063
2142.409186	99.629371
2144.055708	100.181818
2145.701905	100.739161
2147.344394	100.721678
2148.989941	104.327273
2150.631781	100.334965
2152.276678	100.213986
2153.917870	96.503497
2155.558738	94.176224
2157.199282	94.345455
2158.837814	92.065734
2160.477712	90.455245
2162.113910	92.177622
2163.751475	92.127972
2165.388716	94.100699
2167.023948	95.695105
2168.658859	97.487413
2170.293448	96.844755
2171.927715	101.937063
2173.558289	99.327972
2175.191915	98.560839
2176.821849	94.605594
2178.453148	94.178322
2180.082442	93.233566
2181.711417	93.475524
2183.340073	93.197902
2184.968409	92.619580
2186.594742	91.104196
2188.220757	94.367832
2189.844771	95.020280
2191.470149	96.697203
2193.093528	93.727972
2194.718270	94.415385
2196.339332	93.468531
2197.960077	98.521678
2199.582187	100.355245
2201.202299	102.909790
2202.820414	101.080420
2204.438214	99.402797
2206.055699	98.252448
2207.672868	100.805594
2209.289722	98.976923
2210.906261	96.102098
2212.520806	95.287413
2214.133359	96.503497
2215.747276	98.137762
2217.359202	101.629371
2218.972491	102.609091
2220.583790	103.019580
2222.193099	99.225175
2223.803772	96.376923
2225.412456	93.974825
2227.020828	94.267133
2228.627212	93.802797
2230.234960	90.930769
2231.840721	90.951049
2233.446171	91.265035
2235.049636	90.402098
2236.654464	91.873427
2238.257309	93.566434
2239.858170	95.853147
2241.460393	93.992308
2243.060635	94.944755
2244.662239	94.295105
2246.260191	96.706993
2247.859505	97.983217
2249.456839	98.509790
2251.053864	96.969231
2252.652252	98.230070
2254.246991	97.527273
2255.839753	97.571329
2257.433878	98.655245
2259.029364	100.327273
2260.621206	97.101399
2262.212741	97.506294
2263.805637	96.123077
2265.393224	98.513986
2266.985508	97.968531
2268.572484	98.311189
2270.162489	97.667832
2271.747189	99.888811
2273.336583	99.827972
2274.920674	100.109790
2276.506127	99.554545
2278.089610	100.143357
2279.676120	97.108392
2281.258996	97.174825
2282.841568	95.644406
2284.423837	93.877622
2286.002477	92.256993
2287.584140	94.477622
2289.162175	97.739510
2290.743233	101.638462
2292.320665	101.684266
2293.896132	101.446154
2295.474622	100.850699
2297.049488	102.539161
2298.624053	99.011538
2300.198318	97.724476
2301.772282	93.181469
2303.345946	90.083217
2304.919309	88.035664
2306.489054	89.525874
2308.058500	91.152448
2309.630965	91.183217
2311.198154	90.673427
2312.768362	92.311189
2314.334955	92.347552
2315.902908	95.444056
2317.468905	93.436364
2319.034605	98.160839
2320.600008	98.967133
2322.163456	100.031469
2323.728264	100.711888
2325.289464	102.635664
2326.853678	103.593706
2328.412631	105.714685
2329.974597	107.733566
2331.534613	106.507692
2333.094333	99.608392
2334.652104	99.411888
2336.209580	95.018182
2337.766762	94.869930
2339.321997	93.594406
2340.876937	92.370629
2342.431584	92.952448
2343.985937	94.270629
2345.539996	92.570629
2347.093761	96.792308
2348.645583	96.233566
2350.195461	96.892308
2351.748347	95.672727
2353.295991	99.035664
2354.846642	96.751748
2356.393702	98.097203
2357.942121	95.369930
2359.490247	97.240559
2361.034785	97.382517
2362.580681	95.967832
2364.124639	91.441259
2365.669954	94.708392
2367.211684	94.195105
2368.754771	97.584615
2370.295923	96.646853
2371.836785	96.899301
2373.377358	92.608392
2374.917641	90.520280
2376.457636	84.611888
2377.994053	87.319580
2379.533471	85.716783
2381.069312	86.083217
2382.606509	86.146853
2384.140131	91.404196
2385.676754	91.567832
2387.211445	91.409091
2388.744207	89.076923
2390.276682	92.326573
2391.807230	92.965734
2393.340775	91.546154
2394.869109	90.276224
2396.398799	91.442657
2397.928204	91.359441
2399.457323	95.500699
2400.986158	95.162238
2402.509787	96.190909
2404.038053	94.320979
2405.561115	95.516783
2407.088811	98.379720
2408.609668	104.060839
2410.135158	104.637762
2411.657087	103.761538
2413.180372	101.043357
2414.701736	102.489510
2416.221180	102.159441
2417.741979	105.513986
2419.260859	104.386014
2420.779457	104.607692
2422.296138	104.785315
2423.814173	103.286014
2425.331927	103.141958
2426.846130	104.100000
2428.360052	100.981119
2429.873694	100.288112
2431.388691	96.769231
2432.900139	97.623077
2434.412942	95.620979
2435.923832	98.814685
2437.434442	98.218182
2438.943141	96.614685
2440.454827	96.232867
2441.962968	94.110490
2443.470832	95.542657
2444.978418	96.608392
2446.482463	92.818182
2447.989494	92.369231
2449.494616	91.492308
2450.999461	93.097203
2452.502399	90.908392
2454.005060	94.872028
2455.507445	95.954545
2457.007925	97.561538
2458.509758	97.178322
2460.009687	99.373427
2461.509340	99.280420
2463.008717	97.925175
2464.506192	96.458741
2466.001765	97.696503
2467.500319	97.381119
2468.995343	95.795105
2470.491721	93.823776
2471.984571	96.856643
2473.478775	94.845455
2474.972705	94.811189
2476.463112	93.633566
2477.956495	96.255245
2479.447981	95.586713
2480.937570	97.844755
2482.426887	97.322378
2483.914309	97.164336
2485.404706	93.518881
2486.891584	92.181119
2488.379814	93.708392
2489.864528	94.858741
2491.348971	90.235664
2492.834766	92.002098
2494.318668	89.572727
2495.803922	90.113287
2497.284042	89.867832
2498.767134	93.032867
2500.248336	90.669231
2501.729269	93.344755
2503.208313	89.912587
2504.687088	92.774825
2506.165595	95.558741
2507.643834	96.355245
2509.121804	96.279720
2510.596270	97.200000
2512.073704	95.225175
2513.547635	97.465734
2515.022916	96.753147
2516.497931	98.716084
2517.969444	97.105594
2519.442307	100.209790
2520.913288	97.695804
2522.385619	99.415385
2523.852837	99.414685
2525.323020	100.055944
2526.791323	98.481119
2528.259361	97.617483
2529.727134	94.066434
2531.194642	95.875524
2532.661885	93.008392
2534.125636	96.335664
2535.590737	97.147552
2537.053961	99.621678
2538.518535	99.134965
2539.979619	99.734965
2541.442053	98.304196
2542.904224	98.933566
2544.362909	93.074825
2545.826166	93.579021
2547.284326	91.426573
2548.743835	94.405594
2550.198251	92.337063
2551.657236	97.446853
2553.114350	97.476923
2554.569593	99.161538
2556.024575	99.401399
2557.477687	100.540559
2558.932148	99.390909
2560.384740	103.986014
2561.837072	103.111888
2563.287536	106.648951
2564.740956	106.346853
2566.189294	104.637063
2567.640588	99.432168
2569.090015	100.644056
2570.535970	97.823776
2571.984881	96.213986
2573.430320	94.774126
2574.877108	94.467133
2576.322032	96.981119
2577.766699	99.060839
2579.212713	100.683916
2580.655260	104.880420
2582.099155	104.652448
2583.539585	103.227273
2584.981362	101.799301
2586.421280	101.456643
2587.862545	97.657343
2589.300349	94.974126
2590.741102	95.280420
2592.176792	95.517483
2593.615432	97.461538
2595.052215	99.153147
2596.487141	101.825874
2597.925016	104.925175
2599.357832	106.306993
2600.791996	105.617483
2602.224306	109.006993
2603.657962	108.051748
2605.089765	109.818881
2606.521315	106.931469
2607.952611	108.195804
2609.382055	108.174825
2610.811248	107.304196
2612.238589	108.606993
2613.667277	104.953147
2615.095712	106.196503
2616.520700	105.281818
2617.947035	105.573427
2619.371521	107.883916
2620.797353	110.616783
2622.219741	113.065035
2623.643475	110.390210
2625.065362	110.959441
2626.487000	110.702098
2627.906792	106.776224
2629.327930	107.754545
2630.748818	103.564336
2632.166268	105.878322
2633.586657	102.358042
2635.003609	104.263636
2636.420313	103.944755
2637.836768	110.479720
2639.252975	112.030070
2640.668933	114.046853
2642.083051	116.408392
2643.496922	118.646154
2644.908953	119.216783
2646.322329	123.453147
2647.732275	118.132867
2649.145156	119.090210
2650.554610	116.634965
2651.963817	117.021678
2653.371187	113.980420
2654.781493	118.279720
2656.189962	116.909790
2657.596596	119.308392
2659.002985	122.365734
2660.407540	127.225874
2661.813439	127.851748
2663.217505	131.054545
2664.621326	126.749650
2666.024904	129.990210
2667.426649	131.660140
2668.829738	131.518881
2670.229409	128.920979
2671.630424	129.488112
2673.028023	126.298601
2674.428552	126.315385
2675.825666	126.791608
2677.224123	125.636364
2678.620752	122.030070
2680.017139	123.143357
2681.413285	121.578322
2682.807604	123.326573
2684.203266	124.633566
2685.595518	127.135664
2686.989114	124.757343
2688.380885	125.202098
2689.773998	122.097902
2691.165288	122.413986
2692.554755	121.023776
2693.943982	120.151748
2695.332970	119.721678
2696.723300	119.897902
2698.108645	117.562937
2699.496914	115.598601
2700.883363	115.594406
2702.269573	114.813986
2703.655545	112.110490
2705.038117	111.276923
2706.422032	106.790909
2707.805709	107.711189
2709.189148	106.498601
2710.569191	107.785315
2711.950576	106.808392
2713.330145	106.797203
2714.711056	104.447552
2716.090151	105.832867
2717.467433	106.618881
2718.846056	107.644056
2720.222866	108.611888
2721.599440	107.858042
2722.975778	105.924476
2724.350304	110.115385
2725.726171	110.839860
2727.098651	112.163636
2728.474047	110.500000
2729.844483	110.683916
2731.216260	109.592308
2732.587802	108.424476
2733.957536	103.900000
2735.328611	100.653147
2736.697877	95.064336
2738.066911	91.870629
2739.434137	89.641958
2740.801131	94.173427
2742.167892	94.770629
2743.534420	98.216084
2744.899143	100.489510
2746.263635	103.151748
2747.627894	104.741259
2748.991921	105.183916
2750.355717	102.866434
2751.716139	102.808392
2753.079472	100.405594
2754.437862	100.604196
2755.799162	99.493007
2757.157091	100.430769
2758.517930	99.835664
2759.876968	98.965734
2761.232638	97.987413
2762.591216	96.520280
2763.946428	95.846154
2765.301410	96.610490
2766.654595	93.411189
2768.010687	94.903497
2769.363415	95.069231
2770.715914	95.580420
2772.068185	95.951049
2773.421795	97.025874
2774.772043	97.813287
2776.120498	96.095804
2777.471857	98.514685
2778.819857	97.381119
2780.169196	94.423077
2781.516742	92.222378
2782.864061	88.953846
2784.211154	87.581119
2785.556456	85.458741
2786.901532	85.808392
2788.246382	85.988811
2789.591005	86.875524
2790.932277	88.417483
2792.274887	89.411888
2793.617271	93.944056
2794.959431	96.269231
2796.298241	94.976923
2797.639950	94.040559
2798.978312	95.162937
2800.318011	94.283916
2801.655924	92.564336
2802.992053	94.551049
2804.327958	90.896503
2805.665201	90.290210
2807.000660	89.749650
2808.335896	86.850350
2809.669349	88.000699
2811.004140	89.290909
2812.335589	84.167832
2813.669934	86.195804
2814.999381	89.108392
2816.330165	88.430769
2817.660727	88.542657
2818.989510	89.036364
2820.319629	86.061538
2821.647970	87.481818
2822.976090	87.642657
2824.302432	87.370629
2825.630111	91.081818
2826.954457	92.114685
2828.280138	92.849650
2829.604044	95.774126
2830.927731	94.174825
2832.252753	93.986713
2833.574445	93.706993
2834.895919	94.064336
2836.217174	91.162937
2837.538210	90.461538
2838.857474	89.943357
2840.178073	92.485315
2841.496900	91.555944
2842.815509	89.981119
2844.132347	88.780420
2845.448968	84.292308
2846.765372	82.856643
2848.080007	85.831469
2849.395976	87.564336
2850.708625	90.762937
2852.022610	87.195804
2853.336377	87.197203
2854.649929	85.613287
2855.961713	86.939161
2857.271731	83.920280
2858.583084	86.006993
2859.891122	86.030070
2861.200495	83.956643
2862.509652	85.270629
2863.818594	88.737063
2865.125773	89.786713
2866.431188	91.600699
2867.737938	90.023776
2869.042925	88.834266
2870.347699	86.662937
2871.650711	88.272727
2872.956605	89.393706
2874.257643	92.416084
2875.560016	90.667832
2876.860629	89.537762
2878.162576	89.219580
2879.464310	89.563636
2880.762739	87.394406
2882.062503	87.683217
2883.360508	84.705594
2884.658302	83.944755
2885.954340	83.269231
2887.251711	84.693007
2888.547326	86.390909
2889.842730	87.069930
2891.137924	85.490909
2892.429819	90.051049
2893.724591	91.135664
2895.016066	92.006993
2896.308874	90.600699
2897.601472	92.405594
2898.890776	91.370629
2900.181412	93.097902
2901.470297	93.403497
2902.760515	90.999301
2904.047440	91.381818
2905.335699	88.801399
2906.622207	88.055944
2907.908508	92.259441
2909.194600	91.647552
2910.478944	92.853846
2911.766160	91.827972
2913.048548	91.344755
2914.332269	87.680420
2915.614244	89.318881
2916.896012	89.869231
2918.176034	87.704196
2919.458926	89.784615
2920.740073	89.418182
2922.017938	92.544755
2923.298672	98.288112
2924.576125	97.831469
2925.853372	99.212587
2927.128878	98.645455
2928.407251	95.438462
2929.680809	91.667133
2930.957235	92.803497
2932.231920	92.058042
2933.504865	90.695804
2934.779140	89.279720
2936.051676	91.030070
2937.324008	90.511189
2938.593066	92.523776
2939.864990	89.731469
2941.135176	91.565734
2942.405159	91.996503
2943.674938	88.187413
2944.942980	86.056643
2946.209287	87.458741
2947.475391	85.112587
2948.742825	87.234266
2950.008525	86.893007
2951.274022	88.903497
2952.539317	86.117483
2953.801347	88.231469
2955.064708	86.847552
2956.327866	87.398601
2957.589293	84.143357
2958.852049	83.374825
2960.113074	81.038462
2961.372367	81.520979
2962.631461	80.711888
2963.890354	87.099301
2965.149047	88.318182
2966.407540	91.190909
2967.664304	90.205594
2968.920868	90.858741
2970.175705	86.655245
2971.431871	87.520280
2972.684781	84.968531
2973.939021	84.213287
2975.193062	80.306294
2976.445377	80.787413
2977.697494	79.830769
2978.947886	81.669231
2980.201133	82.128671
2981.449603	84.820979
2982.700927	84.466434
2983.949003	81.883916
2985.196881	79.960140
2986.444562	82.062937
2987.692047	80.855944
2988.937810	78.352448
2990.183376	78.884615
2991.430270	79.053846
2992.673920	77.272028
2993.918898	76.421678
2995.160633	77.183916
2996.405218	79.814685
2997.648085	79.927972
2998.887711	80.331469
3000.130187	82.321678
3001.369424	84.123077
3002.609988	85.216084
3003.848835	85.329371
3005.087488	85.935664
3006.324425	86.095804
3007.562689	85.876224
3008.799239	82.977622
3010.035594	79.694406
3011.271756	78.965035
3012.506205	77.801399
3013.740460	78.637063
3014.974522	77.430070
3016.206872	77.679021
3017.437510	78.244755
3018.670994	79.193706
3019.902766	77.043357
3021.132828	79.590210
3022.362698	77.778322
3023.590858	76.644755
3024.820344	75.466434
3026.048122	77.327972
3027.275708	77.348252
3028.504620	78.588112
3029.728790	77.871329
3030.955803	79.964336
3032.179592	79.186713
3033.404708	79.511888
3034.628117	76.821678
3035.851337	78.485315
3037.072851	73.665035
3038.297206	76.954545
3039.516826	77.279021
3040.737771	77.495105
3041.958528	79.521678
3043.177581	82.101399
3044.397960	84.255944
3045.615122	85.290909
3046.833609	82.643357
3048.050394	84.720280
3049.266992	84.227273
3050.483401	82.955245
3051.696598	80.261538
3052.912632	83.517483
3054.125454	83.943357
3055.341113	84.146853
3056.552049	84.608392
3057.764310	84.737762
3058.976385	83.067832
3060.188273	76.836364
3061.398463	72.565734
3062.608467	72.004545
3063.818286	70.619580
3065.026408	67.591259
3066.234344	68.872727
3067.440586	75.891259
3068.648151	77.874126
3069.854023	82.436014
3071.059709	83.811888
3072.265210	84.270979
3073.469018	82.330070
3074.674150	76.291958
3075.877590	74.293706
3077.079337	72.718531
3078.280901	72.816084
3079.482281	68.565734
3080.683477	70.413986
3081.882983	73.244755
3083.082305	70.260839
3084.282951	74.000000
3085.481907	69.896503
3086.677669	68.737063
3087.876260	68.192308
3089.071657	68.274126
3090.268377	67.821678
3091.461905	68.803497
3092.658261	70.109091
3093.852931	69.816084
3095.044410	71.841259
3096.240220	70.075524
3097.431337	68.459441
3098.623776	70.850350
3099.813028	69.146154
3101.005106	72.755944
3102.195499	74.891608
3103.382707	76.048951
3104.571238	76.345455
3105.761091	79.255245
3106.947759	81.537762
3108.134248	81.785315
3109.320557	77.329371
3110.508188	75.955245
3111.692638	75.118182
3112.875407	77.301399
3114.061000	72.172028
3115.244912	71.475524
3116.427146	71.706294
3117.609201	70.327273
3118.791079	72.851049
3119.972778	72.092308
3121.152799	72.582517
3122.331144	69.261538
3123.512310	66.045455
3124.690300	65.996503
3125.868113	63.064336
3127.045749	63.832168
3128.221710	58.302098
3129.397494	62.227273
3130.574600	65.534266
3131.750031	68.772028
3132.923789	69.944056
3134.095875	72.098601
3135.269281	70.409091
3136.442512	70.628671
3137.614070	73.470629
3138.786950	72.370629
3139.956662	71.667832
3141.127695	74.469231
3142.297057	72.730070
3143.464750	74.966434
3144.635258	71.384615
3145.801107	71.420979
3146.971266	69.227972
3148.136767	70.564336
3149.302095	66.324476
3150.467249	68.658741
3151.632229	69.981119
3152.798530	66.435664
3153.960177	64.605594
3155.123145	68.160140
3156.285939	68.708392
3157.448561	72.369231
3158.609518	71.446154
3159.770302	74.814685
3160.930914	74.874126
3162.089863	75.795105
3163.248639	74.357343
3164.407244	72.912587
3165.565677	68.382517
3166.723938	63.423776
3167.880537	58.894406
3169.035475	62.028671
3170.191732	62.426573
3171.346329	68.528671
3172.500754	70.136364
3173.653520	73.157343
3174.806116	70.867832
3175.958541	73.834965
3177.110797	73.960140
3178.262883	74.873427
3179.411822	73.645455
3180.563568	72.713287
3181.713656	70.596503
3182.862088	71.916084
3184.010351	72.646154
3185.158444	76.240559
3186.306369	74.365734
3187.452639	75.943357
3188.598740	74.351748
3189.743186	78.007692
3190.887465	75.719580
3192.031576	75.837063
3193.177005	74.972727
3194.319294	74.777622
3195.461417	70.943357
3196.603372	70.400699
3197.745161	68.536364
3198.886782	67.771329
3200.025267	66.503497
3201.165070	69.925175
3202.306191	70.642657
3203.444177	73.503497
3204.580514	71.313287
3205.716685	72.797902
3206.854174	72.088811
3207.990013	70.616084
3209.127170	65.354545
3210.259714	64.992308
3211.396540	62.268531
3212.528754	62.280420
3213.662286	62.657343
3214.795652	63.932867
3215.925891	64.046853
3217.058928	66.735664
3218.188839	66.483217
3219.320067	70.045455
3220.448169	69.617483
3221.579068	71.064336
3222.708324	68.264336
3223.835935	71.001399
3224.960425	71.162238
3226.089190	69.837762
3227.214833	67.224476
3228.340313	65.467133
3229.464152	61.876923
3230.590785	62.454545
3231.712821	61.053147
3232.836173	62.076224
3233.959363	60.658042
3235.082391	61.229371
3236.203779	60.317483
3237.325006	64.092308
3238.444594	63.650350
3239.564021	64.981818
3240.681810	64.409091
3241.802392	66.532867
3242.919859	67.008392
3244.037167	69.323077
3245.154313	67.173427
3246.269824	64.417483
3247.386650	62.746853
3248.500365	62.032867
3249.616870	60.697203
3250.731741	58.293706
3251.843503	55.016783
3252.955106	57.551049
3254.068023	55.642657
3255.180782	57.737762
3256.290434	58.741958
3257.401400	61.856643
3258.512208	64.255944
3259.621385	65.370629
3260.728930	68.200000
3261.837790	70.613287
3262.946491	69.607692
3264.052090	68.460140
3265.159003	64.457343
3266.264288	65.225175
3267.370886	62.024476
3268.474384	64.830070
3269.579196	65.046853
3270.683851	67.140559
3271.785407	68.691608
3272.886808	69.927972
3273.989522	69.975524
3275.092079	70.981818
3276.191540	66.837762
3277.293785	65.094406
3278.392934	60.801399
3279.490459	65.286014
3280.587828	62.741259
3281.687980	65.013986
3282.785038	62.766434
3283.881941	63.431469
3284.978689	64.106294
3286.070879	65.237063
3287.167317	65.903497
3288.262134	69.556643
3289.356795	68.114685
3290.449835	68.948951
3291.542721	69.458741
3292.633986	72.453846
3293.726564	65.174825
3294.817521	63.587413
3295.906859	60.897203
3296.996044	61.027972
3298.086542	61.479021
3299.173955	63.827273
3300.261216	64.718881
3301.349789	66.808392
3302.438209	64.347552
3303.522082	66.288811
3304.610197	67.257343
3305.695231	66.723077
3306.778648	62.695105
3307.863378	64.283217
3308.946493	63.609091
3310.030919	64.344755
3311.112267	64.248951
3312.194927	64.581818
3313.275973	63.151049
3314.356868	62.645455
3315.436150	59.725175
3316.515281	64.393706
3317.595723	63.321678
3318.673092	63.344056
3319.751771	61.617483
3320.828840	62.471329
3321.905758	60.250350
3322.981065	60.139860
3324.056223	57.704196
3325.132692	59.645455
3326.206091	61.003497
3327.279341	60.799301
3328.353902	60.484615
3329.426853	62.527972
3330.498197	60.593007
3331.570851	63.579720
3332.640438	61.341259
3333.711336	61.006294
3334.780627	62.475524
3335.851229	65.751748
3336.920224	64.478322
3337.987613	66.727972
3339.053397	68.718881
3340.123407	66.975524
3341.190354	67.111888
3342.254239	63.218881
3343.320892	61.582517
3344.385940	60.219580
3345.449385	57.655245
3346.512684	58.690210
3347.575836	59.200000
3348.638842	59.225874
3349.701702	58.222378
3350.762960	60.486713
3351.821161	61.065035
3352.883583	62.911888
3353.942948	63.289510
3355.002168	62.591608
3356.062698	62.833566
3357.118718	62.506993
3358.177503	62.488112
3359.231780	64.888811
3360.288820	62.570629
3361.344263	62.680420
3362.401014	64.676923
3363.456168	64.658042
3364.509724	61.381818
3365.561683	65.141958
3366.616404	62.715385
3367.668076	64.679720
3368.719605	65.157343
3369.772443	63.668531
3370.822233	63.350350
3371.873331	62.836364
3372.921384	62.216783
3373.972197	62.560839
3375.019964	62.778322
3376.067589	60.584615
3377.115071	56.922378
3378.160961	57.039860
3379.208159	55.651049
3380.252315	56.534965
3381.299229	56.853846
3382.344551	55.207692
3383.386833	54.706294
3384.428973	52.985315
3385.472421	54.198601
3386.515729	53.693007
3387.557446	55.952448
3388.599022	60.309790
3389.640458	59.355944
3390.680304	63.194406
3391.718563	62.796503
3392.758129	61.227273
3393.797554	62.474126
3394.835392	63.364336
3395.871643	62.999301
3396.907755	63.224476
3397.945174	60.630769
3398.979560	59.909091
3400.015253	61.068531
3401.050807	62.972028
3402.083330	60.576224
3403.118606	63.117483
3404.150851	58.164336
3405.182958	58.738462
3406.213481	61.130070
3407.245312	62.815385
3408.277003	63.250350
3409.305668	65.702797
3410.334194	63.818182
3411.364028	64.979720
3412.393723	62.416084
3413.420393	61.141259
3414.448370	60.197902
3415.473322	60.177622
3416.501024	57.123776
3417.525703	59.123077
3418.551688	58.343357
3419.576093	58.571329
3420.600362	58.495105
3421.623052	60.663636
3422.645606	58.959441
3423.669466	58.521678
3424.690306	53.644056
3425.711011	51.579021
3426.733021	51.095280
3427.752013	52.880420
3428.770870	57.622028
3429.791032	66.007692
3430.808178	78.725000
