-118.187858	2.470604
-115.518258	1.053846
-112.851593	-0.003946
-110.185680	-0.759940
-107.522699	-1.271304
-104.858289	-1.595205
-102.196809	-1.788811
-99.533899	-4.172727
-96.876097	-2.364336
-94.216864	-0.962937
-91.558380	-0.428671
-88.902821	-1.290210
-86.245833	-0.515385
-83.593942	-0.526573
-80.940622	1.819580
-78.290222	1.088811
-75.638392	1.269930
-72.991653	1.930769
-70.343484	3.677622
-67.696059	1.851049
-65.051547	2.575524
-62.405607	3.935664
-59.764748	3.053846
-57.122460	0.768531
-54.483080	0.782517
-51.842272	1.244755
-49.202204	0.333566
-46.567208	0.377622
-43.930783	1.779720
-41.297262	2.481119
-38.662312	2.432168
-36.032427	-0.168531
-33.398950	2.080420
-30.770535	1.411189
-28.142853	0.086014
-25.513744	-3.875524
-22.889691	-9.787413
-20.262049	-24.910490
-17.639460	-48.167832
-15.017602	-31.448252
-12.396476	82.018881
-9.776079	252.316783
-7.158570	389.989510
-4.539633	485.120979
-1.923582	535.898601
0.691741	537.233566
3.306337	496.162238
5.918050	408.213287
8.531192	282.316783
11.139300	129.435664
13.750990	-10.956643
16.357649	-77.588112
18.965736	-50.877622
21.573099	-9.274126
24.175437	-5.647552
26.781353	-6.149650
29.382247	-6.990909
31.984570	-6.497203
34.581874	-0.404895
37.182754	1.655245
39.778620	3.960140
42.375913	6.649650
44.972487	8.352448
47.564052	7.389510
50.157045	8.569930
52.747177	6.875524
55.338737	5.164336
57.927437	-0.158741
60.517564	-3.144056
63.102693	-4.261538
65.689249	-1.400000
68.275090	-1.034266
70.858078	0.124476
73.442493	0.348252
76.019778	0.062238
78.600630	-1.952448
81.178633	-0.896503
83.755926	-3.476224
86.334645	-4.423776
88.908383	-8.557343
91.483547	-8.268531
94.055868	-7.493706
96.627481	-3.339161
99.196255	0.078322
101.766455	1.772028
104.333816	1.506294
106.902604	1.958741
109.468554	0.935664
112.031670	1.248252
114.598342	-0.460140
117.155793	-2.313986
119.718929	-1.715385
122.277106	0.559441
124.838836	3.681818
127.395611	10.712587
129.953811	17.124476
132.507059	23.367133
135.059608	30.776224
137.615708	37.800699
140.166861	46.212587
142.717315	54.607692
145.267073	63.410490
147.814011	69.455944
150.360253	76.921678
152.907922	79.207692
155.454894	82.200000
157.996930	85.701399
160.538273	85.357343
163.078924	83.257343
165.620999	81.348252
168.160264	77.837762
170.696719	75.490210
173.232484	74.419580
175.769674	73.907692
178.306172	75.537762
180.839865	73.976224
183.370755	74.867832
185.900956	75.668531
188.432582	78.610490
190.961407	78.235664
193.487433	76.813986
196.012774	73.497203
198.539539	73.776224
201.063508	72.398601
203.586791	73.284615
206.109390	73.202098
208.629196	74.891608
211.148319	72.051748
213.666759	76.447552
216.186623	78.846154
218.699486	82.360140
221.215880	82.031469
223.731592	81.159441
226.242415	79.130769
228.754662	83.277622
231.264126	83.295105
233.772912	84.007692
236.281020	82.349650
238.790551	81.966434
241.295203	80.890210
243.799178	82.625175
246.304577	83.434965
248.805101	82.877622
251.309148	82.538462
253.806225	83.033566
256.306824	83.860140
258.804652	86.992308
261.301807	86.351748
263.798289	84.745455
266.289909	84.209091
268.785047	85.953846
271.277420	85.602098
273.769122	85.531469
276.258061	85.934965
278.748423	84.930769
281.236024	85.213986
283.720865	86.192308
286.209220	86.495105
288.690636	87.983916
291.175566	85.677622
293.655651	83.409091
296.139248	84.039161
298.618002	86.760140
301.098180	87.188811
303.575605	88.797902
306.052367	89.853147
308.528466	92.157343
311.001816	94.986713
313.474504	100.144056
315.946531	105.665035
318.417897	111.918182
320.886519	112.380420
323.354481	110.910490
325.823866	111.044056
328.288428	109.316084
330.756493	104.603497
333.219739	98.813287
335.682328	93.900699
338.144259	92.143357
340.605534	88.116783
343.064075	90.124476
345.524038	90.846154
347.981269	92.215385
350.437844	90.919580
352.893766	89.992308
355.346959	90.558741
357.801573	89.432168
360.251386	89.214685
362.704696	90.311888
365.153206	91.156643
367.601066	93.322378
370.050347	94.253147
372.494835	98.396503
374.940745	98.941259
377.386006	100.874126
379.828548	99.089510
382.270442	97.718182
384.711688	95.069231
387.150219	93.133566
389.590172	90.358042
392.027411	89.442657
394.461938	87.026573
396.899953	87.666434
399.333191	90.446853
401.767851	93.057343
404.197737	92.484615
406.631109	94.755245
409.059711	94.151748
411.487672	95.671329
413.917053	96.169231
416.341669	95.686713
418.767707	92.923077
421.193104	93.886014
423.617861	93.395804
426.037860	93.331469
428.459280	94.073427
430.878003	93.951748
433.298147	92.175524
435.715596	93.401399
438.134465	92.101399
440.550641	92.218182
442.962070	90.937762
445.376975	90.470629
447.789190	90.579720
450.200771	91.425175
452.611718	89.756643
455.019979	90.252448
457.427607	89.412587
459.834604	90.097902
462.240968	87.143357
464.644650	86.337063
467.047702	84.011189
469.450124	83.335664
471.851917	82.475524
474.251031	84.265734
476.651565	82.397203
479.051470	83.906993
481.446652	87.398601
483.845301	89.921678
486.239230	90.315385
488.632533	91.819580
491.025210	91.103497
493.417262	91.844755
495.810733	88.508392
498.199491	85.346154
500.585583	79.743357
502.973095	73.744056
505.359983	64.479021
507.744208	62.406294
510.129852	59.834965
512.512833	56.635664
514.893154	53.120280
517.274894	51.575524
519.653975	49.643357
522.034475	48.064336
524.412317	46.895105
526.787504	46.617483
529.162073	46.806993
531.538061	48.883916
533.911395	48.661538
536.286148	51.351748
538.656214	52.872727
541.025665	53.544755
543.396535	50.304895
545.762723	48.637762
548.130330	43.621678
550.495291	42.306294
552.859639	41.348951
555.223375	40.292308
557.588528	41.181818
559.949008	42.130769
562.310907	40.457343
564.670166	42.737762
567.026786	43.719580
569.386851	42.619580
571.740226	41.976923
574.097045	40.041259
576.451228	39.334965
578.804804	42.697902
581.157771	40.552448
583.508107	40.295804
585.859859	37.561538
588.204935	36.906294
590.555475	36.451748
592.899342	38.156643
595.248669	39.010490
597.593349	39.502797
599.935404	41.516084
602.278875	42.211888
604.619724	44.519580
606.959971	46.008392
609.297597	43.453147
611.638658	44.449650
613.975082	40.780420
616.312922	41.920280
618.648144	40.479720
620.980751	40.512587
623.314775	38.625175
625.646184	37.309790
627.976995	35.715385
630.307208	35.300699
632.636823	32.178322
634.961816	30.764336
637.292250	29.862238
639.618062	32.995105
641.941268	33.315385
644.265889	35.959441
646.587906	34.487413
648.909328	36.472727
651.228147	36.244755
653.548382	36.895804
655.868024	34.426573
658.185065	33.761538
660.501515	30.032867
662.815366	28.312587
665.130632	27.506294
667.443302	28.167133
669.757387	27.926573
672.066872	29.846154
674.377773	28.124476
676.686081	30.429371
678.993801	31.213986
681.302936	30.267832
683.607478	27.292308
685.911434	28.506993
688.214803	28.718182
690.519587	25.953147
692.819785	23.198601
695.121398	21.279720
697.422425	22.695105
699.718870	26.323077
702.016731	24.334266
704.314008	24.667832
706.610702	23.790210
708.902820	24.770629
711.198349	25.025175
713.489305	27.909091
715.781675	28.325175
718.071469	26.690210
720.360684	25.510490
722.649318	26.459441
724.935381	27.410490
727.222857	29.419580
729.507763	27.897902
731.792090	28.718881
734.073849	27.267133
736.357023	26.805594
738.639618	24.053147
740.917659	25.085315
743.197113	24.427273
745.475992	26.806993
747.754295	28.304196
750.028049	29.582517
752.303217	28.717483
754.577811	30.213986
756.849846	31.144056
759.123293	32.665035
761.394183	30.930769
763.662517	29.614685
765.932264	27.211888
768.199457	28.760839
770.466079	28.383217
772.732132	30.609091
774.995632	31.236364
777.260546	31.136364
779.524890	31.316783
781.784705	32.492308
784.045933	33.174825
786.306593	33.877622
788.564706	33.187413
790.820275	31.955944
793.079235	28.502797
795.331696	30.213287
797.589524	30.133566
799.842832	30.947552
802.093601	29.813986
804.345782	29.131469
806.595425	30.172727
808.846479	31.718881
811.093022	32.181119
813.340978	34.155245
815.586398	32.766434
817.833230	31.640559
820.079501	28.796503
822.321268	31.351748
824.566417	29.602797
826.805094	29.250350
829.047154	26.323077
831.284715	25.588112
833.523687	24.632867
835.760133	24.835664
837.997991	22.867133
840.233323	22.520280
842.466131	17.934266
844.700351	16.917483
846.932049	14.658741
849.163192	18.572727
851.393780	18.325175
853.623814	21.795804
855.853293	23.608392
858.078291	26.011888
860.306664	26.088811
862.530558	28.702098
864.755862	27.640559
866.976691	28.072727
869.200892	24.393706
871.420620	23.369231
873.641759	20.289510
875.862347	19.822378
878.080425	18.053846
880.299914	18.927273
882.514936	20.340559
884.729410	23.460140
886.943337	23.357343
889.156716	27.620979
891.369549	26.974126
893.581834	26.976923
895.791618	23.558042
898.000856	23.552448
900.209548	18.909790
902.415742	19.316783
904.623345	18.969930
906.828451	20.610490
909.033013	21.347552
911.235079	25.130769
913.438555	24.458042
915.639537	27.559441
917.839978	26.332168
920.041827	24.974126
922.237284	24.148252
924.436101	22.088112
926.630480	20.427273
928.828215	23.611888
931.021515	24.069231
933.216224	26.790210
935.408447	26.863636
937.600132	30.986014
939.791279	31.023077
941.979943	31.775524
944.168070	30.644755
946.353717	29.020979
948.542716	25.374825
950.727292	22.145455
952.911333	21.835664
955.098724	20.996503
957.277812	21.941259
959.460249	23.825874
961.642153	25.465734
963.821583	26.749650
965.998540	26.913287
968.176905	28.583916
970.356676	28.549650
972.530099	28.253147
974.706868	25.598601
976.879231	26.381818
979.053000	24.604895
981.222366	23.692308
983.395077	26.374825
985.565321	27.330070
987.735037	28.967133
989.904224	28.648252
992.069014	28.450350
994.237145	30.703497
996.400882	30.265035
998.566025	30.572727
1000.728710	29.431469
1002.890868	32.187413
1005.050570	31.440559
1007.209748	34.302797
1009.370332	36.312587
1011.528461	38.056643
1013.686066	39.572727
1015.843148	42.262937
1017.999707	40.504895
1020.151886	41.568531
1022.305471	40.627273
1024.458535	40.704196
1026.609151	38.134965
1028.761172	40.158741
1030.908820	38.236364
1033.059800	43.226573
1035.206409	42.618881
1037.352500	47.081119
1039.498071	47.820979
1041.645048	50.874126
1043.785737	48.464336
1045.929754	50.377622
1048.071331	49.508392
1050.212392	49.086713
1052.354857	47.266434
1054.491043	48.936364
1056.630555	47.304196
1058.765711	49.528671
1060.904192	49.544056
1063.038320	51.406993
1065.171933	49.739161
1067.306952	51.816084
1069.437621	52.364336
1071.569695	53.450350
1073.699340	52.889510
1075.828473	51.388112
1077.957094	51.182517
1080.085204	50.580420
1082.210888	47.363636
1084.336062	46.248252
1086.462640	43.167832
1088.584881	40.457343
1090.708525	38.987413
1092.827836	39.329371
1094.952375	39.706993
1097.070669	39.599301
1099.190368	39.376923
1101.307648	38.792308
1103.424422	40.348951
1105.540689	40.881119
1107.654541	41.316783
1109.769796	42.840559
1111.880729	40.404895
1113.994973	41.381818
1116.104897	40.639860
1118.216225	40.644755
1120.327049	40.695804
1122.433556	37.693007
1124.543372	35.437063
1126.648874	35.390909
1128.755779	34.231469
1130.856469	34.620280
1132.962371	32.504895
1135.063964	34.350350
1137.166960	31.862238
1139.269455	33.716084
1141.365744	32.576923
1143.467239	31.591608
1145.564432	30.191608
1147.661126	28.825874
1149.757323	28.769231
1151.853021	30.787413
1153.948222	31.205594
1156.041026	29.847552
1158.135232	29.104196
1160.223247	31.758042
1162.316460	31.599301
1164.403485	32.767832
1166.493810	30.962937
1168.579846	30.544755
1170.669180	28.985315
1172.752333	28.112587
1174.836889	26.973427
1176.922845	29.374126
1179.004520	29.379720
1181.087597	28.933566
1183.168288	30.546853
1185.248487	32.589510
1187.328195	33.064336
1189.407412	32.146853
1191.484247	30.493706
1193.558701	30.305594
1195.636447	27.450350
1197.709922	26.441259
1199.784798	25.900000
1201.855407	27.690210
1203.927418	27.981119
1205.997052	29.164336
1208.068087	29.339161
1210.138634	29.534266
1212.204920	29.948951
1214.272607	29.736364
1216.337922	29.039860
1218.404637	30.590909
1220.467096	29.946154
1222.532840	29.188112
1224.594331	28.752448
1226.657221	29.413986
1228.717744	27.144755
1230.777784	27.540559
1232.837340	26.434266
1234.894531	24.706993
1236.951241	26.169930
1239.005588	26.804196
1241.063215	26.499301
1243.118480	27.113287
1245.169504	27.282517
1247.221928	28.776224
1249.273873	30.517483
1251.323458	30.813287
1253.372565	30.096503
1255.421194	30.840559
1257.469344	30.127273
1259.517016	29.341958
1261.560457	31.747552
1263.607173	32.144755
1265.651537	33.046154
1267.695423	33.912587
1269.736959	35.100000
1271.776145	37.118881
1273.818603	36.493706
1275.856839	37.176224
1277.896474	37.062238
1279.935634	37.017483
1281.970576	36.629371
1284.006916	36.640559
1286.040911	39.428671
1288.076305	40.825175
1290.107485	43.569231
1292.140064	45.369930
1294.172170	45.667133
1296.201936	47.257343
1298.233100	47.808392
1300.260056	51.501399
1302.288410	54.220280
1304.312560	58.013986
1306.339974	58.677622
1308.363187	59.839161
1310.387796	63.396503
1312.410072	66.817483
1314.433745	68.667133
1316.455085	70.235664
1318.475957	70.234266
1320.496363	71.180420
1322.512574	72.809091
1324.530184	75.829371
1326.545465	79.904895
1328.564005	83.262937
1330.578355	85.927273
1332.590380	89.915385
1334.605662	92.748252
1336.616759	94.950350
1338.629253	95.697902
1340.637564	94.969930
1342.649131	92.122378
1344.654658	88.356643
1346.663441	84.975524
1348.668046	81.958741
1350.675905	78.202797
1352.683302	74.514685
1354.684668	73.329371
1356.687431	70.225874
1358.689733	66.339860
1360.691576	66.028671
1362.692960	65.011189
1364.692029	61.719580
1366.690640	56.991608
1368.688793	54.584615
1370.686488	50.993007
1372.680019	48.467133
1374.674947	45.137063
1376.669418	44.572028
1378.663432	42.054545
1380.655139	39.654545
1382.646390	37.659441
1384.635336	38.275524
1386.625677	36.923077
1388.615563	35.174126
1390.603146	33.420979
1392.590275	33.042657
1394.575102	30.481119
1396.561323	31.801399
1398.545245	32.447552
1400.528714	34.534266
1402.511731	30.725874
1404.492450	31.216084
1406.474563	30.309790
1408.454379	31.474126
1410.433745	30.679021
1412.408971	31.058042
1414.387437	31.183916
1416.363609	31.630070
1418.339331	31.791608
1420.314604	31.175524
1422.287586	28.980420
1424.260120	28.725175
1426.232207	24.530769
1428.203845	26.105594
1430.171355	24.716084
1432.143940	24.859441
1434.108718	23.773427
1436.078569	25.265734
1438.044295	24.543357
1440.011415	27.477622
1441.976250	27.562937
1443.936967	26.610490
1445.902751	25.612587
1447.862580	26.012587
1449.823802	26.474825
1451.786417	26.783916
1453.744917	25.374825
1455.702975	24.329371
1457.660590	21.526573
1459.617764	22.130769
1461.572662	21.397902
1463.528952	26.083217
1465.482968	27.655245
1467.436544	29.615385
1469.387847	29.601399
1471.340542	30.574825
1473.290966	32.518182
1475.240951	31.093007
1477.190496	29.578322
1479.137773	28.432867
1481.082783	25.040559
1483.029184	23.155245
1484.975149	22.493007
1486.920675	24.053846
1488.863937	25.554545
1490.806762	26.640559
1492.747324	25.588811
1494.689277	27.420979
1496.628969	29.900699
1498.568225	30.488811
1500.507047	30.623776
1502.443608	32.037762
1504.381561	30.072727
1506.317256	30.867832
1508.252517	32.155245
1510.185521	31.827972
1512.118093	31.803497
1514.050233	30.837762
1515.981941	29.600699
1517.911395	31.840559
1519.842240	31.416084
1521.772654	30.860839
1523.698995	30.199301
1525.626726	29.397203
1527.552207	29.535664
1529.477259	31.923077
1531.401882	32.168531
1533.326076	30.966434
1535.248023	33.572727
1537.171359	37.703497
1539.092450	42.032168
1541.011296	46.636364
1542.931532	48.079720
1544.849524	51.025874
1546.767090	52.806294
1548.682414	52.917483
1550.599128	53.780420
1552.511787	54.641259
1554.427650	54.205594
1556.341273	53.908392
1558.252659	57.511189
1560.165433	59.479720
1562.074158	60.859441
1563.984273	64.852448
1565.893964	67.765734
1567.803231	71.590210
1569.710265	73.853846
1571.615066	76.282517
1573.521256	77.272028
1575.425214	78.631469
1577.328752	76.293007
1579.231868	75.523077
1581.132756	75.819580
1583.035031	73.879720
1584.935079	71.271329
1586.836515	69.359441
1588.733916	67.644056
1590.630899	64.783916
1592.527464	60.927972
1594.425417	60.776923
1596.317535	56.275524
1598.212846	55.201399
1600.107740	51.784615
1602.000412	52.059441
1603.892668	51.893706
1605.782704	52.814685
1607.672324	49.009091
1609.561529	47.562238
1611.450318	45.241958
1613.336891	42.855944
1615.224850	40.705594
1617.108793	39.474825
1618.994124	34.873427
1620.879040	35.332867
1622.761744	33.442657
1624.645833	32.418182
1626.525912	30.993007
1628.407377	28.653846
1630.286632	26.625874
1632.167273	25.587413
1634.042110	24.607692
1635.921929	25.992308
1637.797742	25.579720
1639.673145	25.846154
1641.549935	21.723776
1643.420927	25.339860
1645.295101	28.174825
1647.165277	30.283916
1649.038633	28.606993
1650.909786	26.990909
1652.778737	28.880420
1654.649074	28.525874
1656.515417	27.332168
1658.383146	27.630769
1660.248677	25.386713
1662.115592	23.135664
1663.978519	18.317483
1665.842831	21.983217
1667.704947	21.665734
1669.566659	20.702797
1671.429755	16.427273
1673.290657	16.869231
1675.149365	15.504895
1677.007670	15.313986
1678.867360	11.909790
1680.721283	15.139860
1682.578378	16.176224
1684.435071	18.654545
1686.287788	19.626573
1688.143676	18.941259
1689.995589	20.433566
1691.847102	20.665734
1693.698215	17.003497
1695.548926	17.726573
1697.399237	14.351049
1699.247364	13.966434
1701.096874	10.859441
1702.940636	14.363636
1704.789348	16.016783
1706.632313	18.611189
1708.478444	17.759441
1710.320614	17.339860
1712.165948	18.834266
1714.005542	17.464336
1715.846520	14.694406
1717.688881	15.421678
1719.527286	12.395804
1721.367074	12.083217
1723.204687	11.981119
1725.041904	13.798601
1726.876948	15.625175
1728.713375	19.090210
1730.547630	18.780420
1732.381490	19.258042
1734.214957	18.031469
1736.044477	17.981818
1737.877156	16.553846
1739.705891	17.121678
1741.537784	14.488112
1743.365734	13.388112
1745.193292	10.939860
1747.020458	10.379021
1748.847233	10.121678
1750.673617	10.252448
1752.496064	8.662238
1754.321665	9.361538
1756.143332	9.188112
1757.966381	11.950350
1759.787269	14.313287
1761.607767	15.852448
1763.429647	14.191608
1765.245827	14.069231
1767.065159	13.200699
1768.880564	14.627273
1770.699119	12.549650
1772.513749	11.455944
1774.327993	9.899301
1776.141849	11.049650
1777.955319	10.646853
1779.766636	12.054545
1781.579334	13.555245
1783.391645	13.209790
1785.200039	13.988811
1787.009814	14.480420
1788.815673	14.734965
1790.624679	15.041958
1792.429771	12.992308
1794.236243	12.283916
1796.042332	9.847552
1797.844511	11.727972
1799.649833	10.042657
1801.451247	8.807692
1803.254041	12.414685
1805.052929	13.748252
1806.853198	14.377622
1808.653085	13.861538
1810.450831	14.838462
1812.248196	14.552448
1814.045180	13.158741
1815.841784	11.804196
1817.636249	10.578322
1819.432093	12.046853
1821.222283	11.014685
1823.017369	11.595804
1824.806802	14.888112
1826.599372	14.208392
1828.389807	13.210490
1830.178108	13.459441
1831.969544	12.804196
1833.755334	12.233566
1835.542504	13.029371
1837.327542	12.729371
1839.115714	13.326573
1840.900000	13.591608
1842.682157	14.430769
1844.465692	14.995804
1846.247099	13.350350
1848.029885	11.402797
1849.808791	9.055245
1851.589075	8.095804
1853.367233	7.853846
1855.146770	9.763636
1856.924182	11.957343
1858.699470	12.533566
1860.476137	11.336364
1862.250681	12.825175
1864.026602	12.632867
1865.796904	11.502098
1867.570332	10.365734
1869.341641	9.402797
1871.112580	8.868531
1872.884895	9.225175
1874.651598	10.105594
1876.421425	12.397203
1878.187389	13.851049
1879.956477	15.386713
1881.721703	14.162937
1883.486561	15.886713
1885.252795	14.431469
1887.015171	12.890210
1888.777180	9.839860
1890.538822	7.146154
1892.300096	5.912587
1894.061003	5.773427
1895.821544	3.367832
1897.579975	6.074825
1899.338041	9.079021
1901.093998	12.640559
1902.851333	15.247552
1904.608301	16.625175
1906.363164	15.376923
1908.115921	15.180420
1909.868315	14.552448
1911.622084	13.594406
1913.373750	12.957343
1915.123314	13.751748
1916.874254	12.293007
1918.624830	13.708392
1920.371568	13.479021
1922.119681	13.566434
1923.865695	9.465734
1925.613085	5.325175
1927.358376	3.003497
1929.101570	4.339161
1930.846140	4.574825
1932.588613	5.502098
1934.330726	5.739161
1936.072479	9.441259
1937.813873	13.126573
1939.553173	14.372727
1941.292114	15.530769
1943.030696	15.099301
1944.767186	13.070629
1946.503319	13.830070
1948.240826	13.313287
1949.974512	12.625175
1951.709571	11.610490
1953.442543	11.325874
1955.175158	9.336364
1956.907416	9.453846
1958.639318	9.353846
1960.369134	8.655944
1962.096866	8.673427
1963.825971	9.610490
1965.554722	9.274825
1967.281389	9.622378
1969.007702	8.818881
1970.735388	9.415385
1972.457538	10.420979
1974.182789	12.579021
1975.904234	14.679021
1977.628778	13.600699
1979.351243	12.949650
1981.069904	13.310490
1982.791664	13.047552
1984.509622	12.486014
1986.228954	8.766434
1987.944485	7.927273
1989.664838	6.365035
1991.381391	6.975524
1993.094149	7.425874
1994.810002	10.958741
1996.523782	13.573427
1998.237213	14.201399
1999.948573	15.697902
2001.661306	17.334266
2003.370247	17.509790
2005.082282	16.548252
2006.788807	10.404196
2008.498425	12.935664
2010.205975	13.422378
2011.913178	13.779021
2013.618315	14.028671
2015.323105	14.400000
2017.029267	14.065734
2018.731647	13.995804
2020.435399	13.239860
2022.137087	17.078322
2023.838431	17.457343
2025.539429	18.176923
2027.238367	16.293007
2028.938675	21.805594
2030.635209	22.790909
2032.333114	22.720280
2034.028961	20.704196
2035.727892	19.013986
2037.421338	18.383916
2039.116156	16.306993
2040.810630	14.091608
2042.501336	16.228671
2044.195126	14.681119
2045.885149	14.255944
2047.576543	11.005594
2049.265884	9.877622
2050.956595	11.202098
2052.643544	11.513986
2054.330152	9.925874
2056.018131	11.274126
2057.702350	13.368531
2059.387939	15.073427
2061.073189	14.283916
2062.756391	13.739161
2064.440962	12.367133
2066.120071	11.066434
2067.803965	8.998601
2069.482399	10.015385
2071.163909	11.364336
2072.841669	10.499301
2074.519091	9.144755
2076.197884	10.010490
2077.874633	11.720979
2079.549341	14.016084
2081.225418	10.638462
2082.899455	10.317483
2084.573156	10.204895
2086.246522	12.846154
2087.917850	13.160140
2089.588843	13.830769
2091.259502	11.251049
2092.929826	11.306294
2094.599817	10.812587
2096.267772	11.202797
2097.935394	11.029371
2099.600982	10.839860
2101.267938	10.247552
2102.932861	11.227972
2104.597451	11.677622
2106.260010	14.608392
2107.923937	13.086713
2109.585834	13.446853
2111.247399	10.409091
2112.908634	11.189510
2114.567839	12.244056
2116.226715	13.020280
2117.885260	14.090909
2119.543476	14.808392
2121.197968	15.243357
2122.855525	15.057343
2124.512753	12.937762
2126.166259	13.827972
2127.821133	12.031469
2129.472289	13.793007
2131.126506	12.937063
2132.777007	14.735664
2134.428874	16.584615
2136.075333	17.795804
2137.726547	19.749650
2139.374047	19.095804
2141.022914	18.325874
2142.669763	17.526573
2144.316285	13.802797
2145.962482	12.919580
2147.604971	12.713986
2149.250518	13.572028
2150.892358	12.369231
2152.537255	11.100000
2154.178447	10.390909
2155.819315	10.261538
2157.459860	10.718182
2159.098392	9.143357
2160.738290	8.913986
2162.374488	10.431469
2164.012052	9.869231
2165.649293	12.437762
2167.284525	16.022378
2168.919436	17.293706
2170.554025	17.095105
2172.188292	18.776923
2173.818867	18.944056
2175.452492	20.297902
2177.082426	22.433566
2178.713725	20.193007
2180.343020	18.700000
2181.971994	19.255944
2183.600650	15.511888
2185.228986	15.727972
2186.855319	13.906993
2188.481334	11.919580
2190.105348	11.611888
2191.730726	12.480420
2193.354105	11.809790
2194.978847	13.739161
2196.599909	12.748951
2198.220654	10.340559
2199.842764	9.909091
2201.462876	9.383217
2203.080991	8.637063
2204.698791	9.511888
2206.316276	10.411189
2207.933445	11.804196
2209.550299	14.953846
2211.166838	14.823077
2212.781383	13.554545
2214.393936	11.813287
2216.007853	9.684615
2217.619779	9.204895
2219.233068	8.079720
2220.844367	9.404895
2222.453676	10.486014
2224.064349	11.995804
2225.673033	14.419580
2227.281405	15.536364
2228.887789	17.851049
2230.495537	18.597902
2232.101298	17.981818
2233.706748	18.062937
2235.310214	17.204895
2236.915042	16.830769
2238.517886	14.172028
2240.118747	14.353147
2241.720971	12.160839
2243.321212	11.406993
2244.922816	9.060140
2246.520768	9.737063
2248.120082	11.217483
2249.717416	13.556643
2251.314442	14.618182
2252.912829	15.879021
2254.507568	17.237063
2256.100331	19.195105
2257.694455	16.254545
2259.289941	16.000699
2260.881783	13.736364
2262.473318	11.249650
2264.066214	8.884615
2265.653801	9.044755
2267.246085	7.392308
2268.833061	8.682517
2270.423066	8.339860
2272.007766	8.592308
2273.597160	9.967832
2275.181251	11.962937
2276.766704	10.906294
2278.350187	12.441259
2279.936697	12.652448
2281.519573	14.884615
2283.102145	16.922727
2284.684414	18.364336
2286.263054	17.759790
2287.844717	21.132168
2289.422752	20.289161
2291.003810	21.609790
2292.581242	19.645804
2294.156710	16.851049
2295.735199	12.319231
2297.310065	11.201399
2298.884630	9.495455
2300.458895	10.169231
2302.032859	9.033916
2303.606523	9.048951
2305.179886	6.293706
2306.749631	10.462238
2308.319077	11.160839
2309.891542	13.776224
2311.458731	13.767133
2313.028939	10.606993
2314.595532	11.573427
2316.163485	14.530070
2317.729483	13.864336
2319.295182	14.806294
2320.860585	15.318182
2322.424034	19.002098
2323.988841	19.234965
2325.550041	22.554545
2327.114255	23.359441
2328.673208	24.127972
2330.235174	23.146853
2331.795190	20.843357
2333.354910	21.849650
2334.912681	19.393706
2336.470158	13.939860
2338.027339	12.618881
2339.582574	13.283916
2341.137514	15.857343
2342.692161	14.360839
2344.246514	15.011888
2345.800573	15.026573
2347.354338	15.688811
2348.906160	14.897902
2350.456038	15.944056
2352.008924	14.918881
2353.556568	11.820979
2355.107219	8.246853
2356.654280	7.994406
2358.202698	6.727972
2359.750824	6.653846
2361.295363	4.676224
2362.841259	8.111888
2364.385216	9.304196
2365.930531	11.101399
2367.472261	11.387413
2369.015348	13.900699
2370.556500	13.565035
2372.097362	12.996503
2373.637935	11.245455
2375.178219	10.088811
2376.718214	8.251049
2378.254630	7.895105
2379.794048	7.441958
2381.329889	8.826573
2382.867086	9.797902
2384.400709	12.042657
2385.937331	13.723776
2387.472022	14.108392
2389.004784	14.790909
2390.537260	17.258042
2392.067807	17.474825
2393.601352	17.154545
2395.129686	16.101399
2396.659376	14.323077
2398.188781	11.928671
2399.717900	8.722378
2401.246735	9.753846
2402.770365	9.278322
2404.298630	7.235664
2405.821692	7.927273
2407.349388	9.762937
2408.870245	14.468531
2410.395735	14.373427
2411.917664	16.588811
2413.440949	17.376923
2414.962313	17.019580
2416.481757	16.516783
2418.002556	16.334266
2419.521436	15.865035
2421.040034	13.824476
2422.556715	12.770629
2424.074750	13.007692
2425.592504	13.413986
2427.106707	15.308392
2428.620629	13.917483
2430.134272	16.916084
2431.649268	16.420280
2433.160716	16.279021
2434.673519	16.093706
2436.184409	16.971329
2437.695019	14.219580
2439.203718	12.606294
2440.715404	11.515385
2442.223546	11.437762
2443.731409	13.163636
2445.238995	12.454545
2446.743040	12.734965
2448.250071	13.800699
2449.755193	12.320979
2451.260038	11.876923
2452.762976	12.762937
2454.265637	12.616084
2455.768022	9.114685
2457.268502	7.936364
2458.770335	7.423077
2460.270264	8.888112
2461.769917	7.797902
2463.269295	7.879021
2464.766769	7.644755
2466.262343	8.183217
2467.760896	7.425175
2469.255920	7.595105
2470.752298	9.136364
2472.245149	9.173427
2473.739352	8.671329
2475.233282	9.494406
2476.723689	11.053846
2478.217072	13.380420
2479.708558	12.105594
2481.198147	12.289510
2482.687464	11.155944
2484.174886	13.327273
2485.665283	12.686713
2487.152161	13.947552
2488.640391	14.815385
2490.125105	13.076224
2491.609548	12.297902
2493.095343	10.995105
2494.579245	9.944056
2496.064499	9.361538
2497.544619	8.337063
2499.027711	6.900699
2500.508913	5.886014
2501.989846	8.232168
2503.468890	8.147552
2504.947666	10.253846
2506.426172	9.179720
2507.904411	7.628671
2509.382381	7.259441
2510.856847	6.954545
2512.334281	5.983217
2513.808212	7.664336
2515.283494	8.137762
2516.758508	8.180420
2518.230021	8.260140
2519.702885	9.821678
2521.173865	9.916084
2522.646196	11.560839
2524.113414	9.487413
2525.583597	8.460140
2527.051900	8.369930
2528.519938	8.974825
2529.987711	8.955944
2531.455219	10.603497
2532.922462	11.019580
2534.386213	12.164336
2535.851315	13.169930
2537.314538	13.526573
2538.779112	13.939161
2540.240196	13.304196
2541.702630	10.151049
2543.164801	9.811888
2544.623486	9.712587
2546.086743	10.537063
2547.544903	9.478322
2549.004412	10.927972
2550.458828	11.369231
2551.917813	12.411888
2553.374927	12.612587
2554.830170	12.437063
2556.285152	12.481119
2557.738264	10.747552
2559.192725	9.430070
2560.645317	9.931469
2562.097649	10.077622
2563.548113	11.456643
2565.001533	8.734266
2566.449871	9.693007
2567.901165	7.946853
2569.350592	7.369231
2570.796548	5.932867
2572.245458	6.518182
2573.690897	6.555944
2575.137685	9.561538
2576.582609	10.820979
2578.027276	12.660839
2579.473290	13.018881
2580.915837	11.248252
2582.359732	11.246154
2583.800162	11.441958
2585.241940	11.030070
2586.681857	10.860140
2588.123122	11.046853
2589.560926	12.374825
2591.001679	12.465734
2592.437369	13.235664
2593.876009	12.918881
2595.312792	11.683217
2596.747718	7.541259
2598.185593	6.472028
2599.618410	7.846853
2601.052573	7.642657
2602.484883	7.856643
2603.918539	8.113287
2605.350342	9.748951
2606.781892	10.958042
2608.213188	10.519580
2609.642633	9.683217
2611.071825	12.471329
2612.499166	12.699301
2613.927854	12.631469
2615.356289	15.313287
2616.781277	17.137063
2618.207612	18.376923
2619.632098	17.361538
2621.057930	18.215385
2622.480318	17.939860
2623.904052	17.248252
2625.325940	16.369231
2626.747577	15.416783
2628.167369	15.453846
2629.588507	15.131469
2631.009395	16.486713
2632.426845	17.734266
2633.847234	17.341259
2635.264186	18.567832
2636.680890	10.748252
2638.097345	20.537063
2639.513552	26.113986
2640.929510	32.886014
2642.343628	36.731469
2643.757499	39.987413
2645.169530	39.661538
2646.582906	38.341958
2647.992852	35.240559
2649.405733	30.737762
2650.815187	23.905594
2652.224394	17.930769
2653.631765	8.553147
2655.042070	17.423077
2656.450539	15.932867
2657.857173	18.680420
2659.263562	21.692308
2660.668117	24.983916
2662.074016	24.794406
2663.478082	27.763636
2664.881904	27.829371
2666.285481	31.446853
2667.687226	32.039161
2669.090315	31.164336
2670.489987	30.518182
2671.891001	30.027972
2673.288600	26.626573
2674.689129	25.500699
2676.086243	23.207692
2677.484700	21.998601
2678.881329	20.173427
2680.277716	20.767832
2681.673862	19.262937
2683.068181	21.609790
2684.463843	20.468531
2685.856095	19.828671
2687.249691	20.006294
2688.641462	18.288811
2690.034575	19.035664
2691.425865	18.716084
2692.815332	18.160140
2694.204560	20.242657
2695.593547	19.803497
2696.983877	18.934266
2698.369222	20.488112
2699.757491	20.321678
2701.143940	16.829371
2702.530150	17.330769
2703.916122	15.720979
2705.298695	14.404196
2706.682609	15.402098
2708.066286	14.360140
2709.449725	14.490909
2710.829768	13.882517
2712.211153	13.292308
2713.590722	14.423077
2714.971633	13.716084
2716.350729	14.615385
2717.728010	13.951748
2719.106633	17.330070
2720.483443	17.486713
2721.860017	19.790210
2723.236355	20.367832
2724.610881	18.734965
2725.986748	17.277622
2727.359228	13.962238
2728.734625	11.002098
2730.105060	9.295105
2731.476837	3.695105
2732.848380	5.860140
2734.218114	3.337762
2735.589188	6.392308
2736.958455	6.932867
2738.327488	9.673427
2739.694714	10.053147
2741.061708	9.243357
2742.428469	8.686014
2743.794997	10.948252
2745.159720	12.166434
2746.524212	14.853846
2747.888471	13.613986
2749.252499	16.715385
2750.616294	16.241958
2751.976716	16.895105
2753.340049	15.802797
2754.698439	17.531469
2756.059739	15.211888
2757.417668	12.168531
2758.778507	10.046154
2760.137545	10.346853
2761.493215	5.948252
2762.851793	8.104895
2764.207005	8.479021
2765.561987	11.664336
2766.915172	11.948252
2768.271264	14.639860
2769.623992	16.055245
2770.976491	16.512587
2772.328762	14.973427
2773.682372	12.624476
2775.032620	10.251748
2776.381075	7.295804
2777.732434	3.986014
2779.080434	8.650350
2780.429773	9.527972
2781.777319	10.293007
2783.124638	9.698601
2784.471731	11.318182
2785.817033	8.846853
2787.162109	8.646154
2788.506959	10.093706
2789.851582	10.686713
2791.192854	11.234266
2792.535464	13.740559
2793.877848	15.365734
2795.220008	17.427273
2796.558818	16.767832
2797.900527	14.258042
2799.238889	11.997902
2800.578588	10.187413
2801.916501	6.743357
2803.252630	6.172727
2804.588536	5.322378
2805.925778	6.151049
2807.261237	5.120979
2808.596473	7.936364
2809.929927	8.395804
2811.264717	9.518881
2812.596166	8.560140
2813.930511	9.220280
2815.259958	10.195804
2816.590742	11.702098
2817.921304	11.520979
2819.250087	14.404196
2820.580207	13.536364
2821.908547	14.359441
2823.236667	13.396503
2824.563010	12.686014
2825.890688	11.293007
2827.215034	9.835664
2828.540715	7.437762
2829.864621	9.077622
2831.188308	9.441958
2832.513330	10.111189
2833.835023	10.775524
2835.156496	12.241958
2836.477751	11.893706
2837.798787	11.704196
2839.118051	11.767832
2840.438650	9.855944
2841.757477	9.921678
2843.076086	10.227972
2844.392925	11.493706
2845.709546	12.448951
2847.025949	11.987413
2848.340584	11.688811
2849.656553	11.525175
2850.969202	10.268531
2852.283187	9.293007
2853.596955	6.431469
2854.910506	7.856643
2856.222290	7.341958
2857.532309	8.962937
2858.843661	10.287413
2860.151699	8.687413
2861.461072	7.899301
2862.770229	7.584615
2864.079171	7.701399
2865.386350	5.877622
2866.691765	6.172727
2867.998515	6.882517
2869.303502	8.129371
2870.608276	10.936364
2871.911288	11.498601
2873.217182	12.879720
2874.518220	12.134965
2875.820593	11.197203
2877.121206	11.829371
2878.423153	10.098601
2879.724887	9.550350
2881.023317	8.209790
2882.323080	10.589510
2883.621085	11.168531
2884.918879	9.369930
2886.214917	8.969231
2887.512288	9.024476
2888.807903	9.478322
2890.103307	7.005594
2891.398501	7.595105
2892.690396	7.326573
2893.985168	7.774126
2895.276643	10.644755
2896.569452	11.084615
2897.862049	13.081818
2899.151353	12.532867
2900.441989	12.689510
2901.730874	14.944755
2903.021092	16.336364
2904.308018	16.469231
2905.596276	12.176923
2906.882784	12.180420
2908.169085	10.135664
2909.455177	9.478322
2910.739521	7.964336
2912.026737	8.337063
2913.309126	9.050350
2914.592846	8.567133
2915.874821	10.160140
2917.156589	9.610490
2918.436611	10.315385
2919.719503	9.475524
2921.000650	7.365035
2922.278515	7.106993
2923.559249	6.416783
2924.836702	7.079720
2926.113950	8.095804
2927.389455	10.667133
2928.667828	12.138462
2929.941386	12.426573
2931.217812	12.851748
2932.492497	11.467832
2933.765442	13.480420
2935.039717	13.260839
2936.312253	12.668531
2937.584585	10.976923
2938.853644	10.595804
2940.125567	9.085315
2941.395753	8.508392
2942.665736	8.629371
2943.935515	9.359441
2945.203557	8.863636
2946.469864	10.203497
2947.735968	13.351748
2949.003402	16.770629
2950.269102	18.058741
2951.534599	16.853846
2952.799894	14.958042
2954.061924	14.334965
2955.325285	10.748252
2956.588444	9.511189
2957.849870	8.081818
2959.112626	6.287413
2960.373651	4.831469
2961.632945	6.458741
2962.892038	6.049650
2964.150931	6.499301
2965.409624	5.984615
2966.668117	6.323077
2967.924881	6.307692
2969.181445	6.218881
2970.436282	6.527273
2971.692448	8.186713
2972.945358	8.538462
2974.199598	11.167832
2975.453639	9.434266
2976.705954	10.114685
2977.958071	9.746154
2979.208463	10.165734
2980.461710	9.314685
2981.710180	9.579021
2982.961504	9.579720
2984.209580	9.848951
2985.457458	10.195804
2986.705139	10.551049
2987.952624	8.952448
2989.198387	10.065734
2990.443953	7.495105
2991.690848	7.962238
2992.934497	7.488112
2994.179475	5.316084
2995.421210	5.023776
2996.665796	4.566434
2997.908662	7.960839
2999.148288	9.083916
3000.390765	9.824476
3001.630001	10.848252
3002.870565	7.166434
3004.109412	8.887413
3005.348065	8.484615
3006.585002	8.905594
3007.823266	8.169231
3009.059816	7.297902
3010.296171	8.172028
3011.532333	7.933566
3012.766782	7.688112
3014.001037	7.011189
3015.235099	4.258741
3016.467449	2.395105
3017.698087	-0.562238
3018.931571	1.884615
3020.163343	2.064336
3021.393405	4.767133
3022.623275	6.310490
3023.851435	9.480420
3025.080921	10.323077
3026.308699	10.218881
3027.536285	10.260839
3028.765197	9.851748
3029.989367	6.615385
3031.216380	5.306993
3032.440170	3.672727
3033.665285	2.697902
3034.888694	0.932168
3036.111914	0.953846
3037.333428	-1.091608
3038.557783	0.755245
3039.777403	0.874126
3040.998348	3.031469
3042.219105	4.445455
3043.438158	5.900699
3044.658537	5.500699
3045.875699	5.843357
3047.094186	4.958741
3048.310972	6.246154
3049.527569	4.456643
3050.743979	3.383217
3051.957175	0.683217
3053.173209	4.032168
3054.386031	5.303497
3055.601690	6.144755
3056.812626	5.855245
3058.024887	7.368531
3059.236962	6.120280
3060.448850	5.950350
3061.659040	5.362238
3062.869045	6.454545
3064.078863	3.845455
3065.286985	3.245455
3066.494921	2.062937
3067.701163	5.661538
3068.908728	5.890210
3070.114600	6.960839
3071.320286	5.936364
3072.525787	6.193706
3073.729596	5.052448
3074.934728	5.535664
3076.138167	4.139161
3077.339914	3.150350
3078.541478	2.404895
3079.742858	2.337063
3080.944054	2.542657
3082.143560	2.253846
3083.342882	2.245455
3084.543528	5.232168
3085.742485	4.038462
3086.938246	5.234266
3088.136837	4.490210
3089.332234	4.365035
3090.528954	4.331469
3091.722482	3.870629
3092.918839	2.818881
3094.113508	1.483217
3095.304987	1.484615
3096.500797	1.689510
3097.691914	2.443357
3098.884353	4.483916
3100.073605	2.027972
3101.265683	2.306993
3102.456076	0.670629
3103.643284	1.243357
3104.831815	1.360839
3106.021668	-0.416783
3107.208336	-2.573427
3108.394825	-1.298601
3109.581134	0.178322
3110.768765	1.493007
3111.953215	0.836364
3113.135984	3.484615
3114.321577	1.616084
3115.505489	1.513287
3116.687723	1.506993
3117.869779	1.249650
3119.051656	1.122378
3120.233355	2.650350
3121.413376	1.904895
3122.591721	3.321678
3123.772887	2.086014
3124.950877	4.300699
3126.128690	3.145455
3127.306326	6.197203
3128.482287	4.072028
3129.658072	4.302797
3130.835177	3.108392
3132.010608	2.813986
3133.184366	3.595804
3134.356452	2.920280
3135.529858	1.883217
3136.703089	1.581818
3137.874647	-0.585315
3139.047527	0.137762
3140.217239	-2.827972
3141.388272	-1.093007
3142.557634	-2.879720
3143.725327	-1.658042
3144.895835	-0.853846
3146.061684	0.690909
3147.231843	0.953147
3148.397344	0.320280
3149.562672	3.066434
3150.727826	3.811888
3151.892806	2.289510
3153.059107	3.107692
3154.220754	2.427273
3155.383722	2.174825
3156.546516	0.340559
3157.709138	-0.615385
3158.870095	-0.486014
3160.030879	-1.373427
3161.191491	0.322378
3162.350440	0.751748
3163.509216	1.579720
3164.667821	-0.214685
3165.826254	-2.889510
3166.984515	-2.758741
3168.141114	-2.824476
3169.296052	-3.078322
3170.452309	-3.485315
3171.606906	-2.881818
3172.761331	-3.776224
3173.914097	-2.724476
3175.066693	0.533566
3176.219118	0.883217
3177.371374	2.379021
3178.523460	2.893706
3179.672399	2.257343
3180.824145	2.851049
3181.974234	3.003497
3183.122665	3.193007
3184.270928	2.139161
3185.419021	-1.843357
3186.566946	-4.203497
3187.713216	-4.686014
3188.859317	-3.486014
3190.003763	-1.662238
3191.148042	1.902797
3192.292153	5.072028
3193.437582	5.139860
3194.579872	6.460839
3195.721994	5.143357
3196.863950	4.894406
3198.005738	2.427972
3199.147359	-1.132168
3200.285844	-0.400000
3201.425647	-0.763636
3202.566768	-0.362238
3203.704754	1.432168
3204.841091	1.551748
3205.977262	2.355245
3207.114751	1.525175
3208.250591	2.609091
3209.387747	1.707692
3210.520291	1.514685
3211.657117	-0.600699
3212.789331	-0.909790
3213.922863	-1.023077
3215.056229	1.649650
3216.186468	2.872727
3217.319505	3.606294
3218.449416	3.316783
3219.580644	5.034266
3220.708746	5.278322
3221.839645	6.413986
3222.968901	6.239860
3224.096512	5.761538
3225.221002	4.218881
3226.349767	4.702797
3227.475410	3.720979
3228.600890	5.823077
3229.724729	4.182517
3230.851362	1.462238
3231.973398	0.820280
3233.096750	1.469231
3234.219940	0.012587
3235.342968	-1.570629
3236.464356	-2.412587
3237.585583	-0.960839
3238.705171	-3.188112
3239.824598	-0.912587
3240.942387	-0.483217
3242.062969	-0.407692
3243.180436	-1.931469
3244.297744	-1.664336
3245.414890	0.452448
3246.530401	3.050350
3247.647227	2.858741
3248.760942	3.107692
3249.877448	3.304196
3250.992318	4.716783
3252.104080	2.405594
3253.215683	3.916783
3254.328600	1.593007
3255.441359	1.409091
3256.551011	0.486713
3257.661978	1.539161
3258.772786	0.649650
3259.881962	-2.458741
3260.989507	-0.207692
3262.098367	2.583916
3263.207068	3.196503
3264.312667	5.406993
3265.419581	4.221678
3266.524865	6.315385
3267.631463	7.427273
3268.734961	8.739860
3269.839773	6.939860
3270.944428	5.260839
3272.045984	2.427972
3273.147385	-0.461538
3274.250099	2.969930
3275.352656	3.531469
3276.452118	2.292308
3277.554362	3.734965
3278.653512	2.112587
3279.751036	4.409790
3280.848405	2.402098
3281.948557	0.793007
3283.045615	-0.706294
3284.142518	-0.958741
3285.239267	0.643357
3286.331456	0.669231
3287.427895	1.027273
3288.522711	1.588811
3289.617372	0.310490
3290.710412	4.115385
3291.803298	2.509790
3292.894563	2.769231
3293.987141	2.048252
3295.078098	2.985315
3296.167437	1.881119
3297.256621	2.174126
3298.347119	1.345455
3299.434532	1.294406
3300.521793	-0.998601
3301.610366	-3.838462
3302.698786	-5.265035
3303.782659	-4.286014
3304.870774	-5.499301
3305.955808	-4.579021
3307.039226	-2.671329
3308.123955	-1.509790
3309.207070	-0.481119
3310.291496	0.600000
3311.372844	-0.495105
3312.455504	-1.604895
3313.536550	-3.397902
3314.617445	-6.863636
3315.696727	-6.474825
3316.775858	-7.231469
3317.856300	-5.851748
3318.933669	-4.649650
3320.012349	-4.541259
3321.089417	-2.604895
3322.166335	-1.817483
3323.241642	-1.046154
3324.316800	-2.211888
3325.393270	-4.514685
3326.466668	-4.286713
3327.539918	-4.643357
3328.614479	-3.688811
3329.687430	-3.475524
3330.758774	-1.651049
3331.831428	0.548252
3332.901015	-0.076923
3333.971913	0.971329
3335.041204	1.298601
3336.111806	0.883916
3337.180801	0.374126
3338.248190	0.923077
3339.313974	-0.923077
3340.383984	-0.687413
3341.450931	-1.424476
3342.514816	-1.553147
3343.581469	-0.665035
3344.646517	-0.155245
3345.709963	-1.363636
3346.773261	-2.074825
3347.836414	-3.923077
3348.899420	-5.439161
3349.962279	-3.986014
3351.023537	-4.223776
3352.081738	-6.700000
3353.144160	-4.804895
3354.203525	-4.136364
3355.262745	-2.939860
3356.323275	-1.816783
3357.379295	-0.911189
3358.438080	-1.782517
3359.492357	-2.108392
3360.549397	-4.640559
3361.604840	-5.586014
3362.661591	-5.857343
3363.716745	-6.006294
3364.770301	-6.762937
3365.822260	-5.748252
3366.876981	-4.830769
3367.928653	-2.553846
3368.980182	-2.315385
3370.033020	-2.672028
3371.082810	-4.268531
3372.133908	-6.231469
3373.181961	-6.886014
3374.232774	-7.028671
3375.280541	-6.042657
3376.328166	-5.615385
3377.375649	-5.527972
3378.421538	-3.516084
3379.468736	-2.238462
3380.512892	-2.062238
3381.559806	-3.164336
3382.605128	-5.941259
3383.647410	-8.697203
3384.689550	-10.040559
3385.732998	-8.122378
3386.776306	-7.942657
3387.818023	-8.904196
3388.859599	-9.403497
3389.901035	-9.312587
3390.940881	-10.327273
3391.979140	-11.537762
3393.018706	-9.786014
3394.058131	-7.671329
3395.095970	-8.488811
3396.132221	-7.395804
3397.168332	-4.763636
3398.205751	-3.997203
3399.240137	-4.668531
3400.275830	-8.714685
3401.311384	-8.632168
3402.343907	-12.385315
3403.379183	-14.660839
3404.411428	-16.224476
3405.443535	-14.201399
3406.474058	-13.676923
3407.505889	-11.921678
3408.537580	-8.883217
3409.566245	-6.804196
3410.594771	-6.817483
3411.624605	-4.954545
3412.654300	-4.277622
3413.680970	-2.081119
3414.708947	-3.497902
3415.733899	-2.236364
3416.761601	-3.822378
3417.786280	-3.232867
3418.812265	-2.843357
3419.836670	-2.660839
3420.860939	-3.120979
3421.883629	-3.723776
3422.906183	-4.962238
3423.930043	-5.350350
3424.950883	-6.388112
3425.971588	-7.610190
3426.993598	-8.382368
3428.012590	-8.426673
3429.031447	-7.465135
3430.051609	-5.219780
3431.068755	-1.412637
