-118.187858	-3.202198
-115.518258	-1.619780
-112.851593	-0.252048
-110.185680	0.875125
-107.522699	1.735864
-104.858289	2.304296
-102.196809	2.554545
-99.533899	1.730769
-96.876097	1.532168
-94.216864	0.804196
-91.558380	-0.165734
-88.902821	-2.209091
-86.245833	-3.607692
-83.593942	-3.947552
-80.940622	-0.683217
-78.290222	-0.206993
-75.638392	-0.602797
-72.991653	-0.174126
-70.343484	-2.270629
-67.696059	-2.592308
-65.051547	-3.053147
-62.405607	-2.867832
-59.764748	-2.199301
-57.122460	-1.034965
-54.483080	-1.204196
-51.842272	0.572727
-49.202204	2.575524
-46.567208	1.474126
-43.930783	1.378322
-41.297262	0.051748
-38.662312	-0.813986
-36.032427	-0.590210
-33.398950	1.461538
-30.770535	2.951748
-28.142853	4.663636
-25.513744	5.488811
-22.889691	1.268531
-20.262049	-10.409790
-17.639460	-29.154545
-15.017602	-21.348951
-12.396476	55.575524
-9.776079	173.334266
-7.158570	267.946154
-4.539633	333.611888
-1.923582	367.523077
0.691741	370.032867
3.306337	340.304196
5.918050	280.656643
8.531192	194.372727
11.139300	87.900000
13.750990	-9.627972
16.357649	-54.791608
18.965736	-36.481119
21.573099	-5.965035
24.175437	-3.104895
26.781353	-0.451748
29.382247	-1.139161
31.984570	-0.820979
34.581874	-0.565734
37.182754	0.658741
39.778620	3.081119
42.375913	3.314685
44.972487	2.375524
47.564052	1.205594
50.157045	-0.840559
52.747177	-2.463636
55.338737	-4.114685
57.927437	-5.786713
60.517564	-7.534266
63.102693	-9.211189
65.689249	-8.155245
68.275090	-7.553147
70.858078	-4.930769
73.442493	-5.135664
76.019778	-4.947552
78.600630	-4.392308
81.178633	-5.206993
83.755926	-4.795105
86.334645	-3.565734
88.908383	-4.048252
91.483547	-3.820280
94.055868	-2.271329
96.627481	-0.320280
99.196255	1.402797
101.766455	2.814685
104.333816	0.748951
106.902604	-0.051748
109.468554	-2.301399
112.031670	-3.997203
114.598342	-4.802797
117.155793	-3.734965
119.718929	-4.804895
122.277106	-1.933566
124.838836	1.307692
127.395611	6.286014
129.953811	10.932168
132.507059	16.559441
135.059608	22.374126
137.615708	27.965035
140.166861	32.904196
142.717315	36.598601
145.267073	41.808392
147.814011	47.806993
150.360253	49.218182
152.907922	53.106993
155.454894	54.612587
157.996930	56.781119
160.538273	56.460140
163.078924	55.282517
165.620999	55.225874
168.160264	52.900000
170.696719	50.912587
173.232484	49.558042
175.769674	51.882517
178.306172	52.680420
180.839865	51.188811
183.370755	54.279720
185.900956	55.862238
188.432582	56.478322
190.961407	57.094406
193.487433	55.655245
196.012774	54.367832
198.539539	53.746154
201.063508	53.493007
203.586791	53.523776
206.109390	52.676224
208.629196	51.796503
211.148319	50.632867
213.666759	51.427273
216.186623	52.013986
218.699486	50.805594
221.215880	50.407692
223.731592	48.411888
226.242415	46.027972
228.754662	47.175524
231.264126	47.338462
233.772912	46.370629
236.281020	45.986713
238.790551	48.422378
241.295203	51.428671
243.799178	54.054545
246.304577	58.081119
248.805101	58.531469
251.309148	60.975524
253.806225	60.504895
256.306824	59.562937
258.804652	59.046853
261.301807	58.245455
263.798289	55.688112
266.289909	54.127972
268.785047	54.097902
271.277420	54.047552
273.769122	53.122378
276.258061	54.091608
278.748423	53.381119
281.236024	54.420280
283.720865	54.869930
286.209220	55.202797
288.690636	55.345455
291.175566	56.474825
293.655651	57.650350
296.139248	57.058741
298.618002	58.270629
301.098180	57.983916
303.575605	60.051049
306.052367	62.213986
308.528466	62.665734
311.001816	66.128671
313.474504	68.765035
315.946531	70.334266
318.417897	70.354545
320.886519	70.765734
323.354481	70.905594
325.823866	69.954545
328.288428	67.826573
330.756493	65.166434
333.219739	63.796503
335.682328	61.323776
338.144259	61.238462
340.605534	60.453147
343.064075	61.662238
345.524038	61.646154
347.981269	62.370629
350.437844	62.835664
352.893766	63.553846
355.346959	64.767832
357.801573	63.842657
360.251386	63.888112
362.704696	62.336364
365.153206	60.332867
367.601066	60.500699
370.050347	60.462238
372.494835	63.600699
374.940745	63.717483
377.386006	64.803497
379.828548	63.225874
382.270442	63.313986
384.711688	63.205594
387.150219	63.079720
389.590172	62.713287
392.027411	59.944755
394.461938	57.791608
396.899953	58.980420
399.333191	61.639161
401.767851	60.734266
404.197737	61.581119
406.631109	62.737063
409.059711	61.782517
411.487672	62.984615
413.917053	63.153147
416.341669	63.965734
418.767707	64.639161
421.193104	64.702098
423.617861	64.513986
426.037860	64.867832
428.459280	63.697203
430.878003	60.742657
433.298147	61.748951
435.715596	61.183916
438.134465	59.977622
440.550641	61.055245
442.962070	60.654545
445.376975	61.136364
447.789190	61.982517
450.200771	62.137063
452.611718	62.293706
455.019979	61.634965
457.427607	59.941259
459.834604	57.895105
462.240968	57.569231
464.644650	55.751748
467.047702	54.672727
469.450124	56.318881
471.851917	56.732168
474.251031	58.025874
476.651565	58.848252
479.051470	60.230070
481.446652	61.558042
483.845301	62.923776
486.239230	62.779720
488.632533	62.110490
491.025210	61.343357
493.417262	59.146853
495.810733	56.022378
498.199491	53.835664
500.585583	50.300000
502.973095	46.549650
505.359983	42.288112
507.744208	41.789510
510.129852	39.505594
512.512833	38.991608
514.893154	35.670629
517.274894	35.136364
519.653975	34.371329
522.034475	33.475524
524.412317	31.389510
526.787504	31.726573
529.162073	30.233566
531.538061	28.437762
533.911395	28.762238
536.286148	30.916084
538.656214	30.961538
541.025665	30.413986
543.396535	29.102797
545.762723	30.048252
548.130330	29.869231
550.495291	29.397203
552.859639	28.269930
555.223375	29.625175
557.588528	27.565035
559.949008	27.124476
562.310907	28.555245
564.670166	31.349650
567.026786	31.123776
569.386851	30.669930
571.740226	29.167832
574.097045	26.830070
576.451228	24.799301
578.804804	23.552448
581.157771	21.102797
583.508107	20.881818
585.859859	19.611189
588.204935	20.714685
590.555475	22.951049
592.899342	25.362238
595.248669	24.875524
597.593349	26.132867
599.935404	24.769231
602.278875	24.718182
604.619724	25.086713
606.959971	25.320979
609.297597	23.740559
611.638658	22.132867
613.975082	21.355944
616.312922	22.138462
618.648144	23.166434
620.980751	21.790210
623.314775	20.217483
625.646184	20.130070
627.976995	20.026573
630.307208	21.248951
632.636823	21.934965
634.961816	22.506294
637.292250	23.575524
639.618062	24.344755
641.941268	26.471329
644.265889	28.495105
646.587906	28.273427
648.909328	27.753846
651.228147	26.467832
653.548382	26.458042
655.868024	25.723776
658.185065	23.210490
660.501515	22.251049
662.815366	20.885315
665.130632	18.497203
667.443302	17.246853
669.757387	16.631469
672.066872	15.304196
674.377773	14.520280
676.686081	16.955245
678.993801	19.065035
681.302936	20.044056
683.607478	20.135664
685.911434	21.788811
688.214803	22.732867
690.519587	21.037762
692.819785	17.988112
695.121398	17.095804
697.422425	14.737762
699.718870	12.503497
702.016731	12.183217
704.314008	14.409790
706.610702	15.606993
708.902820	13.801399
711.198349	13.867832
713.489305	15.421678
715.781675	14.182517
718.071469	11.834965
720.360684	11.436364
722.649318	11.521678
724.935381	12.927273
727.222857	15.176923
729.507763	16.606294
731.792090	19.396503
734.073849	21.039860
736.357023	21.032867
738.639618	19.549650
740.917659	18.454545
743.197113	16.397203
745.475992	15.269231
747.754295	15.942657
750.028049	16.533566
752.303217	17.704895
754.577811	19.084615
756.849846	17.697203
759.123293	19.039161
761.394183	21.847552
763.662517	21.583916
765.932264	21.018182
768.199457	19.898601
770.466079	18.924476
772.732132	19.967133
774.995632	20.256643
777.260546	21.227273
779.524890	19.927273
781.784705	22.130769
784.045933	20.670629
786.306593	22.074126
788.564706	22.169231
790.820275	22.286014
793.079235	21.289510
795.331696	19.844056
797.589524	18.512587
799.842832	18.618881
802.093601	18.436364
804.345782	19.281818
806.595425	18.630070
808.846479	21.756643
811.093022	21.464336
813.340978	21.490909
815.586398	18.656643
817.833230	18.448252
820.079501	15.444755
822.321268	14.981119
824.566417	12.958741
826.805094	12.877622
829.047154	14.057343
831.284715	14.883916
833.523687	15.418881
835.760133	17.567832
837.997991	17.469930
840.233323	17.934266
842.466131	14.867832
844.700351	15.056643
846.932049	15.311189
849.163192	16.569930
851.393780	16.804196
853.623814	18.167832
855.853293	20.360140
858.078291	20.517483
860.306664	19.612587
862.530558	19.256643
864.755862	15.520280
866.976691	15.028671
869.200892	13.389510
871.420620	14.751049
873.641759	13.704196
875.862347	15.168531
878.080425	13.516084
880.299914	13.672028
882.514936	14.460839
884.729410	15.348252
886.943337	15.244056
889.156716	15.782517
891.369549	14.802797
893.581834	16.474825
895.791618	15.762238
898.000856	15.376224
900.209548	13.674126
902.415742	16.946154
904.623345	15.293007
906.828451	15.476923
909.033013	16.472028
911.235079	17.507692
913.438555	17.606294
915.639537	19.055245
917.839978	17.781119
920.041827	14.980420
922.237284	13.105594
924.436101	11.332867
926.630480	11.757343
928.828215	13.913287
931.021515	13.648252
933.216224	12.867133
935.408447	13.712587
937.600132	14.184615
939.791279	15.823077
941.979943	17.776224
944.168070	17.165035
946.353717	16.160839
948.542716	16.565035
950.727292	16.072028
952.911333	16.511888
955.098724	14.460140
957.277812	15.185315
959.460249	16.435664
961.642153	17.060140
963.821583	18.723077
965.998540	20.665734
968.176905	22.841259
970.356676	24.428671
972.530099	24.834266
974.706868	24.436364
976.879231	22.831469
979.053000	19.601399
981.222366	17.146154
983.395077	17.125874
985.565321	16.720979
987.735037	15.797203
989.904224	16.330769
992.069014	17.220280
994.237145	19.709790
996.400882	20.799301
998.566025	20.186713
1000.728710	21.062238
1002.890868	22.398601
1005.050570	22.888811
1007.209748	24.943357
1009.370332	23.880420
1011.528461	25.947552
1013.686066	26.871329
1015.843148	27.319580
1017.999707	26.972028
1020.151886	26.572727
1022.305471	26.483916
1024.458535	24.051748
1026.609151	24.600000
1028.761172	26.056643
1030.908820	26.078322
1033.059800	28.425874
1035.206409	27.850350
1037.352500	31.546154
1039.498071	31.150350
1041.645048	31.821678
1043.785737	30.866434
1045.929754	31.998601
1048.071331	32.066434
1050.212392	30.870629
1052.354857	30.665035
1054.491043	31.627972
1056.630555	30.275524
1058.765711	30.545455
1060.904192	31.243357
1063.038320	32.142657
1065.171933	30.769231
1067.306952	30.936364
1069.437621	28.724476
1071.569695	28.650350
1073.699340	28.012587
1075.828473	27.915385
1077.957094	27.813287
1080.085204	26.586713
1082.210888	24.544056
1084.336062	24.409091
1086.462640	25.969930
1088.584881	26.137762
1090.708525	26.809091
1092.827836	26.574126
1094.952375	25.603497
1097.070669	26.683916
1099.190368	26.640559
1101.307648	26.971329
1103.424422	27.939860
1105.540689	26.887413
1107.654541	26.948951
1109.769796	25.272727
1111.880729	25.484615
1113.994973	25.611888
1116.104897	25.920979
1118.216225	25.096503
1120.327049	22.969231
1122.433556	24.487413
1124.543372	23.391608
1126.648874	24.010490
1128.755779	23.949650
1130.856469	24.718881
1132.962371	23.804895
1135.063964	21.059441
1137.166960	22.147552
1139.269455	22.676923
1141.365744	21.757343
1143.467239	19.658042
1145.564432	17.855944
1147.661126	19.517483
1149.757323	17.835664
1151.853021	18.210490
1153.948222	19.140559
1156.041026	19.850350
1158.135232	17.995105
1160.223247	19.124476
1162.316460	19.486713
1164.403485	20.039860
1166.493810	18.415385
1168.579846	20.068531
1170.669180	19.227273
1172.752333	17.407692
1174.836889	15.541259
1176.922845	15.794406
1179.004520	14.100000
1181.087597	13.602098
1183.168288	11.879720
1185.248487	13.779720
1187.328195	13.821678
1189.407412	15.951049
1191.484247	16.674825
1193.558701	19.244056
1195.636447	18.758741
1197.709922	16.866434
1199.784798	15.738462
1201.855407	15.172727
1203.927418	12.459441
1205.997052	13.490210
1208.068087	11.195105
1210.138634	13.096503
1212.204920	14.708392
1214.272607	16.141259
1216.337922	18.062238
1218.404637	19.811888
1220.467096	19.042657
1222.532840	16.680420
1224.594331	17.016084
1226.657221	15.694406
1228.717744	15.442657
1230.777784	17.454545
1232.837340	17.602098
1234.894531	19.735664
1236.951241	20.225874
1239.005588	20.104895
1241.063215	20.074126
1243.118480	19.844755
1245.169504	16.832168
1247.221928	16.331469
1249.273873	15.762937
1251.323458	14.716783
1253.372565	15.293007
1255.421194	16.797902
1257.469344	18.462238
1259.517016	17.442657
1261.560457	19.173427
1263.607173	20.503497
1265.651537	22.797203
1267.695423	24.556643
1269.736959	23.932168
1271.776145	25.581818
1273.818603	26.150350
1275.856839	27.561538
1277.896474	26.628671
1279.935634	26.024476
1281.970576	24.107692
1284.006916	21.702797
1286.040911	23.417483
1288.076305	23.136364
1290.107485	25.544755
1292.140064	26.763636
1294.172170	27.883916
1296.201936	32.362937
1298.233100	35.237762
1300.260056	37.234965
1302.288410	37.781119
1304.312560	38.008392
1306.339974	38.141259
1308.363187	38.091608
1310.387796	38.662937
1312.410072	38.913287
1314.433745	39.179021
1316.455085	40.858741
1318.475957	42.348252
1320.496363	44.881119
1322.512574	46.682517
1324.530184	47.296503
1326.545465	50.465734
1328.564005	54.286713
1330.578355	59.558741
1332.590380	62.153147
1334.605662	64.413287
1336.616759	65.441259
1338.629253	63.855944
1340.637564	64.391608
1342.649131	62.280420
1344.654658	60.949650
1346.663441	59.444056
1348.668046	56.268531
1350.675905	55.161538
1352.683302	52.998601
1354.684668	51.713986
1356.687431	49.429371
1358.689733	45.993007
1360.691576	43.576224
1362.692960	41.646853
1364.692029	39.760839
1366.690640	36.031469
1368.688793	35.230769
1370.686488	32.624476
1372.680019	31.188811
1374.674947	30.317483
1376.669418	30.059441
1378.663432	29.802797
1380.655139	27.833566
1382.646390	24.506294
1384.635336	23.593706
1386.625677	21.147552
1388.615563	20.482517
1390.603146	16.081119
1392.590275	16.063636
1394.575102	14.627972
1396.561323	16.486014
1398.545245	17.106294
1400.528714	19.416084
1402.511731	20.595105
1404.492450	20.372727
1406.474563	20.145455
1408.454379	19.755245
1410.433745	19.717483
1412.408971	21.230070
1414.387437	19.093706
1416.363609	19.469231
1418.339331	16.670629
1420.314604	16.833566
1422.287586	16.336364
1424.260120	19.250350
1426.232207	22.191608
1428.203845	22.813287
1430.171355	22.918881
1432.143940	22.160839
1434.108718	23.938462
1436.078569	21.707692
1438.044295	19.620280
1440.011415	17.732168
1441.976250	15.531469
1443.936967	15.814685
1445.902751	17.583916
1447.862580	18.835664
1449.823802	19.216783
1451.786417	18.188112
1453.744917	17.267133
1455.702975	15.395105
1457.660590	15.656643
1459.617764	15.950350
1461.572662	17.613287
1463.528952	19.718881
1465.482968	19.762937
1467.436544	20.946154
1469.387847	22.451049
1471.340542	21.436364
1473.290966	20.701399
1475.240951	19.306294
1477.190496	18.081119
1479.137773	18.160839
1481.082783	18.632168
1483.029184	20.779720
1484.975149	20.953147
1486.920675	20.092308
1488.863937	18.341958
1490.806762	17.946154
1492.747324	16.039161
1494.689277	16.282517
1496.628969	16.283916
1498.568225	15.894406
1500.507047	14.662238
1502.443608	15.525175
1504.381561	16.355944
1506.317256	18.087413
1508.252517	17.795105
1510.185521	18.506294
1512.118093	17.867133
1514.050233	18.553147
1515.981941	18.406294
1517.911395	21.645455
1519.842240	21.266434
1521.772654	21.329371
1523.698995	19.411888
1525.626726	20.437063
1527.552207	21.483916
1529.477259	23.069930
1531.401882	22.255245
1533.326076	21.881119
1535.248023	20.925175
1537.171359	23.074825
1539.092450	25.681119
1541.011296	28.638462
1542.931532	30.075524
1544.849524	34.579720
1546.767090	35.950350
1548.682414	37.902098
1550.599128	39.841259
1552.511787	41.536364
1554.427650	40.128671
1556.341273	39.089510
1558.252659	40.723077
1560.165433	42.638462
1562.074158	43.606294
1563.984273	43.760839
1565.893964	44.301399
1567.803231	46.265734
1569.710265	46.788811
1571.615066	46.116783
1573.521256	46.393706
1575.425214	45.476923
1577.328752	43.304895
1579.231868	42.278322
1581.132756	43.095804
1583.035031	45.464336
1584.935079	45.372028
1586.836515	44.567133
1588.733916	44.837063
1590.630899	44.272727
1592.527464	43.038462
1594.425417	40.379021
1596.317535	37.694406
1598.212846	34.639860
1600.107740	31.738462
1602.000412	29.357343
1603.892668	28.332867
1605.782704	29.402797
1607.672324	28.909790
1609.561529	28.733566
1611.450318	28.164336
1613.336891	27.370629
1615.224850	25.576224
1617.108793	24.353846
1618.994124	21.875524
1620.879040	19.939161
1622.761744	19.124476
1624.645833	17.454545
1626.525912	16.169930
1628.407377	14.570629
1630.286632	15.433566
1632.167273	16.918881
1634.042110	17.298601
1635.921929	16.933566
1637.797742	14.941259
1639.673145	15.588811
1641.549935	12.750350
1643.420927	13.303497
1645.295101	15.211189
1647.165277	15.569231
1649.038633	15.888811
1650.909786	16.199301
1652.778737	18.946853
1654.649074	20.218881
1656.515417	17.552448
1658.383146	16.463636
1660.248677	15.081818
1662.115592	14.484615
1663.978519	13.032867
1665.842831	15.288112
1667.704947	15.023077
1669.566659	14.342657
1671.429755	13.354545
1673.290657	13.539161
1675.149365	13.504895
1677.007670	10.536364
1678.867360	8.572727
1680.721283	10.462238
1682.578378	9.665035
1684.435071	10.381818
1686.287788	10.590909
1688.143676	10.764336
1689.995589	9.860140
1691.847102	7.705594
1693.698215	6.172727
1695.548926	7.633566
1697.399237	7.907692
1699.247364	9.221678
1701.096874	9.434266
1702.940636	11.476224
1704.789348	13.462238
1706.632313	15.165734
1708.478444	13.806294
1710.320614	13.776923
1712.165948	11.225175
1714.005542	8.015385
1715.846520	7.146154
1717.688881	6.476923
1719.527286	4.052448
1721.367074	2.614685
1723.204687	-1.252448
1725.041904	-0.018881
1726.876948	1.557343
1728.713375	3.131469
1730.547630	2.527972
1732.381490	4.786014
1734.214957	3.796503
1736.044477	3.735664
1737.877156	4.053147
1739.705891	4.520280
1741.537784	4.451748
1743.365734	4.284615
1745.193292	4.234266
1747.020458	7.495105
1748.847233	8.368531
1750.673617	10.700699
1752.496064	9.586014
1754.321665	9.663636
1756.143332	6.797902
1757.966381	5.352448
1759.787269	6.419580
1761.607767	5.734266
1763.429647	4.246154
1765.245827	4.639161
1767.065159	5.758741
1768.880564	8.879021
1770.699119	8.244056
1772.513749	8.273427
1774.327993	6.920280
1776.141849	8.947552
1777.955319	8.234266
1779.766636	8.113986
1781.579334	10.021678
1783.391645	8.235664
1785.200039	7.752448
1787.009814	7.816783
1788.815673	7.634266
1790.624679	7.371329
1792.429771	4.803497
1794.236243	3.653147
1796.042332	4.151049
1797.844511	6.865734
1799.649833	3.714685
1801.451247	4.453846
1803.254041	5.416084
1805.052929	6.647552
1806.853198	7.864336
1808.653085	7.677622
1810.450831	7.890909
1812.248196	5.802797
1814.045180	5.268531
1815.841784	4.290909
1817.636249	3.958741
1819.432093	2.051049
1821.222283	0.709790
1823.017369	2.047552
1824.806802	0.615385
1826.599372	1.708392
1828.389807	3.091608
1830.178108	4.500000
1831.969544	4.724476
1833.755334	5.600699
1835.542504	6.986014
1837.327542	8.013287
1839.115714	8.820280
1840.900000	8.269231
1842.682157	11.131469
1844.465692	9.562238
1846.247099	7.395804
1848.029885	6.137063
1849.808791	5.308392
1851.589075	4.032168
1853.367233	3.302098
1855.146770	3.695105
1856.924182	3.404196
1858.699470	5.518182
1860.476137	5.290909
1862.250681	6.638462
1864.026602	6.372028
1865.796904	6.149650
1867.570332	4.696503
1869.341641	4.339161
1871.112580	3.627972
1872.884895	2.520280
1874.651598	4.503497
1876.421425	5.957343
1878.187389	8.203497
1879.956477	9.975524
1881.721703	9.969231
1883.486561	12.109790
1885.252795	12.064336
1887.015171	11.408392
1888.777180	9.562238
1890.538822	8.868531
1892.300096	6.300000
1894.061003	6.175524
1895.821544	6.396503
1897.579975	5.523776
1899.338041	4.325175
1901.093998	3.465035
1902.851333	2.004196
1904.608301	1.423776
1906.363164	1.517483
1908.115921	1.246853
1909.868315	1.167133
1911.622084	1.005594
1913.373750	0.882517
1915.123314	3.915385
1916.874254	3.472727
1918.624830	3.680420
1920.371568	5.244755
1922.119681	5.373427
1923.865695	4.998601
1925.613085	6.114685
1927.358376	7.402797
1929.101570	8.819580
1930.846140	6.853147
1932.588613	6.795105
1934.330726	7.269930
1936.072479	7.320280
1937.813873	5.281818
1939.553173	5.050350
1941.292114	5.861538
1943.030696	4.293007
1944.767186	7.479720
1946.503319	9.155944
1948.240826	9.595804
1949.974512	9.069930
1951.709571	8.984615
1953.442543	9.433566
1955.175158	8.589510
1956.907416	5.800699
1958.639318	4.048951
1960.369134	3.892308
1962.096866	2.300699
1963.825971	2.290909
1965.554722	4.729371
1967.281389	5.709091
1969.007702	5.701399
1970.735388	6.832867
1972.457538	8.160140
1974.182789	8.580420
1975.904234	8.298601
1977.628778	8.753846
1979.351243	8.718182
1981.069904	8.233566
1982.791664	6.886014
1984.509622	7.569930
1986.228954	7.523077
1987.944485	7.903497
1989.664838	6.909091
1991.381391	6.885315
1993.094149	4.327273
1994.810002	5.357343
1996.523782	5.375524
1998.237213	6.105594
1999.948573	4.495105
2001.661306	5.173427
2003.370247	6.079720
2005.082282	7.169231
2006.788807	5.830769
2008.498425	8.046154
2010.205975	7.369231
2011.913178	8.986713
2013.618315	9.750350
2015.323105	11.293007
2017.029267	11.907692
2018.731647	12.070629
2020.435399	9.619580
2022.137087	9.167832
2023.838431	7.146154
2025.539429	6.852448
2027.238367	4.977622
2028.938675	5.544056
2030.635209	2.606294
2032.333114	3.280420
2034.028961	3.458741
2035.727892	2.554545
2037.421338	1.237762
2039.116156	1.386713
2040.810630	0.246154
2042.501336	1.869930
2044.195126	3.016084
2045.885149	7.186014
2047.576543	7.734965
2049.265884	7.515385
2050.956595	6.813986
2052.643544	6.126573
2054.330152	7.741259
2056.018131	6.704895
2057.702350	6.151049
2059.387939	6.979021
2061.073189	6.267832
2062.756391	5.565734
2064.440962	3.913986
2066.120071	3.927972
2067.803965	2.209091
2069.482399	2.670629
2071.163909	1.630070
2072.841669	1.713287
2074.519091	3.534266
2076.197884	3.606294
2077.874633	6.025175
2079.549341	7.243357
2081.225418	7.609091
2082.899455	8.468531
2084.573156	7.918881
2086.246522	9.285315
2087.917850	9.638462
2089.588843	9.946853
2091.259502	7.076923
2092.929826	6.822378
2094.599817	4.801399
2096.267772	4.067133
2097.935394	5.130070
2099.600982	4.253846
2101.267938	4.397203
2102.932861	5.839161
2104.597451	5.978322
2106.260010	9.194406
2107.923937	9.083217
2109.585834	8.781119
2111.247399	7.692308
2112.908634	8.047552
2114.567839	7.032867
2116.226715	7.748252
2117.885260	6.599301
2119.543476	7.344056
2121.197968	7.477622
2122.855525	8.111189
2124.512753	7.180420
2126.166259	10.257343
2127.821133	10.353147
2129.472289	10.646853
2131.126506	10.101399
2132.777007	10.346853
2134.428874	9.458042
2136.075333	9.865035
2137.726547	8.172727
2139.374047	9.264336
2141.022914	8.637063
2142.669763	7.506294
2144.316285	6.735664
2145.962482	7.776224
2147.604971	7.479021
2149.250518	6.694406
2150.892358	5.981119
2152.537255	5.881119
2154.178447	6.023776
2155.819315	6.874825
2157.459860	5.963636
2159.098392	6.499301
2160.738290	7.214685
2162.374488	6.913986
2164.012052	6.444056
2165.649293	5.912587
2167.284525	5.920280
2168.919436	5.462238
2170.554025	6.348951
2172.188292	6.755245
2173.818867	7.278322
2175.452492	7.523776
2177.082426	7.081818
2178.713725	8.623077
2180.343020	8.442657
2181.971994	7.969930
2183.600650	6.717483
2185.228986	7.916783
2186.855319	6.746853
2188.481334	5.880420
2190.105348	5.732867
2191.730726	4.574825
2193.354105	5.361538
2194.978847	5.918881
2196.599909	5.241259
2198.220654	6.697203
2199.842764	7.005594
2201.462876	8.082517
2203.080991	6.233566
2204.698791	6.714685
2206.316276	5.414685
2207.933445	3.692308
2209.550299	4.427972
2211.166838	5.931469
2212.781383	9.619580
2214.393936	11.708392
2216.007853	11.011888
2217.619779	11.921678
2219.233068	10.644755
2220.844367	9.117483
2222.453676	3.871329
2224.064349	2.511189
2225.673033	3.430769
2227.281405	3.409790
2228.887789	6.111189
2230.495537	9.469930
2232.101298	12.693706
2233.706748	14.460140
2235.310214	13.519580
2236.915042	12.872028
2238.517886	11.429371
2240.118747	10.202797
2241.720971	6.970629
2243.321212	6.145455
2244.922816	6.719580
2246.520768	5.386713
2248.120082	3.961538
2249.717416	4.583916
2251.314442	4.654545
2252.912829	5.899301
2254.507568	5.290909
2256.100331	5.329371
2257.694455	7.961538
2259.289941	7.162937
2260.881783	6.856643
2262.473318	7.317483
2264.066214	7.923776
2265.653801	8.282517
2267.246085	6.992308
2268.833061	8.084615
2270.423066	7.956643
2272.007766	7.049650
2273.597160	5.596503
2275.181251	4.915385
2276.766704	6.023776
2278.350187	4.558042
2279.936697	4.774825
2281.519573	7.153147
2283.102145	8.246154
2284.684414	8.323077
2286.263054	6.945455
2287.844717	7.726573
2289.422752	6.289510
2291.003810	5.827273
2292.581242	5.053147
2294.156710	4.339161
2295.735199	3.190909
2297.310065	1.564336
2298.884630	0.523776
2300.458895	-0.658042
2302.032859	-2.215385
2303.606523	-2.100699
2305.179886	-1.641259
2306.749631	1.876923
2308.319077	3.589510
2309.891542	6.073427
2311.458731	6.490909
2313.028939	6.223077
2314.595532	5.387413
2316.163485	6.551748
2317.729483	6.045455
2319.295182	4.994406
2320.860585	5.426573
2322.424034	7.616084
2323.988841	9.887413
2325.550041	9.918182
2327.114255	9.815385
2328.673208	9.611888
2330.235174	8.811888
2331.795190	5.161538
2333.354910	4.218881
2334.912681	3.735664
2336.470158	2.239161
2338.027339	3.139161
2339.582574	4.561538
2341.137514	5.633566
2342.692161	6.141259
2344.246514	5.861538
2345.800573	7.869231
2347.354338	9.714685
2348.906160	10.036364
2350.456038	8.295804
2352.008924	6.634266
2353.556568	6.020979
2355.107219	6.048951
2356.654280	6.637762
2358.202698	5.288112
2359.750824	6.221678
2361.295363	6.381818
2362.841259	8.272727
2364.385216	7.936364
2365.930531	8.500000
2367.472261	8.140559
2369.015348	8.439860
2370.556500	6.918881
2372.097362	7.479720
2373.637935	7.064336
2375.178219	6.377622
2376.718214	5.471329
2378.254630	6.648252
2379.794048	4.335664
2381.329889	4.527273
2382.867086	2.211888
2384.400709	1.055944
2385.937331	0.008392
2387.472022	0.848951
2389.004784	1.612587
2390.537260	2.807692
2392.067807	3.449650
2393.601352	4.551748
2395.129686	4.863636
2396.659376	5.493706
2398.188781	5.381119
2399.717900	6.961538
2401.246735	5.668531
2402.770365	4.921678
2404.298630	5.436364
2405.821692	6.958741
2407.349388	6.434965
2408.870245	5.464336
2410.395735	4.790909
2411.917664	4.943357
2413.440949	5.011888
2414.962313	6.321678
2416.481757	5.793706
2418.002556	6.595804
2419.521436	6.995105
2421.040034	9.581119
2422.556715	9.974126
2424.074750	9.652448
2425.592504	7.816783
2427.106707	8.453846
2428.620629	8.069231
2430.134272	8.635664
2431.649268	7.178322
2433.160716	7.353846
2434.673519	6.574126
2436.184409	5.211888
2437.695019	3.900699
2439.203718	4.108392
2440.715404	0.900000
2442.223546	-1.588811
2443.731409	-2.656643
2445.238995	-1.207692
2446.743040	-1.206993
2448.250071	1.266434
2449.755193	1.532168
2451.260038	3.399301
2452.762976	3.721678
2454.265637	1.450350
2455.768022	0.590210
2457.268502	2.386014
2458.770335	2.749650
2460.270264	1.489510
2461.769917	1.891608
2463.269295	3.021678
2464.766769	3.786713
2466.262343	5.986713
2467.760896	5.045455
2469.255920	7.222378
2470.752298	6.739161
2472.245149	4.846154
2473.739352	5.574126
2475.233282	5.772028
2476.723689	6.381119
2478.217072	7.130070
2479.708558	7.797902
2481.198147	6.099301
2482.687464	6.741958
2484.174886	8.642657
2485.665283	8.941259
2487.152161	11.018881
2488.640391	9.830769
2490.125105	9.724476
2491.609548	8.858042
2493.095343	6.871329
2494.579245	7.667133
2496.064499	6.884615
2497.544619	4.827972
2499.027711	2.393007
2500.508913	0.916783
2501.989846	0.491608
2503.468890	1.178322
2504.947666	-1.481818
2506.426172	-2.234965
2507.904411	-1.087413
2509.382381	-1.283916
2510.856847	-0.397902
2512.334281	2.137063
2513.808212	2.754545
2515.283494	3.427972
2516.758508	3.780420
2518.230021	3.448252
2519.702885	3.616783
2521.173865	5.994406
2522.646196	2.420979
2524.113414	3.757343
2525.583597	4.660140
2527.051900	4.491608
2528.519938	5.062937
2529.987711	5.058042
2531.455219	4.518881
2532.922462	3.080420
2534.386213	2.716783
2535.851315	1.840559
2537.314538	0.125874
2538.779112	1.440559
2540.240196	1.903497
2541.702630	4.204196
2543.164801	5.915385
2544.623486	5.041958
2546.086743	5.596503
2547.544903	3.770629
2549.004412	5.546853
2550.458828	4.760140
2551.917813	3.208392
2553.374927	1.269231
2554.830170	0.761538
2556.285152	0.558042
2557.738264	1.479720
2559.192725	1.303497
2560.645317	3.041259
2562.097649	2.899301
2563.548113	3.992308
2565.001533	3.794406
2566.449871	6.236364
2567.901165	5.653846
2569.350592	5.484615
2570.796548	4.232168
2572.245458	4.643357
2573.690897	3.300000
2575.137685	3.662238
2576.582609	4.839860
2578.027276	5.760140
2579.473290	6.653147
2580.915837	6.581818
2582.359732	6.129371
2583.800162	5.882517
2585.241940	6.904895
2586.681857	7.285315
2588.123122	4.665035
2589.560926	4.873427
2591.001679	3.717483
2592.437369	2.281818
2593.876009	4.547552
2595.312792	5.196503
2596.747718	5.040559
2598.185593	6.801399
2599.618410	6.774126
2601.052573	7.611888
2602.484883	7.463636
2603.918539	8.161538
2605.350342	8.259441
2606.781892	8.362937
2608.213188	5.544056
2609.642633	4.432168
2611.071825	5.058741
2612.499166	4.996503
2613.927854	4.639860
2615.356289	6.447552
2616.781277	3.046853
2618.207612	3.164336
2619.632098	1.738462
2621.057930	2.646853
2622.480318	3.367133
2623.904052	4.237762
2625.325940	4.251049
2626.747577	8.421678
2628.167369	7.586014
2629.588507	9.993706
2631.009395	11.561538
2632.426845	13.764336
2633.847234	11.724476
2635.264186	14.345455
2636.680890	8.080420
2638.097345	12.511888
2639.513552	14.941259
2640.929510	18.743357
2642.343628	18.137063
2643.757499	20.500000
2645.169530	19.257343
2646.582906	19.683916
2647.992852	18.223077
2649.405733	18.062937
2650.815187	15.551748
2652.224394	12.051748
2653.631765	6.595105
2655.042070	12.088112
2656.450539	9.810490
2657.857173	10.181818
2659.263562	8.055245
2660.668117	9.862937
2662.074016	11.567133
2663.478082	12.951748
2664.881904	13.537063
2666.285481	15.286014
2667.687226	17.223077
2669.090315	15.830769
2670.489987	17.413287
2671.891001	17.739860
2673.288600	16.141958
2674.689129	15.108392
2676.086243	11.969231
2677.484700	10.644755
2678.881329	11.781119
2680.277716	12.032168
2681.673862	8.170629
2683.068181	8.316783
2684.463843	7.664336
2685.856095	7.533566
2687.249691	9.825175
2688.641462	8.968531
2690.034575	9.455944
2691.425865	10.530769
2692.815332	10.553846
2694.204560	13.058741
2695.593547	14.971329
2696.983877	14.858741
2698.369222	13.498601
2699.757491	13.467133
2701.143940	11.183916
2702.530150	12.046853
2703.916122	11.476923
2705.298695	9.717483
2706.682609	9.646853
2708.066286	8.255245
2709.449725	7.512587
2710.829768	8.179021
2712.211153	6.851049
2713.590722	7.951049
2714.971633	7.562937
2716.350729	5.895804
2717.728010	2.762238
2719.106633	3.665035
2720.483443	2.671329
2721.860017	2.837063
2723.236355	3.274126
2724.610881	2.634965
2725.986748	2.916783
2727.359228	3.809790
2728.734625	4.615385
2730.105060	5.231469
2731.476837	3.907692
2732.848380	3.889510
2734.218114	0.620280
2735.589188	1.947552
2736.958455	2.578322
2738.327488	3.313986
2739.694714	3.244755
2741.061708	4.014685
2742.428469	4.513986
2743.794997	4.768531
2745.159720	6.475524
2746.524212	7.120280
2747.888471	6.906993
2749.252499	6.683916
2750.616294	6.376224
2751.976716	7.944755
2753.340049	5.226573
2754.698439	4.040559
2756.059739	3.287413
2757.417668	4.190210
2758.778507	2.400699
2760.137545	2.457343
2761.493215	1.690210
2762.851793	5.567832
2764.207005	5.727972
2765.561987	8.196503
2766.915172	9.843357
2768.271264	10.310490
2769.623992	9.683916
2770.976491	11.218182
2772.328762	10.009091
2773.682372	6.806294
2775.032620	3.215385
2776.381075	1.512587
2777.732434	-1.669231
2779.080434	2.334266
2780.429773	0.411888
2781.777319	2.300699
2783.124638	2.279021
2784.471731	3.476923
2785.817033	3.193706
2787.162109	1.737063
2788.506959	2.510490
2789.851582	2.869231
2791.192854	3.422378
2792.535464	6.690210
2793.877848	7.012587
2795.220008	8.325874
2796.558818	6.954545
2797.900527	7.413287
2799.238889	7.324476
2800.578588	4.839161
2801.916501	1.130070
2803.252630	0.002098
2804.588536	1.371329
2805.925778	3.197203
2807.261237	4.501399
2808.596473	7.853147
2809.929927	6.348951
2811.264717	6.437063
2812.596166	6.485315
2813.930511	4.558741
2815.259958	2.022378
2816.590742	-0.059441
2817.921304	-1.813287
2819.250087	-3.237762
2820.580207	-3.002098
2821.908547	-0.141958
2823.236667	1.043357
2824.563010	3.268531
2825.890688	4.237063
2827.215034	5.011888
2828.540715	5.239860
2829.864621	3.586713
2831.188308	2.962238
2832.513330	4.234266
2833.835023	4.504895
2835.156496	4.448951
2836.477751	5.011888
2837.798787	6.908392
2839.118051	7.365035
2840.438650	6.013986
2841.757477	3.986713
2843.076086	1.521678
2844.392925	-0.695105
2845.709546	-1.249650
2847.025949	-1.045455
2848.340584	-1.234965
2849.656553	-1.332168
2850.969202	-2.608392
2852.283187	-1.467832
2853.596955	1.202098
2854.910506	1.782517
2856.222290	1.670629
2857.532309	2.156643
2858.843661	2.111888
2860.151699	1.734266
2861.461072	2.823776
2862.770229	2.351049
2864.079171	1.332867
2865.386350	-0.934965
2866.691765	-0.644056
2867.998515	0.700000
2869.303502	0.527972
2870.608276	-0.065035
2871.911288	2.429371
2873.217182	1.958741
2874.518220	2.651748
2875.820593	3.953846
2877.121206	6.500699
2878.423153	5.420280
2879.724887	4.929371
2881.023317	4.474126
2882.323080	5.930070
2883.621085	3.811189
2884.918879	1.767832
2886.214917	4.419580
2887.512288	5.382517
2888.807903	5.604196
2890.103307	7.402797
2891.398501	9.702797
2892.690396	12.023776
2893.985168	9.123077
2895.276643	8.774126
2896.569452	9.009790
2897.862049	7.206993
2899.151353	4.751748
2900.441989	6.130769
2901.730874	7.795105
2903.021092	8.018881
2904.308018	8.862238
2905.596276	8.051049
2906.882784	10.037762
2908.169085	9.688811
2909.455177	7.539161
2910.739521	7.751748
2912.026737	6.959441
2913.309126	5.579021
2914.592846	4.680420
2915.874821	5.353147
2917.156589	3.648252
2918.436611	5.355245
2919.719503	4.122378
2921.000650	3.349650
2922.278515	5.430070
2923.559249	5.605594
2924.836702	6.665035
2926.113950	7.741259
2927.389455	7.494406
2928.667828	7.223077
2929.941386	6.304895
2931.217812	6.451748
2932.492497	6.339161
2933.765442	7.081119
2935.039717	6.630769
2936.312253	5.861538
2937.584585	5.265035
2938.853644	4.199301
2940.125567	2.904895
2941.395753	2.200699
2942.665736	2.494406
2943.935515	0.541958
2945.203557	-1.342657
2946.469864	-0.095804
2947.735968	1.234266
2949.003402	1.732168
2950.269102	0.934266
2951.534599	-0.251049
2952.799894	0.643357
2954.061924	-0.270629
2955.325285	0.946853
2956.588444	1.625175
2957.849870	3.515385
2959.112626	1.965734
2960.373651	1.672028
2961.632945	3.001399
2962.892038	2.456643
2964.150931	2.586713
2965.409624	1.044755
2966.668117	1.658042
2967.924881	3.838462
2969.181445	3.349650
2970.436282	4.207692
2971.692448	3.803497
2972.945358	2.502098
2974.199598	2.802797
2975.453639	1.715385
2976.705954	3.357343
2977.958071	2.012587
2979.208463	3.079720
2980.461710	1.653147
2981.710180	0.674825
2982.961504	1.174825
2984.209580	1.728671
2985.457458	0.849650
2986.705139	1.832867
2987.952624	0.627972
2989.198387	4.167133
2990.443953	5.070629
2991.690848	7.704895
2992.934497	5.690210
2994.179475	6.616783
2995.421210	5.357343
2996.665796	1.690909
2997.908662	2.231469
2999.148288	0.548252
3000.390765	-1.513986
3001.630001	-1.392308
3002.870565	-3.832867
3004.109412	-3.968531
3005.348065	-5.295804
3006.585002	-4.581119
3007.823266	-3.374825
3009.059816	-1.052448
3010.296171	-0.137762
3011.532333	0.057343
3012.766782	4.410490
3014.001037	4.656643
3015.235099	5.694406
3016.467449	6.006993
3017.698087	2.976923
3018.931571	3.862937
3020.163343	4.330769
3021.393405	5.504196
3022.623275	5.986014
3023.851435	4.168531
3025.080921	4.337063
3026.308699	2.532168
3027.536285	1.903497
3028.765197	-1.525874
3029.989367	-3.707692
3031.216380	-5.184615
3032.440170	-6.126573
3033.665285	-4.299301
3034.888694	-3.661538
3036.111914	-4.825175
3037.333428	-4.523776
3038.557783	-3.907692
3039.777403	-2.611888
3040.998348	-2.625175
3042.219105	-1.558042
3043.438158	-1.762937
3044.658537	-1.070629
3045.875699	-0.360140
3047.094186	-0.735664
3048.310972	0.441958
3049.527569	-1.014685
3050.743979	-2.650350
3051.957175	-1.563636
3053.173209	-1.933566
3054.386031	-1.960839
3055.601690	-0.316084
3056.812626	0.219580
3058.024887	0.279720
3059.236962	0.227972
3060.448850	-0.594406
3061.659040	-2.069231
3062.869045	-0.808741
3064.078863	-1.781818
3065.286985	-0.659790
3066.494921	-0.883916
3067.701163	-2.798951
3068.908728	-1.621678
3070.114600	-1.869580
3071.320286	-2.471329
3072.525787	-3.407343
3073.729596	-4.337063
3074.934728	-4.384965
3076.138167	-3.834266
3077.339914	-3.128322
3078.541478	-2.490210
3079.742858	-1.318881
3080.944054	-0.870629
3082.143560	-1.144056
3083.342882	0.453147
3084.543528	1.151049
3085.742485	2.045455
3086.938246	1.559441
3088.136837	1.103497
3089.332234	3.216084
3090.528954	1.560140
3091.722482	-1.546154
3092.918839	-2.240559
3094.113508	-2.659441
3095.304987	-3.776224
3096.500797	-5.692308
3097.691914	-6.927273
3098.884353	-6.620979
3100.073605	-4.999301
3101.265683	-5.206294
3102.456076	-2.181119
3103.643284	-0.446154
3104.831815	0.452448
3106.021668	0.785315
3107.208336	1.176224
3108.394825	2.621678
3109.581134	3.000699
3110.768765	1.295804
3111.953215	-0.173427
3113.135984	-0.640559
3114.321577	-0.237063
3115.505489	-0.864336
3116.687723	-0.029371
3117.869779	-1.465035
3119.051656	-0.352448
3120.233355	-2.377622
3121.413376	-4.825175
3122.591721	-3.997203
3123.772887	-5.057343
3124.950877	-6.548252
3126.128690	-6.770629
3127.306326	-7.143357
3128.482287	-4.279720
3129.658072	-1.873427
3130.835177	-1.081818
3132.010608	0.034965
3133.184366	2.465035
3134.356452	4.002797
3135.529858	2.684615
3136.703089	3.730769
3137.874647	0.986014
3139.047527	0.883217
3140.217239	-0.676224
3141.388272	-1.648951
3142.557634	0.534965
3143.725327	0.674126
3144.895835	-1.164336
3146.061684	0.359441
3147.231843	1.773427
3148.397344	1.583217
3149.562672	-1.505594
3150.727826	-1.654545
3151.892806	-3.950350
3153.059107	-2.214685
3154.220754	-2.760140
3155.383722	-2.828671
3156.546516	-1.053846
3157.709138	-0.320280
3158.870095	-0.999301
3160.030879	0.964336
3161.191491	1.478322
3162.350440	0.082517
3163.509216	-0.765734
3164.667821	-1.422378
3165.826254	0.448252
3166.984515	2.281119
3168.141114	2.056643
3169.296052	1.037063
3170.452309	0.200000
3171.606906	1.025874
3172.761331	-0.270629
3173.914097	-0.693007
3175.066693	-2.202797
3176.219118	-2.802797
3177.371374	-1.830769
3178.523460	-1.759441
3179.672399	0.690909
3180.824145	1.337063
3181.974234	0.700000
3183.122665	-0.058042
3184.270928	0.000699
3185.419021	0.551049
3186.566946	-1.141958
3187.713216	-3.999301
3188.859317	-5.575524
3190.003763	-3.911888
3191.148042	-3.369231
3192.292153	-2.720979
3193.437582	-2.890909
3194.579872	-1.798601
3195.721994	-0.950350
3196.863950	0.404196
3198.005738	0.491608
3199.147359	0.302797
3200.285844	0.258741
3201.425647	-0.616084
3202.566768	-0.338462
3203.704754	-1.387413
3204.841091	-1.680420
3205.977262	-1.500699
3207.114751	-1.309091
3208.250591	0.076224
3209.387747	1.422378
3210.520291	2.148951
3211.657117	0.195105
3212.789331	0.110490
3213.922863	0.086713
3215.056229	0.814685
3216.186468	-1.345455
3217.319505	-1.819580
3218.449416	-3.167133
3219.580644	-2.895105
3220.708746	-2.958741
3221.839645	-1.786014
3222.968901	-2.232168
3224.096512	-4.082517
3225.221002	-4.694406
3226.349767	-5.012587
3227.475410	-4.874126
3228.600890	-1.767832
3229.724729	-1.965734
3230.851362	0.539860
3231.973398	-1.969930
3233.096750	-2.995804
3234.219940	-4.908392
3235.342968	-4.919580
3236.464356	-6.472028
3237.585583	-7.872727
3238.705171	-7.260140
3239.824598	-7.629371
3240.942387	-6.344755
3242.062969	-1.300699
3243.180436	-0.558741
3244.297744	3.071329
3245.414890	2.257343
3246.530401	1.976923
3247.647227	1.404895
3248.760942	0.479021
3249.877448	-2.580420
3250.992318	-4.546853
3252.104080	-5.091608
3253.215683	-5.186713
3254.328600	-6.293706
3255.441359	-5.899301
3256.551011	-6.765035
3257.661978	-3.437063
3258.772786	-5.169231
3259.881962	-5.930070
3260.989507	-6.433566
3262.098367	-5.376923
3263.207068	-5.366434
3264.312667	-3.298601
3265.419581	-2.608392
3266.524865	-0.794406
3267.631463	-0.225175
3268.734961	1.197902
3269.839773	2.448252
3270.944428	2.323077
3272.045984	0.262937
3273.147385	-1.673427
3274.250099	-1.227972
3275.352656	-0.256643
3276.452118	-1.385315
3277.554362	-3.136364
3278.653512	-4.722378
3279.751036	-2.663636
3280.848405	-1.316084
3281.948557	-0.979720
3283.045615	-2.100000
3284.142518	-4.237762
3285.239267	-3.546853
3286.331456	-5.603497
3287.427895	-5.761538
3288.522711	-7.100000
3289.617372	-7.893706
3290.710412	-8.142657
3291.803298	-6.135664
3292.894563	-5.774126
3293.987141	-4.973427
3295.078098	-4.860140
3296.167437	-5.313287
3297.256621	-5.022378
3298.347119	-5.460839
3299.434532	-5.967133
3300.521793	-5.919580
3301.610366	-5.564336
3302.698786	-3.614685
3303.782659	-2.215385
3304.870774	-1.500699
3305.955808	-2.795804
3307.039226	-2.442657
3308.123955	-2.948252
3309.207070	-4.539860
3310.291496	-5.521678
3311.372844	-6.739860
3312.455504	-6.614685
3313.536550	-6.910490
3314.617445	-6.677622
3315.696727	-6.566434
3316.775858	-5.835664
3317.856300	-7.172727
3318.933669	-6.956643
3320.012349	-7.839161
3321.089417	-9.460140
3322.166335	-10.669930
3323.241642	-8.725175
3324.316800	-7.969231
3325.393270	-7.408392
3326.466668	-6.287413
3327.539918	-5.044056
3328.614479	-5.169231
3329.687430	-5.038462
3330.758774	-6.436364
3331.831428	-5.446154
3332.901015	-5.666434
3333.971913	-5.919580
3335.041204	-5.403497
3336.111806	-5.567133
3337.180801	-6.263636
3338.248190	-6.134965
3339.313974	-7.039161
3340.383984	-5.010490
3341.450931	-5.744755
3342.514816	-5.781818
3343.581469	-5.398601
3344.646517	-5.662238
3345.709963	-8.144755
3346.773261	-9.248252
3347.836414	-12.969930
3348.899420	-13.758042
3349.962279	-12.700000
3351.023537	-11.701399
3352.081738	-11.659441
3353.144160	-8.939860
3354.203525	-8.173427
3355.262745	-6.051748
3356.323275	-3.523776
3357.379295	-2.207692
3358.438080	-4.854545
3359.492357	-5.141259
3360.549397	-5.672028
3361.604840	-3.930070
3362.661591	-3.358042
3363.716745	-4.386014
3364.770301	-6.024476
3365.822260	-6.917483
3366.876981	-7.269930
3367.928653	-5.823776
3368.980182	-3.411189
3370.033020	-1.418881
3371.082810	-3.562937
3372.133908	-3.350350
3373.181961	-2.575524
3374.232774	-3.816783
3375.280541	-5.099301
3376.328166	-6.051049
3377.375649	-6.622378
3378.421538	-7.645455
3379.468736	-7.008392
3380.512892	-6.232867
3381.559806	-6.886014
3382.605128	-7.940559
3383.647410	-9.365734
3384.689550	-9.306294
3385.732998	-9.501399
3386.776306	-9.044056
3387.818023	-9.230769
3388.859599	-8.482517
3389.901035	-8.434266
3390.940881	-9.838462
3391.979140	-9.079021
3393.018706	-8.056643
3394.058131	-9.553846
3395.095970	-9.920979
3396.132221	-9.656643
3397.168332	-9.386713
3398.205751	-9.530070
3399.240137	-9.229371
3400.275830	-11.344755
3401.311384	-11.865035
3402.343907	-13.353846
3403.379183	-12.465035
3404.411428	-10.253846
3405.443535	-8.300000
3406.474058	-8.332168
3407.505889	-7.820280
3408.537580	-7.672028
3409.566245	-7.539860
3410.594771	-4.744755
3411.624605	-4.856643
3412.654300	-5.993706
3413.680970	-5.644056
3414.708947	-8.411189
3415.733899	-6.953846
3416.761601	-7.853147
3417.786280	-9.363636
3418.812265	-8.944755
3419.836670	-10.171329
3420.860939	-9.394406
3421.883629	-8.132168
3422.906183	-3.915385
3423.930043	-4.241259
3424.950883	-4.348951
3425.971588	-5.526174
3426.993598	-6.701499
3428.012590	-7.552547
3429.031447	-7.756943
3430.051609	-6.992308
3431.068755	-4.936264
