-118.448435	4.108791
-115.778835	2.476923
-113.112170	0.647053
-110.446257	-1.186414
-107.783276	-2.829071
-105.118866	-4.086513
-102.457386	-4.764336
-99.794476	-1.205594
-97.136674	-0.289510
-94.477441	1.889510
-91.818958	0.083916
-89.163398	1.681119
-86.506410	4.474825
-83.854519	7.850350
-81.201199	9.793007
-78.550799	10.855245
-75.898969	10.256643
-73.252230	9.125175
-70.604061	7.283217
-67.956636	7.094406
-65.312124	6.196503
-62.666184	4.279720
-60.025325	-1.046154
-57.383037	-0.638462
-54.743657	0.030070
-52.102849	-0.638462
-49.462781	1.110490
-46.827785	1.353846
-44.191360	2.237063
-41.557839	1.246853
-38.922889	1.497203
-36.293004	0.943357
-33.659527	4.417483
-31.031112	4.981818
-28.403430	4.886713
-25.774321	1.899301
-23.150268	-22.445455
-20.522626	-109.479720
-17.900037	-223.089510
-15.278180	-157.557343
-12.657053	378.618881
-10.036656	1145.566434
-7.419147	1765.720979
-4.800210	2183.512587
-2.184159	2399.795804
0.431164	2409.001399
3.045760	2219.725874
5.657473	1827.642657
8.270615	1252.779021
10.878723	556.736364
13.490413	-67.431469
16.097072	-342.339161
18.705159	-189.542657
21.312522	-8.793007
23.914860	15.168531
26.520776	13.441259
29.121670	11.244755
31.723992	11.104196
34.321297	12.690909
36.922177	9.882517
39.518043	7.519580
42.115336	6.089510
44.711910	3.110490
47.303475	2.027972
49.896468	0.265035
52.486600	-0.422378
55.078160	-0.713986
57.666860	-5.014685
60.256987	-1.158042
62.842116	0.713986
65.428671	-0.109790
68.014513	0.540559
70.597501	2.093007
73.181915	2.978322
75.759201	3.623776
78.340053	2.604895
80.918056	0.901399
83.495349	1.329371
86.074068	1.712587
88.647806	2.530070
91.222970	8.813986
93.795291	6.634965
96.366904	8.551748
98.935677	11.116084
101.505877	11.856643
104.073239	9.023077
106.642026	8.911888
109.207977	5.348252
111.771093	4.039161
114.337765	4.658741
116.895216	6.698601
119.458352	8.815385
122.016529	12.344755
124.578259	19.470629
127.135034	40.086014
129.693234	65.289510
132.246482	96.717483
134.799031	134.634965
137.355131	177.845455
139.906284	218.730769
142.456738	263.350350
145.006496	303.348951
147.553434	329.307692
150.099676	348.034266
152.647344	355.945455
155.194317	360.111888
157.736353	360.766434
160.277696	358.647552
162.818346	356.712587
165.360422	355.007692
167.899687	351.265734
170.436142	348.053147
172.971907	348.790210
175.509097	352.860140
178.045595	351.237762
180.579288	351.802797
183.110178	350.427972
185.640379	347.237063
188.172005	342.062937
190.700830	342.248252
193.226856	343.103497
195.752197	342.280420
198.278962	340.504895
200.802930	338.601399
203.326214	337.745455
205.848813	340.236364
208.368619	337.681119
210.887742	337.111888
213.406182	338.703497
215.926046	335.180420
218.438909	334.937063
220.955303	338.466434
223.471015	343.232867
225.981838	346.569930
228.494085	348.086713
231.003549	349.325874
233.512335	349.256643
236.020443	349.453147
238.529974	347.141958
241.034625	347.859441
243.538601	351.439860
246.044000	354.483217
248.544524	358.079720
251.048571	362.038462
253.545648	362.795804
256.046247	364.211189
258.544075	364.415385
261.041230	367.239161
263.537712	367.715385
266.029331	365.460140
268.524470	362.125175
271.016843	363.517483
273.508545	367.369930
275.997483	370.845455
278.487846	372.497902
280.975447	376.683217
283.460288	375.576224
285.948643	379.802098
288.430059	381.111189
290.914989	384.903497
293.395074	383.504895
295.878671	381.034965
298.357425	381.281119
300.837603	380.297902
303.315028	379.062937
305.791790	384.109091
308.267889	395.643357
310.741239	419.241958
313.213927	444.718881
315.685954	468.223776
318.157320	484.770629
320.625942	495.418182
323.093904	495.825175
325.563289	490.427273
328.027850	479.769231
330.495916	461.174825
332.959162	440.448252
335.421750	423.025175
337.883682	414.261538
340.344957	418.094406
342.803498	421.990909
345.263461	421.144056
347.720691	417.412587
350.177267	416.091608
352.633189	415.438462
355.086382	413.370629
357.540996	415.153147
359.990809	415.815385
362.444119	412.796503
364.892629	409.419580
367.340489	411.571329
369.789770	415.337063
372.234258	418.925175
374.680168	414.436364
377.125429	413.712587
379.567970	412.890210
382.009864	413.936364
384.451111	413.843357
386.889642	414.708392
389.329595	416.716084
391.766834	414.876224
394.201361	414.781818
396.639376	416.018182
399.072614	417.786014
401.507274	420.208392
403.937160	416.622378
406.370532	416.085315
408.799134	414.415385
411.227095	415.900000
413.656476	417.686014
416.081092	417.893706
418.507130	420.681818
420.932527	419.337063
423.357284	419.340559
425.777283	419.637762
428.198703	419.658042
430.617426	423.869930
433.037570	423.609790
435.455019	424.481119
437.873888	426.048252
440.290064	427.437063
442.701493	428.574126
445.116398	428.316084
447.528613	425.225874
449.940194	419.207692
452.351141	412.950350
454.759402	408.139161
457.167030	405.025175
459.574027	402.497203
461.980391	396.076923
464.384073	392.548252
466.787125	388.351748
469.189547	386.842657
471.591340	385.160839
473.990454	386.423776
476.390988	390.459441
478.790893	394.090909
481.186075	395.111189
483.584724	399.250350
485.978653	399.779021
488.371956	395.128671
490.764633	387.217483
493.156685	376.116084
495.550156	362.515385
497.938914	348.900699
500.325006	333.963636
502.712518	322.151748
505.099406	311.536364
507.483631	300.113986
509.869275	288.522378
512.252256	279.561538
514.632577	270.659441
517.014317	263.393706
519.393398	254.388811
521.773898	248.513287
524.151740	245.485315
526.526927	242.356643
528.901496	237.653147
531.277484	236.417483
533.650818	231.196503
536.025570	230.566434
538.395637	227.331469
540.765088	223.271329
543.135957	221.225874
545.502146	219.021678
547.869753	214.002098
550.234714	211.728671
552.599062	211.233566
554.962798	210.627273
557.327951	209.518182
559.688431	210.939860
562.050330	207.793007
564.409589	207.947552
566.766209	205.377622
569.126274	204.164336
571.479649	202.595105
573.836468	199.425175
576.190651	194.313986
578.544227	191.803497
580.897194	188.742657
583.247530	186.716084
585.599282	185.560140
587.944358	184.698601
590.294898	184.653846
592.638765	182.868531
594.988092	185.648252
597.332772	187.676923
599.674826	188.589510
602.018298	188.069930
604.359147	188.816084
606.699394	188.750350
609.037020	186.927972
611.378081	185.713986
613.714504	185.981119
616.052345	185.000699
618.387567	184.997203
620.720174	180.998601
623.054197	183.709091
625.385607	178.448252
627.716418	177.651748
630.046631	176.362937
632.376246	174.197203
634.701239	173.514685
637.031673	173.402797
639.357485	171.183217
641.680691	172.248252
644.005312	171.123077
646.327329	167.753846
648.648751	164.162238
650.967570	165.967133
653.287805	164.146853
655.607447	168.972727
657.924488	167.995105
660.240937	165.708392
662.554788	166.279021
664.870055	168.188811
667.182725	164.534965
669.496810	161.817483
671.806295	157.876923
674.117196	150.860839
676.425504	147.972028
678.733224	147.697902
681.042359	146.532867
683.346901	148.632867
685.650856	149.315385
687.954226	150.093007
690.259010	151.362937
692.559208	152.962937
694.860820	148.421678
697.161848	149.160839
699.458293	145.025175
701.756154	140.686014
704.053431	140.913986
706.350125	137.469231
708.642243	135.737762
710.937772	136.357343
713.228728	138.520979
715.521098	138.174126
717.810892	139.322378
720.100107	144.086713
722.388741	147.395105
724.674804	152.036364
726.962280	151.632168
729.247186	154.324476
731.531513	158.041958
733.813272	155.442657
736.096445	154.862937
738.379041	155.676224
740.657082	155.490210
742.936536	156.018182
745.215415	156.176923
747.493718	158.239860
749.767472	157.332867
752.042640	156.060140
754.317234	153.798601
756.589268	154.407692
758.862716	154.927972
761.133606	154.075524
763.401940	156.960140
765.671687	160.598601
767.938880	159.487413
770.205502	162.881818
772.471555	165.046853
774.735055	166.406294
776.999969	167.940559
779.264313	168.011888
781.524128	167.459441
783.785356	168.045455
786.046015	167.353147
788.304129	166.098601
790.559698	165.823077
792.818658	163.339860
795.071119	159.543357
797.328947	160.276923
799.582255	160.665035
801.833024	163.239860
804.085205	163.324476
806.334848	162.957343
808.585902	163.027972
810.832445	160.212587
813.080400	159.109790
815.325821	156.887413
817.572653	153.836364
819.818924	150.783217
822.060691	149.243357
824.305840	146.338462
826.544517	147.809091
828.786577	148.279720
831.024138	144.976923
833.263110	145.595804
835.499556	145.141958
837.737413	141.619580
839.972745	139.687413
842.205554	139.126573
844.439774	136.127972
846.671472	135.411888
848.902615	133.693706
851.133203	132.716084
853.363236	135.916783
855.592716	137.352448
857.817714	137.727273
860.046087	141.078322
862.269981	143.490210
864.495285	142.140559
866.716114	144.592308
868.940315	146.641259
871.160043	143.612587
873.381182	143.681119
875.601770	139.886713
877.819848	140.426573
880.039337	140.148252
882.254359	140.561538
884.468833	140.004196
886.682760	142.010490
888.896139	141.544056
891.108971	139.365035
893.321257	140.955245
895.531040	141.847552
897.740278	139.923077
899.948971	139.009091
902.155165	134.508392
904.362768	133.381818
906.567874	132.210490
908.772436	132.106993
910.974502	132.394406
913.177978	130.835664
915.378960	129.346853
917.579401	130.374825
919.781249	129.869930
921.976707	131.828671
924.175524	134.896503
926.369902	136.318881
928.567638	138.512587
930.760938	142.656643
932.955647	143.918182
935.147870	144.683217
937.339555	146.149650
939.530702	144.148252
941.719366	145.520280
943.907493	146.359441
946.093140	146.065035
948.282139	147.603497
950.466715	152.197203
952.650756	158.124476
954.838147	162.090210
957.017234	165.036364
959.199672	164.403497
961.381576	163.454545
963.561006	166.152448
965.737963	166.858741
967.916327	172.139860
970.096099	176.295804
972.269522	177.000699
974.446291	179.525874
976.618653	183.747552
978.792423	188.190909
980.961789	186.801399
983.134500	186.601399
985.304744	188.325874
987.474460	187.048252
989.643647	188.725874
991.808437	189.977622
993.976568	194.911888
996.140305	200.684615
998.305448	201.744755
1000.468133	205.630070
1002.630291	206.641259
1004.789993	209.569231
1006.949171	209.854545
1009.109755	210.217483
1011.267884	212.041259
1013.425489	211.427273
1015.582571	212.932168
1017.739130	214.327972
1019.891309	218.735664
1022.044894	224.267133
1024.197958	225.367133
1026.348574	225.384615
1028.500595	227.416084
1030.648243	233.767133
1032.799223	233.181818
1034.945832	235.358741
1037.091923	238.100000
1039.237494	241.142657
1041.384471	245.090909
1043.525159	247.375524
1045.669177	252.426573
1047.810754	253.295804
1049.951815	252.270629
1052.094280	250.333566
1054.230466	250.356643
1056.369978	250.618182
1058.505134	245.169231
1060.643615	246.234266
1062.777742	245.474825
1064.911356	244.318881
1067.046375	246.779021
1069.177044	249.769930
1071.309118	251.540559
1073.438763	252.233566
1075.567896	251.826573
1077.696517	248.089510
1079.824627	245.753147
1081.950311	241.868531
1084.075485	236.930769
1086.202063	236.208392
1088.324304	231.057343
1090.447948	226.162238
1092.567259	222.567133
1094.691798	219.161538
1096.810092	215.372727
1098.929791	215.637063
1101.047071	212.704895
1103.163845	209.600699
1105.280112	209.829371
1107.393964	209.760140
1109.509219	208.721678
1111.620152	206.728671
1113.734396	202.166434
1115.844320	199.984615
1117.955648	195.521678
1120.066471	192.134266
1122.172979	190.548252
1124.282795	190.513986
1126.388297	188.788811
1128.495202	186.916084
1130.595892	183.570629
1132.701794	183.660839
1134.803387	183.539161
1136.906383	182.195105
1139.008878	179.288112
1141.105166	180.183916
1143.206662	180.426573
1145.303855	180.260140
1147.400549	179.690909
1149.496745	180.784615
1151.592444	180.724476
1153.687645	178.270629
1155.780449	177.255944
1157.874655	181.602797
1159.962670	182.088112
1162.055883	179.654545
1164.142908	179.456643
1166.233232	180.885315
1168.319269	182.088811
1170.408603	180.708392
1172.491756	181.023077
1174.576311	183.282517
1176.662268	181.786014
1178.743943	178.143357
1180.827020	178.444755
1182.907711	178.887413
1184.987910	173.990210
1187.067618	170.518881
1189.146835	169.560839
1191.223670	168.444755
1193.298124	168.107692
1195.375870	168.777622
1197.449345	170.771329
1199.524221	171.546154
1201.594830	170.537762
1203.666841	171.430769
1205.736475	172.496503
1207.807510	173.601399
1209.878057	170.994406
1211.944343	172.046154
1214.012030	172.335664
1216.077345	171.535664
1218.144060	171.588811
1220.206519	171.856643
1222.272263	175.230769
1224.333754	175.910490
1226.396644	173.725175
1228.457167	174.511189
1230.517206	171.191608
1232.576763	169.758042
1234.633954	167.465734
1236.690664	166.100699
1238.745011	163.821678
1240.802638	160.781818
1242.857903	162.169231
1244.908927	160.004895
1246.961351	161.633566
1249.013295	159.691608
1251.062881	158.563636
1253.111988	159.104196
1255.160617	158.895804
1257.208767	160.597203
1259.256439	162.799301
1261.299880	165.601399
1263.346596	167.188112
1265.390959	170.467832
1267.434846	172.655245
1269.476382	175.976224
1271.515567	177.916783
1273.558026	179.772727
1275.596262	181.534965
1277.635897	181.203497
1279.675057	182.096503
1281.709998	182.770629
1283.746339	187.574825
1285.780334	192.653147
1287.815728	195.390909
1289.846908	201.012587
1291.879487	204.888811
1293.911593	212.060839
1295.941359	214.523077
1297.972523	220.920979
1299.999479	223.723776
1302.027833	227.120280
1304.051983	233.225874
1306.079397	237.932168
1308.102609	247.883916
1310.127219	256.702098
1312.149495	264.706294
1314.173168	272.644056
1316.194508	283.269231
1318.215380	293.454545
1320.235786	300.516084
1322.251997	315.190210
1324.269606	326.148252
1326.284888	336.127972
1328.303427	346.576224
1330.317778	354.837762
1332.329803	361.530070
1334.345085	366.576224
1336.356182	368.720280
1338.368676	369.833566
1340.376987	369.895804
1342.388554	365.251748
1344.394081	358.434266
1346.402864	355.132867
1348.407469	346.897203
1350.415328	330.855944
1352.422725	315.553147
1354.424091	306.252448
1356.426854	290.563636
1358.429156	281.087413
1360.430999	270.981818
1362.432382	260.825175
1364.431452	251.862937
1366.430063	245.560140
1368.428216	238.217483
1370.425911	230.526573
1372.419442	227.322378
1374.414370	219.120280
1376.408841	212.155245
1378.402855	210.772028
1380.394561	202.979720
1382.385813	200.348252
1384.374759	196.453147
1386.365100	189.658741
1388.354986	186.309091
1390.342569	183.002098
1392.329697	177.099301
1394.314525	173.891608
1396.300746	175.095105
1398.284668	173.655944
1400.268137	171.747552
1402.251154	170.193007
1404.231872	165.840559
1406.213986	163.769231
1408.193802	162.816783
1410.173168	161.870629
1412.148394	163.902098
1414.126860	164.858042
1416.103031	161.231469
1418.078754	163.104196
1420.054027	162.548252
1422.027009	163.831469
1423.999543	161.335664
1425.971630	159.310490
1427.943268	157.544755
1429.910778	157.293007
1431.883363	156.576923
1433.848141	158.065035
1435.817991	160.501399
1437.783718	161.437063
1439.750837	157.741259
1441.715673	160.879720
1443.676390	157.449650
1445.642174	154.558042
1447.602003	148.957343
1449.563225	147.806294
1451.525840	148.132168
1453.484340	147.804895
1455.442398	146.434266
1457.400013	149.196503
1459.357187	151.025874
1461.312085	153.306993
1463.268375	151.744056
1465.222391	154.965035
1467.175967	154.829371
1469.127270	154.576224
1471.079965	154.343357
1473.030389	155.255245
1474.980373	156.162238
1476.929919	157.682517
1478.877196	157.630070
1480.822206	158.411189
1482.768607	156.675524
1484.714572	156.546154
1486.660098	154.056643
1488.603360	155.681119
1490.546185	157.393007
1492.486747	157.834965
1494.428700	156.641958
1496.368392	154.815385
1498.307648	155.027273
1500.246469	158.579021
1502.183031	156.862238
1504.120984	157.462937
1506.056679	156.373427
1507.991939	156.718182
1509.924944	160.341259
1511.857516	166.658741
1513.789656	170.412587
1515.721364	170.385315
1517.650818	169.195105
1519.581663	170.974126
1521.512077	176.147552
1523.438417	180.151049
1525.366149	178.101399
1527.291630	180.429371
1529.216682	182.423776
1531.141305	182.612587
1533.065499	187.952448
1534.987446	192.779720
1536.910782	193.785315
1538.831873	197.254545
1540.750719	201.787413
1542.670955	207.576224
1544.588947	215.335664
1546.506513	221.844056
1548.421837	228.569930
1550.338551	236.658741
1552.251210	241.934965
1554.167073	246.583217
1556.080696	251.986014
1557.992082	261.274825
1559.904856	268.563636
1561.813581	280.311189
1563.723696	286.820280
1565.633387	294.758741
1567.542654	301.557343
1569.449688	306.900000
1571.354489	309.588112
1573.260679	308.058042
1575.164637	302.256643
1577.068175	299.526573
1578.971291	292.827972
1580.872179	292.668531
1582.774454	286.323077
1584.674502	281.653846
1586.575937	275.183916
1588.473339	271.912587
1590.370322	267.100699
1592.266887	261.118881
1594.164840	254.421678
1596.056958	248.762937
1597.952269	242.695804
1599.847163	242.788811
1601.739835	239.971329
1603.632091	239.988112
1605.522126	233.486014
1607.411747	230.512587
1609.300951	225.614685
1611.189741	222.200000
1613.076314	217.851049
1614.964273	210.190210
1616.848216	203.747552
1618.733547	198.362238
1620.618463	192.951049
1622.501166	188.602098
1624.385256	181.204196
1626.265335	175.799301
1628.146800	170.071329
1630.026055	166.231469
1631.906696	159.875524
1633.781533	156.900000
1635.661352	156.017483
1637.537165	153.313986
1639.412568	151.981818
1641.289358	151.113986
1643.160350	150.718182
1645.034524	147.412587
1646.904700	145.254545
1648.778056	143.461538
1650.649209	141.922378
1652.518160	138.687413
1654.388497	135.951748
1656.254840	135.265035
1658.122569	134.563636
1659.988100	132.315385
1661.855015	134.655245
1663.717942	138.186014
1665.582254	138.413287
1667.444370	137.565734
1669.306082	140.644755
1671.169178	141.119580
1673.030080	137.079720
1674.888788	134.695804
1676.747093	129.540559
1678.606783	126.537762
1680.460706	124.723077
1682.317801	125.500699
1684.174494	127.325175
1686.027211	128.611189
1687.883098	128.812587
1689.735012	132.280420
1691.586525	134.643357
1693.437637	134.983916
1695.288349	130.247552
1697.138660	130.335664
1698.986787	127.356643
1700.836297	128.394406
1702.680059	127.860839
1704.528770	128.295105
1706.371736	127.902797
1708.217867	127.846154
1710.060037	129.786713
1711.905371	133.134266
1713.744965	133.938462
1715.585943	135.948951
1717.428304	135.743357
1719.266709	136.053846
1721.106497	135.504895
1722.944110	133.188112
1724.781327	128.627273
1726.616371	128.379021
1728.452798	124.113986
1730.287053	122.092308
1732.120913	121.214685
1733.954380	122.195105
1735.783900	121.841958
1737.616579	122.200000
1739.445314	120.739860
1741.277207	121.562238
1743.105157	124.762238
1744.932715	125.103497
1746.759881	127.360839
1748.586656	127.684615
1750.413040	125.132867
1752.235487	125.042657
1754.061088	126.537762
1755.882755	124.109091
1757.705804	123.174825
1759.526692	123.404895
1761.347190	120.990210
1763.169070	123.935664
1764.985250	126.004895
1766.804582	124.243357
1768.619987	122.943357
1770.438542	118.792308
1772.253172	117.440559
1774.067416	119.261538
1775.881272	120.940559
1777.694742	118.058042
1779.506059	122.413986
1781.318757	122.709091
1783.131068	123.934965
1784.939462	126.531469
1786.749237	126.158741
1788.555096	124.806294
1790.364101	122.541958
1792.169193	123.133566
1793.975666	123.830070
1795.781755	127.065734
1797.583934	128.416783
1799.389256	131.173427
1801.190670	134.818881
1802.993464	134.211189
1804.792352	134.504196
1806.592621	133.798601
1808.392508	129.383217
1810.190254	125.395804
1811.987618	121.638462
1813.784603	119.056643
1815.581207	113.988112
1817.375672	116.010490
1819.171516	117.490210
1820.961706	118.098601
1822.756792	119.519580
1824.546225	120.801399
1826.338795	122.496503
1828.129230	125.072727
1829.917531	124.509091
1831.708967	122.360839
1833.494757	123.245455
1835.281927	120.848252
1837.066965	119.481119
1838.855137	119.248252
1840.639423	119.565035
1842.421580	118.324476
1844.205115	118.348252
1845.986522	120.378322
1847.769308	121.709790
1849.548214	121.916783
1851.328498	122.223776
1853.106656	122.513986
1854.886193	124.514685
1856.663605	125.604196
1858.438893	127.279021
1860.215560	124.857343
1861.990103	128.234266
1863.766025	125.244056
1865.536326	124.120280
1867.309755	125.832867
1869.081064	122.683217
1870.852003	121.889510
1872.624318	122.527273
1874.391020	125.030070
1876.160848	125.435664
1877.926812	124.756643
1879.695900	124.910490
1881.461126	123.716084
1883.225983	124.057343
1884.992218	123.881818
1886.754594	123.674126
1888.516603	123.923776
1890.278244	122.360839
1892.039519	123.969231
1893.800426	126.485315
1895.560967	128.514685
1897.319398	125.656643
1899.077464	123.798601
1900.833421	121.615385
1902.590756	120.930070
1904.347724	119.132168
1906.102587	120.201399
1907.855344	117.950350
1909.607738	116.420979
1911.361507	120.176224
1913.113173	123.012587
1914.862737	126.187413
1916.613677	125.295105
1918.364253	123.230769
1920.110990	123.936364
1921.859104	123.343357
1923.605118	123.667832
1925.352508	122.266434
1927.097799	120.911189
1928.840993	118.577622
1930.585563	118.514685
1932.328036	122.620979
1934.070149	122.377622
1935.811902	124.309091
1937.553296	124.587413
1939.292596	121.901399
1941.031536	120.181119
1942.770119	121.758042
1944.506609	118.661538
1946.242742	116.425175
1947.980249	111.104196
1949.713934	107.589510
1951.448994	107.287413
1953.181966	104.467832
1954.914581	106.962238
1956.646839	109.073427
1958.378741	111.425874
1960.108557	112.036364
1961.836289	115.176923
1963.565394	122.968531
1965.294145	124.251748
1967.020812	124.865734
1968.747125	125.561538
1970.474811	123.641958
1972.196961	122.509091
1973.922212	120.079021
1975.643657	120.577622
1977.368201	118.567832
1979.090666	119.958741
1980.809327	124.589510
1982.531087	127.441259
1984.249045	131.425175
1985.968376	129.367133
1987.683908	128.681119
1989.404261	132.253846
1991.120814	129.638462
1992.833571	130.334965
1994.549425	131.343357
1996.263205	127.818182
1997.976636	127.497203
1999.687996	127.205594
2001.400729	127.473427
2003.109670	125.813986
2004.821705	122.404196
2006.528230	117.537063
2008.237848	119.311189
2009.945398	121.367832
2011.652601	120.967133
2013.357738	123.590210
2015.062528	123.860839
2016.768690	121.469930
2018.471070	122.777622
2020.174822	123.118182
2021.876510	121.878322
2023.577854	122.454545
2025.278852	121.735664
2026.977790	124.298601
2028.678098	126.834266
2030.374632	128.628671
2032.072537	128.686014
2033.768383	130.719580
2035.467315	129.690210
2037.160761	128.817483
2038.855579	125.282517
2040.550053	125.720979
2042.240759	124.055245
2043.934549	125.767133
2045.624572	126.732867
2047.315966	127.545455
2049.005307	126.261538
2050.696018	129.943357
2052.382966	128.979021
2054.069575	128.972727
2055.757554	127.448252
2057.441773	125.907692
2059.127362	122.800699
2060.812612	125.478322
2062.495814	126.262937
2064.180385	127.095804
2065.859494	128.012587
2067.543388	127.206294
2069.221822	127.681818
2070.903332	129.720280
2072.581092	127.860839
2074.258514	124.439161
2075.937306	123.412587
2077.614056	121.160839
2079.288764	120.581119
2080.964841	121.964336
2082.638878	120.225175
2084.312579	119.080420
2085.985945	120.600000
2087.657273	118.392308
2089.328266	120.976923
2090.998925	123.540559
2092.669249	124.933566
2094.339240	123.939860
2096.007195	123.179720
2097.674817	122.010490
2099.340404	123.340559
2101.007361	121.981818
2102.672283	118.706993
2104.336874	118.403497
2105.999433	120.497203
2107.663360	122.262937
2109.325257	123.602098
2110.986822	124.997902
2112.648056	125.541958
2114.307262	124.569930
2115.966137	123.043357
2117.624683	122.039860
2119.282899	121.460839
2120.937391	119.646154
2122.594948	119.218182
2124.252176	117.333566
2125.905682	117.231469
2127.560556	117.898601
2129.211712	114.695804
2130.865929	113.765734
2132.516430	113.920979
2134.168297	115.121678
2135.814756	115.921678
2137.465970	118.939161
2139.113470	121.495804
2140.762337	123.829371
2142.409186	128.320280
2144.055708	127.407692
2145.701905	128.270629
2147.344394	128.932867
2148.989941	126.393007
2150.631781	125.527273
2152.276678	123.503497
2153.917870	125.923077
2155.558738	126.327972
2157.199282	127.051748
2158.837814	126.751049
2160.477712	127.934266
2162.113910	130.033566
2163.751475	126.656643
2165.388716	124.065035
2167.023948	120.593007
2168.658859	118.038462
2170.293448	115.634266
2171.927715	112.253147
2173.558289	117.553846
2175.191915	116.932867
2176.821849	116.584615
2178.453148	118.995804
2180.082442	120.391608
2181.711417	121.468531
2183.340073	120.790210
2184.968409	120.239161
2186.594742	120.644056
2188.220757	118.333566
2189.844771	116.429371
2191.470149	117.282517
2193.093528	118.609790
2194.718270	117.291608
2196.339332	116.462238
2197.960077	117.056643
2199.582187	116.932168
2201.202299	118.325874
2202.820414	120.521678
2204.438214	120.242657
2206.055699	121.879720
2207.672868	120.298601
2209.289722	124.425874
2210.906261	126.993007
2212.520806	125.890909
2214.133359	125.414685
2215.747276	123.507692
2217.359202	124.466434
2218.972491	123.613986
2220.583790	123.778322
2222.193099	123.732168
2223.803772	122.984615
2225.412456	122.858741
2227.020828	122.692308
2228.627212	122.610490
2230.234960	122.069930
2231.840721	116.197902
2233.446171	114.436364
2235.049636	114.200000
2236.654464	113.700699
2238.257309	113.946154
2239.858170	115.904196
2241.460393	118.882517
2243.060635	122.503497
2244.662239	125.489510
2246.260191	128.444056
2247.859505	126.648252
2249.456839	130.417483
2251.053864	127.602797
2252.652252	127.200000
2254.246991	126.313986
2255.839753	122.924476
2257.433878	121.594406
2259.029364	119.069231
2260.621206	115.848252
2262.212741	115.194406
2263.805637	115.548951
2265.393224	113.950350
2266.985508	114.772727
2268.572484	120.071329
2270.162489	121.909091
2271.747189	123.493706
2273.336583	124.821678
2274.920674	122.576224
2276.506127	120.555245
2278.089610	118.895105
2279.676120	117.755944
2281.258996	114.500699
2282.841568	113.175175
2284.423837	113.096503
2286.002477	115.775175
2287.584140	118.567832
2289.162175	121.091958
2290.743233	120.470629
2292.320665	120.045804
2293.896132	118.127972
2295.474622	119.296853
2297.049488	121.411888
2298.624053	122.017832
2300.198318	116.919580
2301.772282	117.359790
2303.345946	119.415385
2304.919309	119.904196
2306.489054	120.064336
2308.058500	119.774126
2309.630965	119.744755
2311.198154	119.685315
2312.768362	120.257343
2314.334955	119.832867
2315.902908	118.865035
2317.468905	118.483217
2319.034605	117.311888
2320.600008	120.516783
2322.163456	126.704895
2323.728264	133.892308
2325.289464	138.547552
2326.853678	141.718881
2328.412631	144.055944
2329.974597	141.797203
2331.534613	140.517483
2333.094333	133.199301
2334.652104	127.286014
2336.209580	122.858741
2337.766762	118.890210
2339.321997	119.805594
2340.876937	122.437762
2342.431584	123.845455
2343.985937	123.473427
2345.539996	123.781818
2347.093761	122.205594
2348.645583	122.310490
2350.195461	123.332867
2351.748347	121.897203
2353.295991	121.886713
2354.846642	123.608392
2356.393702	124.518881
2357.942121	125.427972
2359.490247	123.722378
2361.034785	120.546853
2362.580681	119.439860
2364.124639	118.463636
2365.669954	116.989510
2367.211684	116.315385
2368.754771	116.025175
2370.295923	116.539860
2371.836785	119.403497
2373.377358	122.500000
2374.917641	123.930769
2376.457636	123.583217
2377.994053	124.061538
2379.533471	124.416783
2381.069312	127.206993
2382.606509	125.444056
2384.140131	123.844056
2385.676754	121.788112
2387.211445	121.302797
2388.744207	123.169231
2390.276682	124.478322
2391.807230	125.679720
2393.340775	125.488112
2394.869109	125.671329
2396.398799	125.983217
2397.928204	127.542657
2399.457323	126.876923
2400.986158	123.193007
2402.509787	123.330070
2404.038053	124.360140
2405.561115	125.676224
2407.088811	126.941958
2408.609668	126.174825
2410.135158	122.985315
2411.657087	119.710490
2413.180372	119.063636
2414.701736	119.725175
2416.221180	122.213287
2417.741979	120.304895
2419.260859	122.804895
2420.779457	125.470629
2422.296138	126.030070
2423.814173	125.622378
2425.331927	127.231469
2426.846130	125.713986
2428.360052	122.632168
2429.873694	122.609091
2431.388691	122.882517
2432.900139	124.695804
2434.412942	125.288112
2435.923832	123.383916
2437.434442	126.951748
2438.943141	127.928671
2440.454827	126.481818
2441.962968	127.938462
2443.470832	130.339860
2444.978418	128.341259
2446.482463	128.501399
2447.989494	127.902797
2449.494616	127.793706
2450.999461	126.332867
2452.502399	125.924476
2454.005060	128.555944
2455.507445	131.404895
2457.007925	131.549650
2458.509758	133.068531
2460.009687	133.824476
2461.509340	132.472727
2463.008717	128.451049
2464.506192	128.272028
2466.001765	127.464336
2467.500319	126.463636
2468.995343	125.355245
2470.491721	127.109091
2471.984571	127.386713
2473.478775	127.009790
2474.972705	124.658741
2476.463112	123.925874
2477.956495	122.895105
2479.447981	121.506993
2480.937570	119.510490
2482.426887	122.880420
2483.914309	124.055944
2485.404706	123.820280
2486.891584	126.855245
2488.379814	125.259441
2489.864528	123.990909
2491.348971	121.704196
2492.834766	117.515385
2494.318668	117.523077
2495.803922	120.099301
2497.284042	119.127273
2498.767134	120.810490
2500.248336	123.769231
2501.729269	123.344056
2503.208313	123.593007
2504.687088	122.589510
2506.165595	120.148252
2507.643834	119.079021
2509.121804	115.334965
2510.596270	114.720979
2512.073704	117.390909
2513.547635	119.611888
2515.022916	120.053846
2516.497931	120.787413
2517.969444	124.116783
2519.442307	124.225874
2520.913288	127.693007
2522.385619	127.740559
2523.852837	129.092308
2525.323020	126.979720
2526.791323	124.905594
2528.259361	125.193007
2529.727134	125.028671
2531.194642	123.720280
2532.661885	122.918881
2534.125636	123.670629
2535.590737	125.302797
2537.053961	127.060140
2538.518535	129.272727
2539.979619	128.612587
2541.442053	129.232168
2542.904224	127.230769
2544.362909	125.963636
2545.826166	126.277622
2547.284326	122.400000
2548.743835	122.310490
2550.198251	122.244755
2551.657236	121.385315
2553.114350	123.379720
2554.569593	125.933566
2556.024575	124.185315
2557.477687	125.476224
2558.932148	123.581818
2560.384740	124.718182
2561.837072	124.748252
2563.287536	125.728671
2564.740956	125.704895
2566.189294	127.810490
2567.640588	126.925175
2569.090015	125.045455
2570.535970	128.700000
2571.984881	125.767832
2573.430320	124.025175
2574.877108	123.663636
2576.322032	121.384615
2577.766699	127.324476
2579.212713	127.100699
2580.655260	130.144755
2582.099155	132.553147
2583.539585	131.545455
2584.981362	132.315385
2586.421280	133.271329
2587.862545	133.109091
2589.300349	130.511189
2590.741102	129.809091
2592.176792	127.576923
2593.615432	129.409091
2595.052215	130.590909
2596.487141	132.055245
2597.925016	132.695105
2599.357832	131.955944
2600.791996	129.608392
2602.224306	130.802797
2603.657962	130.454545
2605.089765	128.094406
2606.521315	129.437063
2607.952611	129.955245
2609.382055	130.719580
2610.811248	136.175524
2612.238589	136.530070
2613.667277	141.234266
2615.095712	140.653846
2616.520700	141.288112
2617.947035	139.180420
2619.371521	138.241958
2620.797353	138.677622
2622.219741	135.951748
2623.643475	136.123077
2625.065362	136.339860
2626.487000	135.616084
2627.906792	139.882517
2629.327930	142.153846
2630.748818	145.381818
2632.166268	145.693706
2633.586657	145.797203
2635.003609	145.872727
2636.420313	145.403497
2637.836768	145.738462
2639.252975	140.772028
2640.668933	141.023077
2642.083051	139.787413
2643.496922	138.686014
2644.908953	144.074126
2646.322329	147.207692
2647.732275	147.446154
2649.145156	147.622378
2650.554610	147.832867
2651.963817	150.972028
2653.371187	150.242657
2654.781493	154.132168
2656.189962	152.992308
2657.596596	153.975524
2659.002985	154.381818
2660.407540	156.157343
2661.813439	160.736364
2663.217505	160.820280
2664.621326	165.386014
2666.024904	164.983916
2667.426649	165.200699
2668.829738	169.600699
2670.229409	170.089510
2671.630424	171.825874
2673.028023	169.405594
2674.428552	170.068531
2675.825666	170.032867
2677.224123	168.506294
2678.620752	170.179720
2680.017139	170.063636
2681.413285	171.917483
2682.807604	167.348951
2684.203266	165.270629
2685.595518	164.300000
2686.989114	159.027273
2688.380885	154.465035
2689.773998	155.800699
2691.165288	152.585315
2692.554755	149.682517
2693.943982	149.102098
2695.332970	149.715385
2696.723300	149.246853
2698.108645	148.299301
2699.496914	147.272727
2700.883363	148.192308
2702.269573	147.526573
2703.655545	148.045455
2705.038117	146.863636
2706.422032	149.727273
2707.805709	145.967133
2709.189148	143.490210
2710.569191	142.911189
2711.950576	142.760839
2713.330145	139.895804
2714.711056	136.327273
2716.090151	134.643357
2717.467433	136.283916
2718.846056	133.962937
2720.222866	132.549650
2721.599440	131.793706
2722.975778	131.913986
2724.350304	131.776224
2725.726171	131.170629
2727.098651	135.152448
2728.474047	138.751049
2729.844483	136.181818
2731.216260	135.608392
2732.587802	136.000000
2733.957536	137.227273
2735.328611	136.858042
2736.697877	133.452448
2738.066911	134.305594
2739.434137	132.465734
2740.801131	132.489510
2742.167892	132.687413
2743.534420	132.062238
2744.899143	130.920979
2746.263635	127.520979
2747.627894	127.702797
2748.991921	125.591608
2750.355717	127.893706
2751.716139	127.902098
2753.079472	126.623776
2754.437862	126.155944
2755.799162	125.957343
2757.157091	128.386014
2758.517930	130.046154
2759.876968	127.231469
2761.232638	125.721678
2762.591216	124.888811
2763.946428	124.681818
2765.301410	122.022378
2766.654595	122.141958
2768.010687	121.488811
2769.363415	120.848252
2770.715914	118.447552
2772.068185	119.184615
2773.421795	118.657343
2774.772043	116.768531
2776.120498	115.438462
2777.471857	113.160839
2778.819857	113.109091
2780.169196	112.484615
2781.516742	111.120280
2782.864061	113.226573
2784.211154	112.878322
2785.556456	113.176923
2786.901532	112.070629
2788.246382	110.439860
2789.591005	108.035664
2790.932277	106.836364
2792.274887	107.338462
2793.617271	104.065734
2794.959431	104.102797
2796.298241	103.528671
2797.639950	106.695804
2798.978312	109.567133
2800.318011	109.871329
2801.655924	113.465035
2802.992053	114.289510
2804.327958	116.203497
2805.665201	118.674126
2807.000660	118.359441
2808.335896	116.914685
2809.669349	114.032168
2811.004140	112.530769
2812.335589	111.213986
2813.669934	111.227972
2814.999381	111.140559
2816.330165	112.594406
2817.660727	114.686014
2818.989510	117.431469
2820.319629	116.463636
2821.647970	118.892308
2822.976090	117.975524
2824.302432	118.458741
2825.630111	118.748252
2826.954457	118.044755
2828.280138	114.986014
2829.604044	115.224476
2830.927731	116.029371
2832.252753	115.355245
2833.574445	113.500000
2834.895919	111.118881
2836.217174	109.795804
2837.538210	110.791608
2838.857474	111.085315
2840.178073	111.307692
2841.496900	110.034965
2842.815509	108.141958
2844.132347	107.295105
2845.448968	108.228671
2846.765372	106.666434
2848.080007	105.779720
2849.395976	104.901399
2850.708625	105.875524
2852.022610	108.506294
2853.336377	108.609790
2854.649929	108.165035
2855.961713	105.791608
2857.271731	105.380420
2858.583084	106.151049
2859.891122	107.640559
2861.200495	108.985315
2862.509652	112.514685
2863.818594	115.965734
2865.125773	117.632168
2866.431188	120.457343
2867.737938	118.770629
2869.042925	119.611888
2870.347699	117.851748
2871.650711	114.204196
2872.956605	111.990210
2874.257643	111.082517
2875.560016	113.220979
2876.860629	112.672727
2878.162576	115.446154
2879.464310	114.514685
2880.762739	113.030070
2882.062503	115.570629
2883.360508	115.600000
2884.658302	119.546154
2885.954340	121.097902
2887.251711	119.386713
2888.547326	120.278322
2889.842730	119.896503
2891.137924	121.065734
2892.429819	118.330070
2893.724591	118.101399
2895.016066	115.101399
2896.308874	112.150350
2897.601472	110.948252
2898.890776	112.149650
2900.181412	114.649650
2901.470297	114.810490
2902.760515	112.086014
2904.047440	112.330070
2905.335699	110.713986
2906.622207	112.548252
2907.908508	112.855245
2909.194600	113.532168
2910.478944	114.196503
2911.766160	115.823776
2913.048548	114.390909
2914.332269	118.886713
2915.614244	119.587413
2916.896012	117.779720
2918.176034	115.361538
2919.458926	115.681818
2920.740073	112.540559
2922.017938	111.920979
2923.298672	108.737063
2924.576125	107.260839
2925.853372	108.019580
2927.128878	108.588112
2928.407251	105.867832
2929.680809	106.581119
2930.957235	105.885315
2932.231920	108.080420
2933.504865	109.665035
2934.779140	110.543357
2936.051676	111.332867
2937.324008	112.588811
2938.593066	110.872727
2939.864990	110.030070
2941.135176	109.074825
2942.405159	108.876224
2943.674938	108.947552
2944.942980	107.909091
2946.209287	107.780420
2947.475391	111.895804
2948.742825	113.916783
2950.008525	115.349650
2951.274022	116.541259
2952.539317	113.190210
2953.801347	109.601399
2955.064708	104.814685
2956.327866	103.852448
2957.589293	107.161538
2958.852049	107.009790
2960.113074	106.183217
2961.372367	105.891608
2962.631461	110.874825
2963.890354	113.924476
2965.149047	115.513986
2966.407540	113.165035
2967.664304	110.148951
2968.920868	109.897902
2970.175705	106.430070
2971.431871	107.679021
2972.684781	105.541958
2973.939021	101.855944
2975.193062	102.941259
2976.445377	101.404196
2977.697494	103.461538
2978.947886	101.286713
2980.201133	101.916783
2981.449603	99.694406
2982.700927	99.579720
2983.949003	98.751049
2985.196881	95.639860
2986.444562	97.244755
2987.692047	94.081818
2988.937810	95.315385
2990.183376	100.053846
2991.430270	98.020280
2992.673920	100.707692
2993.918898	98.265734
2995.160633	99.986713
2996.405218	98.509091
2997.648085	96.858042
2998.887711	96.153147
3000.130187	97.781119
3001.369424	100.412587
3002.609988	99.754545
3003.848835	101.900699
3005.087488	103.875524
3006.324425	102.407692
3007.562689	105.267832
3008.799239	102.918881
3010.035594	105.975524
3011.271756	105.169231
3012.506205	103.437762
3013.740460	104.609790
3014.974522	106.502797
3016.206872	104.884615
3017.437510	105.423077
3018.670994	102.632867
3019.902766	98.769930
3021.132828	96.211189
3022.362698	98.893706
3023.590858	97.999301
3024.820344	101.221678
3026.048122	99.200699
3027.275708	98.915385
3028.504620	98.721678
3029.728790	99.332867
3030.955803	98.388811
3032.179592	99.128671
3033.404708	96.533566
3034.628117	98.596503
3035.851337	99.056643
3037.072851	99.899301
3038.297206	99.427972
3039.516826	99.997203
3040.737771	99.429371
3041.958528	99.438462
3043.177581	96.100699
3044.397960	94.498601
3045.615122	95.056643
3046.833609	95.250350
3048.050394	96.023776
3049.266992	98.648252
3050.483401	94.337762
3051.696598	94.407692
3052.912632	98.579021
3054.125454	99.937063
3055.341113	101.247552
3056.552049	102.274825
3057.764310	99.398601
3058.976385	96.692308
3060.188273	96.092308
3061.398463	92.291608
3062.608467	89.227622
3063.818286	86.946154
3065.026408	82.276573
3066.234344	84.599301
3067.440586	87.852098
3068.648151	89.206294
3069.854023	92.358392
3071.059709	94.811888
3072.265210	95.329021
3073.469018	94.965035
3074.674150	94.655594
3075.877590	95.372028
3077.079337	92.816434
3078.280901	90.950350
3079.482281	88.346853
3080.683477	87.969930
3081.882983	87.818182
3083.082305	90.066434
3084.282951	92.423077
3085.481907	95.057343
3086.677669	94.248951
3087.876260	94.449650
3089.071657	94.094406
3090.268377	95.983916
3091.461905	88.917483
3092.658261	88.347552
3093.852931	84.217483
3095.044410	84.796503
3096.240220	87.197902
3097.431337	91.451748
3098.623776	95.336364
3099.813028	98.604895
3101.005106	99.304895
3102.195499	100.880420
3103.382707	99.948951
3104.571238	98.909790
3105.761091	93.439860
3106.947759	92.488811
3108.134248	85.420979
3109.320557	86.172727
3110.508188	85.251049
3111.692638	84.760839
3112.875407	84.041958
3114.061000	84.481119
3115.244912	86.139860
3116.427146	88.018881
3117.609201	89.703497
3118.791079	90.795804
3119.972778	90.909790
3121.152799	91.739161
3122.331144	92.512587
3123.512310	93.481818
3124.690300	95.515385
3125.868113	94.443357
3127.045749	93.596503
3128.221710	93.227972
3129.397494	90.851049
3130.574600	91.288811
3131.750031	90.764336
3132.923789	88.254545
3134.095875	86.499301
3135.269281	87.046154
3136.442512	88.546154
3137.614070	91.306294
3138.786950	94.671329
3139.956662	94.578322
3141.127695	95.239860
3142.297057	92.290210
3143.464750	93.146154
3144.635258	92.525874
3145.801107	94.547552
3146.971266	93.444056
3148.136767	90.353846
3149.302095	88.395804
3150.467249	89.592308
3151.632229	92.560140
3152.798530	91.009091
3153.960177	91.459441
3155.123145	91.886713
3156.285939	90.907692
3157.448561	92.130070
3158.609518	90.183916
3159.770302	92.798601
3160.930914	90.453846
3162.089863	87.160839
3163.248639	83.714685
3164.407244	82.281818
3165.565677	82.766434
3166.723938	83.819580
3167.880537	83.796503
3169.035475	85.093007
3170.191732	84.477622
3171.346329	84.915385
3172.500754	87.605594
3173.653520	89.782517
3174.806116	89.575524
3175.958541	88.600699
3177.110797	88.920979
3178.262883	87.359441
3179.411822	89.420979
3180.563568	90.910490
3181.713656	88.501399
3182.862088	90.436364
3184.010351	90.231469
3185.158444	93.583916
3186.306369	93.543357
3187.452639	88.868531
3188.598740	88.220979
3189.743186	86.740559
3190.887465	86.769231
3192.031576	84.852448
3193.177005	86.321678
3194.319294	88.454545
3195.461417	89.992308
3196.603372	91.816084
3197.745161	94.467832
3198.886782	96.315385
3200.025267	92.739860
3201.165070	89.271329
3202.306191	90.752448
3203.444177	88.977622
3204.580514	86.515385
3205.716685	84.173427
3206.854174	85.091608
3207.990013	84.589510
3209.127170	84.182517
3210.259714	85.912587
3211.396540	87.936364
3212.528754	88.076923
3213.662286	87.852448
3214.795652	85.600699
3215.925891	85.497902
3217.058928	84.355245
3218.188839	80.996503
3219.320067	79.167133
3220.448169	82.672727
3221.579068	84.405594
3222.708324	85.627273
3223.835935	88.662238
3224.960425	88.235664
3226.089190	86.471329
3227.214833	82.000699
3228.340313	80.519580
3229.464152	81.000699
3230.590785	77.329371
3231.712821	74.217483
3232.836173	73.944755
3233.959363	76.388112
3235.082391	78.537762
3236.203779	77.351049
3237.325006	80.103497
3238.444594	82.637762
3239.564021	82.704196
3240.681810	82.103497
3241.802392	85.864336
3242.919859	87.495105
3244.037167	84.675524
3245.154313	84.604196
3246.269824	85.344056
3247.386650	83.795804
3248.500365	84.910490
3249.616870	82.996503
3250.731741	85.474126
3251.843503	85.773427
3252.955106	85.589510
3254.068023	86.662238
3255.180782	85.662238
3256.290434	84.295105
3257.401400	84.283217
3258.512208	84.766434
3259.621385	87.246853
3260.728930	89.604895
3261.837790	89.318881
3262.946491	87.116783
3264.052090	87.177622
3265.159003	87.938462
3266.264288	88.125175
3267.370886	87.497203
3268.474384	82.097203
3269.579196	80.159441
3270.683851	79.694406
3271.785407	78.248951
3272.886808	81.529371
3273.989522	82.432867
3275.092079	81.483217
3276.191540	81.990210
3277.293785	83.081818
3278.392934	85.887413
3279.490459	85.797203
3280.587828	84.206294
3281.687980	82.318182
3282.785038	79.898601
3283.881941	76.858741
3284.978689	78.250350
3286.070879	77.811888
3287.167317	78.212587
3288.262134	81.949650
3289.356795	81.986014
3290.449835	82.010490
3291.542721	85.540559
3292.633986	85.507692
3293.726564	86.161538
3294.817521	85.038462
3295.906859	81.463636
3296.996044	81.506294
3298.086542	81.285315
3299.173955	78.250350
3300.261216	78.807692
3301.349789	81.115385
3302.438209	79.981818
3303.522082	81.365734
3304.610197	84.920280
3305.695231	84.543357
3306.778648	88.487413
3307.863378	87.664336
3308.946493	86.852448
3310.030919	83.848252
3311.112267	81.648951
3312.194927	79.582517
3313.275973	78.818881
3314.356868	78.190210
3315.436150	77.828671
3316.515281	78.825874
3317.595723	80.612587
3318.673092	81.306993
3319.751771	84.115385
3320.828840	83.262937
3321.905758	83.294406
3322.981065	83.258741
3324.056223	84.795105
3325.132692	84.331469
3326.206091	83.265734
3327.279341	80.816084
3328.353902	79.218881
3329.426853	77.163636
3330.498197	79.910490
3331.570851	77.630070
3332.640438	76.517483
3333.711336	77.588112
3334.780627	80.078322
3335.851229	81.727972
3336.920224	81.160839
3337.987613	80.367133
3339.053397	78.800000
3340.123407	76.523776
3341.190354	75.048951
3342.254239	72.143357
3343.320892	71.907692
3344.385940	68.367133
3345.449385	67.303497
3346.512684	68.257343
3347.575836	70.961538
3348.638842	72.437762
3349.701702	73.839161
3350.762960	75.500000
3351.821161	77.369930
3352.883583	79.800699
3353.942948	82.593706
3355.002168	83.961538
3356.062698	85.647552
3357.118718	83.040559
3358.177503	82.800699
3359.231780	81.430769
3360.288820	84.188112
3361.344263	84.411189
3362.401014	83.964336
3363.456168	81.623776
3364.509724	81.881818
3365.561683	82.152448
3366.616404	84.511189
3367.668076	85.869930
3368.719605	86.059441
3369.772443	85.346154
3370.822233	85.373427
3371.873331	84.432867
3372.921384	86.558042
3373.972197	88.169930
3375.019964	86.769930
3376.067589	82.078322
3377.115071	80.604196
3378.160961	75.497203
3379.208159	74.060839
3380.252315	71.497902
3381.299229	71.618182
3382.344551	71.460839
3383.386833	71.087413
3384.428973	73.027972
3385.472421	76.641259
3386.515729	78.953846
3387.557446	78.274825
3388.599022	74.341259
3389.640458	74.052448
3390.680304	71.429371
3391.718563	72.357343
3392.758129	72.754545
3393.797554	74.948252
3394.835392	73.393706
3395.871643	76.968531
3396.907755	76.437762
3397.945174	80.282517
3398.979560	79.421678
3400.015253	79.588112
3401.050807	74.414685
3402.083330	77.365734
3403.118606	76.049650
3404.150851	78.385315
3405.182958	78.526573
3406.213481	77.634266
3407.245312	76.306993
3408.277003	78.801399
3409.305668	75.009790
3410.334194	78.669231
3411.364028	76.383217
3412.393723	75.002098
3413.420393	71.598601
3414.448370	74.620280
3415.473322	74.923776
3416.501024	79.296503
3417.525703	80.537762
3418.551688	83.068531
3419.576093	86.925175
3420.600362	83.290210
3421.623052	79.583916
3422.645606	78.585315
3423.669466	75.226573
3424.690306	71.594406
3425.711011	69.482318
3426.733021	68.204371
3427.752013	67.941159
3428.770870	68.873277
3429.791032	71.181319
3430.808178	75.045879
