-118.448435	-5.131593
-115.778835	-8.095604
-113.112170	-8.843606
-110.446257	-7.801998
-107.783276	-5.397178
-105.118866	-2.055544
-102.457386	1.796503
-99.794476	5.518881
-97.136674	9.967832
-94.477441	11.058741
-91.818958	11.287413
-89.163398	14.205594
-86.506410	8.779021
-83.854519	5.153147
-81.201199	1.497203
-78.550799	-0.687413
-75.898969	-3.492308
-73.252230	-4.439161
-70.604061	-3.748951
-67.956636	-3.476923
-65.312124	-2.633566
-62.666184	0.132867
-60.025325	1.557343
-57.383037	2.737063
-54.743657	1.801399
-52.102849	3.623776
-49.462781	1.495804
-46.827785	1.792308
-44.191360	0.686713
-41.557839	2.535664
-38.922889	1.493007
-36.293004	3.274126
-33.659527	3.323776
-31.031112	4.687413
-28.403430	5.107692
-25.774321	1.842657
-23.150268	-15.126573
-20.522626	-60.137063
-17.900037	-129.974126
-15.278180	-63.758042
-12.657053	224.823776
-10.036656	642.239860
-7.419147	979.366434
-4.800210	1209.488112
-2.184159	1322.332168
0.431164	1324.116783
3.045760	1215.200000
5.657473	993.476923
8.270615	673.625874
10.878723	294.013986
13.490413	-44.620979
16.097072	-173.158042
18.705159	-106.925874
21.312522	-10.701399
23.914860	2.371329
26.520776	3.263636
29.121670	3.720280
31.723992	3.273427
34.321297	3.588811
36.922177	5.060839
39.518043	5.443357
42.115336	5.351049
44.711910	3.577622
47.303475	-0.365734
49.896468	-1.600000
52.486600	-4.658042
55.078160	-6.237762
57.666860	-5.692308
60.256987	-2.586014
62.842116	-2.293706
65.428671	-2.855944
68.014513	-3.181119
70.597501	-3.061538
73.181915	-3.697902
75.759201	-6.341259
78.340053	-6.363636
80.918056	-5.263636
83.495349	-3.721678
86.074068	-4.318182
88.647806	-3.981119
91.222970	-0.480420
93.795291	-1.958042
96.366904	-2.827273
98.935677	-4.172727
101.505877	-2.506993
104.073239	-2.408392
106.642026	-1.805594
109.207977	-1.386014
111.771093	-1.274825
114.337765	-3.162937
116.895216	-4.982517
119.458352	-3.344755
122.016529	2.882517
124.578259	6.862937
127.135034	19.209790
129.693234	34.421678
132.246482	55.989510
134.799031	81.330769
137.355131	106.725175
139.906284	133.585315
142.456738	157.520979
145.006496	177.768531
147.553434	196.004895
150.099676	208.587413
152.647344	214.261538
155.194317	212.893007
157.736353	214.603497
160.277696	209.558042
162.818346	208.944755
165.360422	206.362238
167.899687	203.818881
170.436142	200.976224
172.971907	197.681818
175.509097	196.680420
178.045595	195.656643
180.579288	192.811189
183.110178	189.993706
185.640379	187.102098
188.172005	188.494406
190.700830	186.511888
193.226856	190.704895
195.752197	190.569930
198.278962	192.369231
200.802930	191.976923
203.326214	192.510490
205.848813	191.869930
208.368619	193.111189
210.887742	192.725175
213.406182	195.448252
215.926046	195.157343
218.438909	195.268531
220.955303	197.355245
223.471015	199.151748
225.981838	198.233566
228.494085	198.816084
231.003549	200.481818
233.512335	199.902797
236.020443	200.426573
238.529974	202.247552
241.034625	204.275524
243.538601	208.079021
246.044000	207.408392
248.544524	208.618182
251.048571	212.109790
253.545648	210.506294
256.046247	209.935664
258.544075	211.102797
261.041230	212.972727
263.537712	213.271329
266.029331	215.247552
268.524470	216.313986
271.016843	217.916783
273.508545	217.828671
275.997483	217.051748
278.487846	218.714685
280.975447	218.293007
283.460288	218.031469
285.948643	218.430070
288.430059	219.348951
290.914989	220.932867
293.395074	223.362937
295.878671	223.142657
298.357425	223.951748
300.837603	224.217483
303.315028	224.958042
305.791790	228.344755
308.267889	236.734266
310.741239	248.390909
313.213927	264.009790
315.685954	275.753846
318.157320	284.945455
320.625942	289.464336
323.093904	289.965035
325.563289	284.601399
328.027850	274.862238
330.495916	262.443357
332.959162	250.506993
335.421750	242.343357
337.883682	235.564336
340.344957	236.160839
342.803498	237.183217
345.263461	235.416783
347.720691	233.741259
350.177267	235.648951
352.633189	238.249650
355.086382	239.308392
357.540996	239.965035
359.990809	240.551748
362.444119	243.778322
364.892629	244.622378
367.340489	240.291608
369.789770	242.129371
372.234258	240.424476
374.680168	237.270629
377.125429	236.769231
379.567970	236.989510
382.009864	236.213287
384.451111	237.466434
386.889642	237.837063
389.329595	238.235664
391.766834	237.476224
394.201361	235.299301
396.639376	233.291608
399.072614	234.019580
401.507274	232.593007
403.937160	232.251049
406.370532	234.821678
408.799134	235.386014
411.227095	237.867133
413.656476	241.890210
416.081092	240.650350
418.507130	242.315385
420.932527	241.746853
423.357284	241.105594
425.777283	240.609091
428.198703	241.611888
430.617426	241.228671
433.037570	242.702797
435.455019	246.054545
437.873888	248.503497
440.290064	248.328671
442.701493	249.105594
445.116398	243.660140
447.528613	242.096503
449.940194	241.170629
452.351141	235.367832
454.759402	231.925874
457.167030	232.509790
459.574027	228.557343
461.980391	226.816084
464.384073	226.761538
466.787125	229.539161
469.189547	229.653147
471.591340	230.563636
473.990454	227.655245
476.390988	229.398601
478.790893	229.805594
481.186075	228.556643
483.584724	228.086713
485.978653	227.083217
488.371956	223.495804
490.764633	223.128671
493.156685	218.253846
495.550156	212.657343
497.938914	205.071329
500.325006	196.642657
502.712518	185.925175
505.099406	179.242657
507.483631	170.848951
509.869275	165.460140
512.252256	159.934965
514.632577	159.054545
517.014317	158.995804
519.393398	156.908392
521.773898	151.206294
524.151740	145.384615
526.526927	143.390210
528.901496	140.860839
531.277484	136.226573
533.650818	133.724476
536.025570	133.008392
538.395637	131.995804
540.765088	129.969930
543.135957	131.077622
545.502146	128.342657
547.869753	124.756643
550.234714	121.379021
552.599062	117.506993
554.962798	116.002098
557.327951	113.234965
559.688431	111.995105
562.050330	111.598601
564.409589	112.836364
566.766209	111.417483
569.126274	111.942657
571.479649	113.960140
573.836468	113.388112
576.190651	114.732168
578.544227	114.432867
580.897194	113.997902
583.247530	113.071329
585.599282	113.020280
587.944358	113.686014
590.294898	113.072028
592.638765	113.425874
594.988092	111.250350
597.332772	113.295105
599.674826	112.462937
602.018298	112.298601
604.359147	114.600000
606.699394	111.684615
609.037020	110.079021
611.378081	109.886713
613.714504	110.920280
616.052345	109.096503
618.387567	109.284615
620.720174	106.325874
623.054197	101.520280
625.385607	102.260140
627.716418	99.662937
630.046631	100.888112
632.376246	99.277622
634.701239	95.961538
637.031673	96.444056
639.357485	96.502098
641.680691	95.830769
644.005312	93.507692
646.327329	91.446154
648.648751	86.140559
650.967570	86.012587
653.287805	85.663636
655.607447	83.743357
657.924488	87.741958
660.240937	88.400699
662.554788	88.749650
664.870055	92.163636
667.182725	92.304196
669.496810	95.236364
671.806295	94.309091
674.117196	90.522378
676.425504	89.344755
678.733224	88.228671
681.042359	84.222378
683.346901	82.840559
685.650856	82.704196
687.954226	81.460140
690.259010	78.172727
692.559208	80.261538
694.860820	79.715385
697.161848	81.750350
699.458293	79.232867
701.756154	79.347552
704.053431	81.077622
706.350125	80.558741
708.642243	80.217483
710.937772	80.817483
713.228728	80.553147
715.521098	81.786014
717.810892	82.216783
720.100107	83.027273
722.388741	82.372028
724.674804	81.093007
726.962280	83.021678
729.247186	84.114685
731.531513	83.870629
733.813272	82.931469
736.096445	84.008392
738.379041	83.140559
740.657082	82.723776
742.936536	84.868531
745.215415	87.870629
747.493718	88.708392
749.767472	88.886014
752.042640	89.199301
754.317234	91.502098
756.589268	90.214685
758.862716	90.401399
761.133606	90.273427
763.401940	91.711888
765.671687	91.190210
767.938880	91.607692
770.205502	95.056643
772.471555	97.704895
774.735055	99.346853
776.999969	100.539860
779.264313	102.347552
781.524128	104.083916
783.785356	103.120280
786.046015	105.170629
788.304129	106.294406
790.559698	104.407692
792.818658	101.804895
795.071119	95.993007
797.328947	92.193706
799.582255	87.900000
801.833024	85.076224
804.085205	84.130769
806.334848	83.259441
808.585902	85.479021
810.832445	86.387413
813.080400	90.713986
815.325821	92.367133
817.572653	87.854545
819.818924	86.678322
822.060691	84.074126
824.305840	81.181818
826.544517	78.725175
828.786577	77.823776
831.024138	76.896503
833.263110	76.399301
835.499556	76.606294
837.737413	76.594406
839.972745	75.519580
842.205554	74.615385
844.439774	72.006294
846.671472	73.960140
848.902615	75.324476
851.133203	77.349650
853.363236	80.983217
855.592716	83.277622
857.817714	84.124476
860.046087	84.479720
862.269981	84.388811
864.495285	82.383916
866.716114	82.279720
868.940315	81.187413
871.160043	81.305594
873.381182	81.493007
875.601770	81.630070
877.819848	82.867832
880.039337	81.413986
882.254359	80.320979
884.468833	80.785315
886.682760	80.634266
888.896139	77.737063
891.108971	74.513287
893.321257	72.958741
895.531040	71.034266
897.740278	69.212587
899.948971	68.805594
902.155165	68.493007
904.362768	69.079720
906.567874	72.377622
908.772436	78.014685
910.974502	83.256643
913.177978	86.170629
915.378960	84.381818
917.579401	84.709790
919.781249	80.710490
921.976707	75.734266
924.175524	69.874825
926.369902	69.774126
928.567638	68.081818
930.760938	67.527972
932.955647	70.156643
935.147870	72.874126
937.339555	77.386713
939.530702	79.612587
941.719366	82.718881
943.907493	87.172028
946.093140	88.482517
948.282139	87.962238
950.466715	90.655944
952.650756	92.955944
954.838147	95.040559
957.017234	93.792308
959.199672	96.976923
961.381576	98.727972
963.561006	99.200699
965.737963	99.713986
967.916327	101.137063
970.096099	102.367133
972.269522	101.625175
974.446291	102.288112
976.618653	103.618881
978.792423	103.537762
980.961789	105.872028
983.134500	104.413986
985.304744	109.309091
987.474460	112.143357
989.643647	114.910490
991.808437	120.275524
993.976568	121.541259
996.140305	122.052448
998.305448	123.380420
1000.468133	127.404196
1002.630291	129.881119
1004.789993	131.507692
1006.949171	128.752448
1009.109755	129.365035
1011.267884	129.618182
1013.425489	133.491608
1015.582571	135.392308
1017.739130	132.434266
1019.891309	128.783916
1022.044894	126.410490
1024.197958	129.200000
1026.348574	129.916084
1028.500595	132.893007
1030.648243	135.195804
1032.799223	135.266434
1034.945832	140.732168
1037.091923	141.681119
1039.237494	146.120979
1041.384471	146.251049
1043.525159	142.979021
1045.669177	142.672727
1047.810754	143.802098
1049.951815	148.453846
1052.094280	147.392308
1054.230466	150.605594
1056.369978	149.888811
1058.505134	148.534266
1060.643615	147.524476
1062.777742	145.042657
1064.911356	146.436364
1067.046375	145.352448
1069.177044	143.776923
1071.309118	143.140559
1073.438763	144.274126
1075.567896	144.952448
1077.696517	140.442657
1079.824627	140.918182
1081.950311	137.181119
1084.075485	133.664336
1086.202063	131.597902
1088.324304	130.475524
1090.447948	130.832867
1092.567259	126.097203
1094.691798	123.788112
1096.810092	122.648252
1098.929791	120.078322
1101.047071	116.684615
1103.163845	115.109790
1105.280112	116.362937
1107.393964	115.154545
1109.509219	114.809790
1111.620152	112.385315
1113.734396	112.132867
1115.844320	111.265035
1117.955648	109.120979
1120.066471	109.435664
1122.172979	110.732168
1124.282795	110.719580
1126.388297	109.872028
1128.495202	111.069930
1130.595892	108.011888
1132.701794	106.548951
1134.803387	106.659441
1136.906383	102.022378
1139.008878	103.495105
1141.105166	103.654545
1143.206662	102.139860
1145.303855	103.222378
1147.400549	104.871329
1149.496745	103.293007
1151.592444	101.669231
1153.687645	101.053846
1155.780449	99.018881
1157.874655	96.582517
1159.962670	98.764336
1162.055883	99.092308
1164.142908	102.365035
1166.233232	104.454545
1168.319269	104.850350
1170.408603	106.017483
1172.491756	105.468531
1174.576311	104.062937
1176.662268	103.141259
1178.743943	101.428671
1180.827020	99.842657
1182.907711	96.644755
1184.987910	97.730769
1187.067618	97.518881
1189.146835	94.542657
1191.223670	93.455245
1193.298124	92.490909
1195.375870	92.495105
1197.449345	93.757343
1199.524221	95.697902
1201.594830	94.834965
1203.666841	93.783916
1205.736475	95.310490
1207.807510	94.969231
1209.878057	91.558741
1211.944343	92.019580
1214.012030	90.188811
1216.077345	89.623776
1218.144060	89.134266
1220.206519	91.273427
1222.272263	93.602098
1224.333754	94.020979
1226.396644	93.162937
1228.457167	92.354545
1230.517206	92.027972
1232.576763	90.766434
1234.633954	89.655944
1236.690664	93.353147
1238.745011	92.962238
1240.802638	90.148951
1242.857903	92.316084
1244.908927	94.841259
1246.961351	96.518881
1249.013295	98.209091
1251.062881	99.489510
1253.111988	99.897203
1255.160617	97.751049
1257.208767	99.137762
1259.256439	100.612587
1261.299880	100.597203
1263.346596	97.437762
1265.390959	95.988811
1267.434846	96.838462
1269.476382	96.360140
1271.515567	96.082517
1273.558026	98.213287
1275.596262	97.328671
1277.635897	96.751049
1279.675057	96.551748
1281.709998	98.688112
1283.746339	101.858741
1285.780334	101.826573
1287.815728	101.845455
1289.846908	105.237762
1291.879487	107.788112
1293.911593	110.111888
1295.941359	112.835664
1297.972523	118.107692
1299.999479	119.876224
1302.027833	122.004196
1304.051983	125.825874
1306.079397	130.253846
1308.102609	135.733566
1310.127219	140.870629
1312.149495	143.750350
1314.173168	147.995804
1316.194508	152.248951
1318.215380	158.814685
1320.235786	165.456643
1322.251997	171.846853
1324.269606	178.153846
1326.284888	182.818881
1328.303427	185.697902
1330.317778	192.106294
1332.329803	194.140559
1334.345085	193.080420
1336.356182	188.004895
1338.368676	188.148252
1340.376987	189.950350
1342.388554	192.569231
1344.394081	192.072028
1346.402864	194.689510
1348.407469	194.579720
1350.415328	189.867832
1352.422725	183.070629
1354.424091	178.635664
1356.426854	169.251748
1358.429156	159.724476
1360.430999	152.389510
1362.432382	148.669231
1364.431452	141.919580
1366.430063	136.511888
1368.428216	133.266434
1370.425911	130.841259
1372.419442	125.295804
1374.414370	121.610490
1376.408841	118.155245
1378.402855	114.260140
1380.394561	108.711189
1382.385813	106.990210
1384.374759	102.772028
1386.365100	95.257343
1388.354986	90.996503
1390.342569	87.843357
1392.329697	86.641259
1394.314525	86.098601
1396.300746	85.897203
1398.284668	87.732168
1400.268137	87.522378
1402.251154	87.262937
1404.231872	89.145455
1406.213986	91.728671
1408.193802	90.827273
1410.173168	90.137063
1412.148394	91.465734
1414.126860	92.669231
1416.103031	93.845455
1418.078754	94.113986
1420.054027	94.437063
1422.027009	91.573427
1423.999543	88.864336
1425.971630	88.621678
1427.943268	90.454545
1429.910778	91.939860
1431.883363	93.937762
1433.848141	94.548951
1435.817991	93.825874
1437.783718	95.476224
1439.750837	96.150350
1441.715673	92.621678
1443.676390	92.801399
1445.642174	87.530070
1447.602003	85.341958
1449.563225	86.639161
1451.525840	87.698601
1453.484340	92.835664
1455.442398	93.742657
1457.400013	95.568531
1459.357187	95.242657
1461.312085	94.812587
1463.268375	93.681119
1465.222391	88.634965
1467.175967	88.259441
1469.127270	85.445455
1471.079965	83.906294
1473.030389	82.726573
1474.980373	83.858741
1476.929919	86.124476
1478.877196	86.300000
1480.822206	87.734965
1482.768607	88.767832
1484.714572	90.213287
1486.660098	90.021678
1488.603360	89.586014
1490.546185	90.639161
1492.486747	92.382517
1494.428700	91.392308
1496.368392	88.979720
1498.307648	91.321678
1500.246469	92.616084
1502.183031	94.955245
1504.120984	96.030070
1506.056679	99.891608
1507.991939	98.524476
1509.924944	97.720979
1511.857516	98.562238
1513.789656	96.544056
1515.721364	93.596503
1517.650818	89.888811
1519.581663	88.344755
1521.512077	88.591608
1523.438417	89.285315
1525.366149	89.432168
1527.291630	91.782517
1529.216682	93.218182
1531.141305	93.220280
1533.065499	100.706993
1534.987446	104.951748
1536.910782	107.024476
1538.831873	109.735664
1540.750719	112.181119
1542.670955	115.860839
1544.588947	120.065035
1546.506513	124.148252
1548.421837	129.756643
1550.338551	136.458042
1552.251210	138.422378
1554.167073	142.485315
1556.080696	149.509091
1557.992082	151.541958
1559.904856	154.392308
1561.813581	156.934266
1563.723696	156.255245
1565.633387	159.812587
1567.542654	163.330769
1569.449688	165.820979
1571.354489	168.121678
1573.260679	168.686713
1575.164637	165.572028
1577.068175	164.297902
1578.971291	161.559441
1580.872179	157.941259
1582.774454	156.271329
1584.674502	153.157343
1586.575937	150.406294
1588.473339	149.444755
1590.370322	144.962937
1592.266887	142.645455
1594.164840	139.404196
1596.056958	140.074825
1597.952269	138.207692
1599.847163	136.549650
1601.739835	136.192308
1603.632091	137.351748
1605.522126	138.051748
1607.411747	135.226573
1609.300951	135.420280
1611.189741	130.306294
1613.076314	122.888112
1614.964273	119.159441
1616.848216	114.155245
1618.733547	112.139161
1620.618463	107.991608
1622.501166	103.688811
1624.385256	101.074126
1626.265335	97.818182
1628.146800	96.080420
1630.026055	93.003497
1631.906696	93.374825
1633.781533	90.376923
1635.661352	87.906294
1637.537165	87.206294
1639.412568	86.416783
1641.289358	88.311189
1643.160350	86.595804
1645.034524	85.775524
1646.904700	85.111888
1648.778056	81.787413
1650.649209	80.551049
1652.518160	78.298601
1654.388497	78.804196
1656.254840	77.560839
1658.122569	72.717483
1659.988100	69.283916
1661.855015	67.500699
1663.717942	66.451748
1665.582254	67.185315
1667.444370	69.493007
1669.306082	69.573427
1671.169178	66.092308
1673.030080	69.297902
1674.888788	72.055245
1676.747093	74.004895
1678.606783	74.029371
1680.460706	70.442657
1682.317801	71.786014
1684.174494	71.347552
1686.027211	71.535664
1687.883098	72.834266
1689.735012	71.108392
1691.586525	68.662238
1693.437637	67.994406
1695.288349	73.478322
1697.138660	74.010490
1698.986787	73.376923
1700.836297	72.893007
1702.680059	74.040559
1704.528770	76.161538
1706.371736	76.381119
1708.217867	75.103497
1710.060037	73.562238
1711.905371	71.560839
1713.744965	71.216084
1715.585943	71.095105
1717.428304	73.739161
1719.266709	71.004895
1721.106497	69.374825
1722.944110	67.704895
1724.781327	69.971329
1726.616371	69.075524
1728.452798	69.093007
1730.287053	67.704196
1732.120913	71.143357
1733.954380	70.721678
1735.783900	74.788112
1737.616579	72.923776
1739.445314	73.716783
1741.277207	72.573427
1743.105157	71.025874
1744.932715	69.837063
1746.759881	71.009790
1748.586656	68.891608
1750.413040	65.439860
1752.235487	66.639161
1754.061088	70.449650
1755.882755	68.385315
1757.705804	69.465035
1759.526692	68.922378
1761.347190	69.868531
1763.169070	70.248951
1764.985250	69.851748
1766.804582	71.223077
1768.619987	70.741958
1770.438542	69.459441
1772.253172	68.238462
1774.067416	70.706294
1775.881272	70.833566
1777.694742	67.781119
1779.506059	69.017483
1781.318757	67.671329
1783.131068	69.109091
1784.939462	69.293007
1786.749237	70.206993
1788.555096	71.971329
1790.364101	74.848951
1792.169193	78.174126
1793.975666	79.116084
1795.781755	80.353147
1797.583934	77.536364
1799.389256	74.396503
1801.190670	73.286014
1802.993464	67.983217
1804.792352	67.592308
1806.592621	62.495105
1808.392508	62.209091
1810.190254	62.872727
1811.987618	65.248951
1813.784603	68.872727
1815.581207	68.690210
1817.375672	71.063636
1819.171516	71.911189
1820.961706	73.879021
1822.756792	74.940559
1824.546225	73.937762
1826.338795	73.937063
1828.129230	71.274126
1829.917531	70.796503
1831.708967	68.737063
1833.494757	66.474825
1835.281927	66.467133
1837.066965	65.081119
1838.855137	66.851748
1840.639423	68.457343
1842.421580	70.542657
1844.205115	68.703497
1845.986522	70.218182
1847.769308	73.420280
1849.548214	71.138462
1851.328498	68.861538
1853.106656	70.767832
1854.886193	68.639860
1856.663605	69.081119
1858.438893	66.764336
1860.215560	65.582517
1861.990103	64.685315
1863.766025	65.716783
1865.536326	63.540559
1867.309755	67.616783
1869.081064	68.934266
1870.852003	67.673427
1872.624318	72.513986
1874.391020	76.986014
1876.160848	76.735664
1877.926812	75.037762
1879.695900	69.265734
1881.461126	64.879021
1883.225983	63.742657
1884.992218	64.599301
1886.754594	64.371329
1888.516603	63.827273
1890.278244	63.945455
1892.039519	66.612587
1893.800426	71.965734
1895.560967	74.283217
1897.319398	75.281818
1899.077464	73.330769
1900.833421	71.048951
1902.590756	69.534965
1904.347724	69.801399
1906.102587	70.858042
1907.855344	68.072028
1909.607738	63.000699
1911.361507	65.210490
1913.113173	66.084615
1914.862737	65.725175
1916.613677	67.916084
1918.364253	66.580420
1920.110990	65.855944
1921.859104	64.250350
1923.605118	64.823776
1925.352508	64.248951
1927.097799	65.486713
1928.840993	63.172727
1930.585563	62.544056
1932.328036	66.048951
1934.070149	68.281119
1935.811902	69.597203
1937.553296	72.347552
1939.292596	72.009790
1941.031536	73.190909
1942.770119	72.406993
1944.506609	72.875524
1946.242742	72.302797
1947.980249	71.836364
1949.713934	70.112587
1951.448994	68.876224
1953.181966	66.750350
1954.914581	66.676923
1956.646839	65.899301
1958.378741	65.626573
1960.108557	66.760839
1961.836289	65.898601
1963.565394	63.993007
1965.294145	64.367133
1967.020812	64.855245
1968.747125	65.925175
1970.474811	65.577622
1972.196961	67.248951
1973.922212	68.237063
1975.643657	68.349650
1977.368201	71.129371
1979.090666	70.971329
1980.809327	72.026573
1982.531087	67.194406
1984.249045	66.758741
1985.968376	67.619580
1987.683908	68.093706
1989.404261	70.953846
1991.120814	71.111888
1992.833571	74.898601
1994.549425	75.295105
1996.263205	74.111189
1997.976636	74.811189
1999.687996	73.333566
2001.400729	68.467133
2003.109670	64.762238
2004.821705	67.285315
2006.528230	69.237762
2008.237848	71.529371
2009.945398	73.848951
2011.652601	75.138462
2013.357738	74.590909
2015.062528	72.730769
2016.768690	72.725175
2018.471070	71.265734
2020.174822	72.707692
2021.876510	69.752448
2023.577854	73.199301
2025.278852	73.661538
2026.977790	75.060140
2028.678098	74.681119
2030.374632	76.197203
2032.072537	78.215385
2033.768383	76.960839
2035.467315	77.313986
2037.160761	76.623776
2038.855579	74.249650
2040.550053	75.171329
2042.240759	73.713986
2043.934549	72.564336
2045.624572	69.053846
2047.315966	66.497203
2049.005307	65.608392
2050.696018	67.617483
2052.382966	71.606294
2054.069575	74.416783
2055.757554	76.846853
2057.441773	77.404196
2059.127362	79.255245
2060.812612	80.802797
2062.495814	82.674126
2064.180385	80.783916
2065.859494	78.207692
2067.543388	73.504196
2069.221822	69.148252
2070.903332	66.711189
2072.581092	67.046853
2074.258514	63.483217
2075.937306	63.828671
2077.614056	63.750350
2079.288764	65.748951
2080.964841	66.831469
2082.638878	70.111888
2084.312579	71.224476
2085.985945	71.848252
2087.657273	73.058042
2089.328266	73.181818
2090.998925	75.213287
2092.669249	74.738462
2094.339240	73.380420
2096.007195	77.139161
2097.674817	76.137063
2099.340404	76.160839
2101.007361	75.555944
2102.672283	77.348951
2104.336874	78.676923
2105.999433	76.553147
2107.663360	77.158741
2109.325257	75.960839
2110.986822	73.004196
2112.648056	70.408392
2114.307262	70.709790
2115.966137	73.606993
2117.624683	70.649650
2119.282899	69.852448
2120.937391	68.662238
2122.594948	69.222378
2124.252176	70.942657
2125.905682	69.529371
2127.560556	70.736364
2129.211712	70.439860
2130.865929	69.825874
2132.516430	69.963636
2134.168297	73.249650
2135.814756	75.657343
2137.465970	76.084615
2139.113470	75.627273
2140.762337	75.277622
2142.409186	74.542657
2144.055708	76.286014
2145.701905	75.409790
2147.344394	75.713287
2148.989941	75.635664
2150.631781	78.495105
2152.276678	76.446154
2153.917870	76.924476
2155.558738	74.675524
2157.199282	74.078322
2158.837814	70.309790
2160.477712	70.874126
2162.113910	69.981818
2163.751475	71.316084
2165.388716	69.218881
2167.023948	68.751748
2168.658859	71.809091
2170.293448	72.225874
2171.927715	68.985315
2173.558289	66.483916
2175.191915	65.134266
2176.821849	63.102098
2178.453148	60.718182
2180.082442	60.961538
2181.711417	60.403497
2183.340073	60.241259
2184.968409	57.187413
2186.594742	59.460839
2188.220757	63.588811
2189.844771	65.204196
2191.470149	68.590210
2193.093528	69.407692
2194.718270	70.888811
2196.339332	70.842657
2197.960077	71.693706
2199.582187	71.855944
2201.202299	73.216084
2202.820414	71.783217
2204.438214	69.765734
2206.055699	71.690210
2207.672868	71.422378
2209.289722	71.837762
2210.906261	72.609091
2212.520806	70.380420
2214.133359	68.839860
2215.747276	69.261538
2217.359202	71.216084
2218.972491	72.378322
2220.583790	73.651049
2222.193099	72.782517
2223.803772	74.309790
2225.412456	72.837063
2227.020828	72.904196
2228.627212	77.120280
2230.234960	78.376923
2231.840721	77.220979
2233.446171	75.501399
2235.049636	74.665734
2236.654464	76.029371
2238.257309	77.645455
2239.858170	76.874825
2241.460393	76.020280
2243.060635	74.174825
2244.662239	70.840559
2246.260191	72.113287
2247.859505	73.596503
2249.456839	69.943357
2251.053864	66.688112
2252.652252	64.025874
2254.246991	64.221678
2255.839753	64.551748
2257.433878	64.894406
2259.029364	63.475524
2260.621206	63.757343
2262.212741	64.387413
2263.805637	67.609790
2265.393224	68.446154
2266.985508	70.293706
2268.572484	70.223077
2270.162489	72.977622
2271.747189	72.889510
2273.336583	72.894406
2274.920674	70.693007
2276.506127	65.186014
2278.089610	61.727972
2279.676120	60.001399
2281.258996	59.432867
2282.841568	61.733566
2284.423837	63.757343
2286.002477	66.537063
2287.584140	69.890909
2289.162175	73.682517
2290.743233	73.677622
2292.320665	73.686713
2293.896132	71.403497
2295.474622	66.636364
2297.049488	63.719580
2298.624053	61.545455
2300.198318	60.863636
2301.772282	60.597203
2303.345946	62.814685
2304.919309	63.697203
2306.489054	64.853147
2308.058500	67.353147
2309.630965	70.267832
2311.198154	70.960140
2312.768362	74.942657
2314.334955	75.623776
2315.902908	74.958741
2317.468905	75.716084
2319.034605	73.697203
2320.600008	74.072028
2322.163456	77.204196
2323.728264	79.491608
2325.289464	78.930070
2326.853678	81.123077
2328.412631	82.454545
2329.974597	83.192308
2331.534613	83.492308
2333.094333	79.623077
2334.652104	78.573427
2336.209580	76.881818
2337.766762	72.918881
2339.321997	74.400699
2340.876937	73.181119
2342.431584	73.154545
2343.985937	71.390210
2345.539996	68.720280
2347.093761	69.045455
2348.645583	67.471329
2350.195461	65.860140
2351.748347	64.879021
2353.295991	65.849650
2354.846642	65.648252
2356.393702	64.948252
2357.942121	65.056643
2359.490247	63.804895
2361.034785	63.898601
2362.580681	61.686014
2364.124639	60.976224
2365.669954	63.346853
2367.211684	63.290909
2368.754771	63.824476
2370.295923	63.997203
2371.836785	65.021678
2373.377358	68.068531
2374.917641	66.738462
2376.457636	65.504895
2377.994053	65.844056
2379.533471	65.584615
2381.069312	65.191608
2382.606509	67.565734
2384.140131	71.060140
2385.676754	72.796503
2387.211445	74.204895
2388.744207	75.626573
2390.276682	73.130769
2391.807230	72.518182
2393.340775	69.218182
2394.869109	68.191608
2396.398799	67.128671
2397.928204	68.205594
2399.457323	67.902797
2400.986158	69.955245
2402.509787	74.286014
2404.038053	78.327972
2405.561115	79.293007
2407.088811	76.219580
2408.609668	76.482517
2410.135158	76.802797
2411.657087	75.473427
2413.180372	73.849650
2414.701736	74.823776
2416.221180	73.876224
2417.741979	70.830769
2419.260859	72.341259
2420.779457	74.349650
2422.296138	74.056643
2423.814173	73.709091
2425.331927	73.719580
2426.846130	79.366434
2428.360052	78.025175
2429.873694	77.369930
2431.388691	77.414685
2432.900139	77.287413
2434.412942	74.743357
2435.923832	74.279021
2437.434442	70.202098
2438.943141	69.445455
2440.454827	66.903497
2441.962968	69.411888
2443.470832	69.297902
2444.978418	69.943357
2446.482463	69.765035
2447.989494	71.865734
2449.494616	71.260839
2450.999461	72.290210
2452.502399	73.958741
2454.005060	71.332168
2455.507445	67.716084
2457.007925	67.040559
2458.509758	67.924476
2460.009687	67.077622
2461.509340	68.113986
2463.008717	70.765035
2464.506192	72.984615
2466.001765	74.441259
2467.500319	74.175524
2468.995343	76.096503
2470.491721	77.211888
2471.984571	76.027972
2473.478775	76.562238
2474.972705	75.307692
2476.463112	74.141259
2477.956495	66.971329
2479.447981	68.795804
2480.937570	67.303497
2482.426887	64.603497
2483.914309	63.541958
2485.404706	65.032168
2486.891584	66.795804
2488.379814	68.646154
2489.864528	70.041259
2491.348971	72.988811
2492.834766	73.515385
2494.318668	71.728671
2495.803922	71.169231
2497.284042	72.749650
2498.767134	70.900699
2500.248336	67.910490
2501.729269	68.742657
2503.208313	69.425874
2504.687088	67.679021
2506.165595	65.926573
2507.643834	67.171329
2509.121804	68.975524
2510.596270	70.206294
2512.073704	72.083217
2513.547635	72.188811
2515.022916	71.192308
2516.497931	70.700000
2517.969444	70.576923
2519.442307	73.856643
2520.913288	74.555245
2522.385619	72.358741
2523.852837	72.820280
2525.323020	72.112587
2526.791323	72.026573
2528.259361	70.951049
2529.727134	69.818182
2531.194642	68.737063
2532.661885	68.582517
2534.125636	69.032168
2535.590737	73.808392
2537.053961	75.996503
2538.518535	76.353846
2539.979619	76.018182
2541.442053	75.706993
2542.904224	70.026573
2544.362909	68.902797
2545.826166	67.279021
2547.284326	68.301399
2548.743835	70.903497
2550.198251	69.117483
2551.657236	69.123077
2553.114350	71.465734
2554.569593	71.198601
2556.024575	70.680420
2557.477687	72.223077
2558.932148	72.734266
2560.384740	71.962937
2561.837072	73.703497
2563.287536	73.991608
2564.740956	77.579021
2566.189294	79.015385
2567.640588	76.474825
2569.090015	73.618182
2570.535970	70.906993
2571.984881	67.809790
2573.430320	67.323776
2574.877108	67.257343
2576.322032	66.225175
2577.766699	66.011189
2579.212713	64.988811
2580.655260	64.561538
2582.099155	67.370629
2583.539585	70.964336
2584.981362	72.066434
2586.421280	70.732867
2587.862545	71.447552
2589.300349	73.162937
2590.741102	76.410490
2592.176792	75.439161
2593.615432	72.156643
2595.052215	73.925874
2596.487141	74.980420
2597.925016	74.282517
2599.357832	73.860140
2600.791996	72.914685
2602.224306	71.640559
2603.657962	72.772727
2605.089765	72.383217
2606.521315	73.543357
2607.952611	74.509790
2609.382055	75.520979
2610.811248	75.908392
2612.238589	79.139161
2613.667277	79.139161
2615.095712	76.912587
2616.520700	75.101399
2617.947035	74.910490
2619.371521	78.383217
2620.797353	80.604196
2622.219741	81.925874
2623.643475	82.678322
2625.065362	83.074126
2626.487000	84.073427
2627.906792	83.818881
2629.327930	81.060140
2630.748818	79.883217
2632.166268	78.234965
2633.586657	78.451049
2635.003609	76.672028
2636.420313	75.832867
2637.836768	76.030070
2639.252975	78.881818
2640.668933	75.894406
2642.083051	77.680420
2643.496922	78.565035
2644.908953	78.297203
2646.322329	80.555245
2647.732275	87.357343
2649.145156	87.259441
2650.554610	87.767832
2651.963817	86.804895
2653.371187	87.379720
2654.781493	89.062937
2656.189962	89.014685
2657.596596	85.031469
2659.002985	87.965035
2660.407540	85.358042
2661.813439	84.939161
2663.217505	85.618881
2664.621326	85.956643
2666.024904	82.883916
2667.426649	82.665734
2668.829738	87.058741
2670.229409	89.248252
2671.630424	92.946853
2673.028023	94.656643
2674.428552	98.225874
2675.825666	102.818881
2677.224123	99.467832
2678.620752	98.493706
2680.017139	94.595804
2681.413285	90.586713
2682.807604	87.546853
2684.203266	85.891608
2685.595518	87.737063
2686.989114	90.460839
2688.380885	91.257343
2689.773998	90.718182
2691.165288	93.747552
2692.554755	92.865035
2693.943982	90.119580
2695.332970	90.346154
2696.723300	88.134965
2698.108645	84.367832
2699.496914	82.483916
2700.883363	81.629371
2702.269573	81.974825
2703.655545	83.520280
2705.038117	79.046154
2706.422032	75.581818
2707.805709	75.746853
2709.189148	74.082517
2710.569191	73.582517
2711.950576	71.853846
2713.330145	70.152448
2714.711056	72.334266
2716.090151	74.369930
2717.467433	76.678322
2718.846056	76.989510
2720.222866	78.709091
2721.599440	76.597203
2722.975778	74.840559
2724.350304	73.993007
2725.726171	73.435664
2727.098651	73.931469
2728.474047	73.886713
2729.844483	73.988112
2731.216260	75.633566
2732.587802	76.755245
2733.957536	76.293007
2735.328611	75.490909
2736.697877	77.074825
2738.066911	73.429371
2739.434137	71.484615
2740.801131	68.049650
2742.167892	66.553846
2743.534420	66.762238
2744.899143	65.158042
2746.263635	62.643357
2747.627894	60.925175
2748.991921	60.915385
2750.355717	59.998601
2751.716139	60.679720
2753.079472	64.892308
2754.437862	66.653147
2755.799162	68.173427
2757.157091	67.892308
2758.517930	67.663636
2759.876968	69.331469
2761.232638	70.327972
2762.591216	69.871329
2763.946428	66.982517
2765.301410	67.078322
2766.654595	69.174825
2768.010687	71.684615
2769.363415	77.241958
2770.715914	78.068531
2772.068185	75.785315
2773.421795	75.090210
2774.772043	72.446154
2776.120498	70.518881
2777.471857	70.367832
2778.819857	68.884615
2780.169196	65.772727
2781.516742	65.530769
2782.864061	68.962238
2784.211154	69.797203
2785.556456	70.189510
2786.901532	70.415385
2788.246382	69.472727
2789.591005	70.580420
2790.932277	67.146853
2792.274887	66.403497
2793.617271	68.223776
2794.959431	66.256643
2796.298241	63.129371
2797.639950	62.152448
2798.978312	62.493007
2800.318011	60.138462
2801.655924	59.161538
2802.992053	59.016084
2804.327958	60.086014
2805.665201	59.645455
2807.000660	59.117483
2808.335896	63.006294
2809.669349	66.332867
2811.004140	69.073427
2812.335589	71.426573
2813.669934	73.362937
2814.999381	71.894406
2816.330165	72.584615
2817.660727	71.483217
2818.989510	68.325175
2820.319629	66.318182
2821.647970	62.550350
2822.976090	63.241259
2824.302432	63.249650
2825.630111	65.718182
2826.954457	67.240559
2828.280138	65.490210
2829.604044	65.284615
2830.927731	64.397203
2832.252753	66.597203
2833.574445	63.685315
2834.895919	61.955245
2836.217174	62.875524
2837.538210	62.451748
2838.857474	64.100699
2840.178073	62.316783
2841.496900	63.255944
2842.815509	63.402098
2844.132347	61.888811
2845.448968	62.213986
2846.765372	63.059441
2848.080007	62.732867
2849.395976	62.486713
2850.708625	64.376224
2852.022610	65.972727
2853.336377	63.149650
2854.649929	62.681818
2855.961713	62.838462
2857.271731	63.855245
2858.583084	63.731469
2859.891122	62.979720
2861.200495	61.315385
2862.509652	62.383217
2863.818594	61.324476
2865.125773	63.789510
2866.431188	61.934266
2867.737938	62.497203
2869.042925	60.781119
2870.347699	63.593706
2871.650711	66.290210
2872.956605	69.255245
2874.257643	68.751049
2875.560016	67.430070
2876.860629	67.960140
2878.162576	68.059441
2879.464310	68.106993
2880.762739	68.734266
2882.062503	64.250350
2883.360508	65.166434
2884.658302	63.855944
2885.954340	63.462937
2887.251711	62.418881
2888.547326	63.705594
2889.842730	61.551049
2891.137924	60.248252
2892.429819	60.725175
2893.724591	58.253846
2895.016066	58.962238
2896.308874	59.784615
2897.601472	60.289510
2898.890776	65.029371
2900.181412	64.655944
2901.470297	66.091608
2902.760515	66.999301
2904.047440	69.651049
2905.335699	70.075524
2906.622207	69.485315
2907.908508	68.068531
2909.194600	64.875524
2910.478944	62.430070
2911.766160	62.243357
2913.048548	61.172028
2914.332269	58.169930
2915.614244	54.362937
2916.896012	52.944056
2918.176034	52.469930
2919.458926	53.697203
2920.740073	54.581818
2922.017938	54.700699
2923.298672	55.683217
2924.576125	52.918881
2925.853372	52.171329
2927.128878	51.852448
2928.407251	52.713287
2929.680809	54.355245
2930.957235	57.343357
2932.231920	57.956643
2933.504865	59.797902
2934.779140	59.553846
2936.051676	59.501399
2937.324008	61.221678
2938.593066	62.778322
2939.864990	62.493007
2941.135176	61.116084
2942.405159	61.231469
2943.674938	64.206294
2944.942980	64.417483
2946.209287	62.705594
2947.475391	60.341958
2948.742825	56.937063
2950.008525	54.393706
2951.274022	53.878322
2952.539317	58.095804
2953.801347	57.113986
2955.064708	57.602098
2956.327866	57.644755
2957.589293	60.332867
2958.852049	60.023776
2960.113074	58.828671
2961.372367	61.011888
2962.631461	62.939860
2963.890354	62.465035
2965.149047	61.490210
2966.407540	61.231469
2967.664304	60.293007
2968.920868	56.253846
2970.175705	54.939161
2971.431871	55.398601
2972.684781	54.082517
2973.939021	51.668531
2975.193062	52.711189
2976.445377	53.241259
2977.697494	55.403497
2978.947886	55.393706
2980.201133	54.816783
2981.449603	57.387413
2982.700927	57.672727
2983.949003	57.034266
2985.196881	57.440559
2986.444562	60.893007
2987.692047	62.406993
2988.937810	62.776923
2990.183376	61.905594
2991.430270	60.904895
2992.673920	65.206294
2993.918898	66.781119
2995.160633	65.860839
2996.405218	67.783217
2997.648085	64.602098
2998.887711	59.667832
3000.130187	58.272727
3001.369424	59.189510
3002.609988	59.984615
3003.848835	58.797902
3005.087488	54.753846
3006.324425	55.619580
3007.562689	57.732867
3008.799239	57.648252
3010.035594	54.699301
3011.271756	57.378322
3012.506205	55.844056
3013.740460	55.343357
3014.974522	59.079720
3016.206872	61.364336
3017.437510	61.273427
3018.670994	60.086713
3019.902766	57.351748
3021.132828	58.365035
3022.362698	55.826573
3023.590858	55.827273
3024.820344	54.035664
3026.048122	57.233566
3027.275708	57.540559
3028.504620	57.834965
3029.728790	61.551049
3030.955803	60.273427
3032.179592	57.285315
3033.404708	56.434965
3034.628117	56.363636
3035.851337	56.032867
3037.072851	53.505594
3038.297206	53.095804
3039.516826	52.409091
3040.737771	52.704196
3041.958528	52.602797
3043.177581	51.667133
3044.397960	52.511189
3045.615122	54.886713
3046.833609	55.449650
3048.050394	56.667832
3049.266992	55.676224
3050.483401	55.725874
3051.696598	53.538462
3052.912632	52.903497
3054.125454	51.929371
3055.341113	49.395105
3056.552049	49.886014
3057.764310	48.956643
3058.976385	49.193706
3060.188273	52.986014
3061.398463	51.352448
3062.608467	50.471678
3063.818286	48.288112
3065.026408	49.892657
3066.234344	48.465035
3067.440586	47.757692
3068.648151	46.296503
3069.854023	44.168182
3071.059709	47.266434
3072.265210	49.198252
3073.469018	49.723077
3074.674150	51.556294
3075.877590	52.784615
3077.079337	56.033916
3078.280901	55.195804
3079.482281	56.620280
3080.683477	56.004196
3081.882983	56.483217
3083.082305	56.857343
3084.282951	55.154545
3085.481907	56.681818
3086.677669	56.246853
3087.876260	54.957343
3089.071657	58.367832
3090.268377	60.839860
3091.461905	62.497203
3092.658261	57.501399
3093.852931	56.779021
3095.044410	53.366434
3096.240220	53.325874
3097.431337	50.902098
3098.623776	47.613986
3099.813028	46.535664
3101.005106	43.537762
3102.195499	43.884615
3103.382707	47.320979
3104.571238	44.700000
3105.761091	44.164336
3106.947759	42.206993
3108.134248	42.013287
3109.320557	43.020979
3110.508188	45.649650
3111.692638	48.318182
3112.875407	51.221678
3114.061000	51.996503
3115.244912	53.013287
3116.427146	55.327972
3117.609201	55.923077
3118.791079	53.398601
3119.972778	53.890210
3121.152799	50.888112
3122.331144	49.396503
3123.512310	49.069231
3124.690300	47.041958
3125.868113	47.618881
3127.045749	47.190909
3128.221710	48.598601
3129.397494	52.768531
3130.574600	52.448252
3131.750031	55.318881
3132.923789	55.565035
3134.095875	52.713287
3135.269281	51.053147
3136.442512	50.255245
3137.614070	48.618881
3138.786950	47.160140
3139.956662	48.802098
3141.127695	50.558042
3142.297057	54.400699
3143.464750	54.844056
3144.635258	56.732867
3145.801107	60.004196
3146.971266	62.123776
3148.136767	59.637063
3149.302095	59.863636
3150.467249	57.788811
3151.632229	57.087413
3152.798530	55.358042
3153.960177	53.925175
3155.123145	51.980420
3156.285939	49.607692
3157.448561	45.549650
3158.609518	47.128671
3159.770302	43.596503
3160.930914	44.658042
3162.089863	43.925175
3163.248639	42.774825
3164.407244	43.537762
3165.565677	44.007692
3166.723938	44.862238
3167.880537	46.662238
3169.035475	47.633566
3170.191732	47.641259
3171.346329	45.431469
3172.500754	45.792308
3173.653520	45.902797
3174.806116	49.527273
3175.958541	50.893007
3177.110797	49.596503
3178.262883	49.508392
3179.411822	50.479720
3180.563568	49.828671
3181.713656	49.707692
3182.862088	49.540559
3184.010351	49.340559
3185.158444	48.386014
3186.306369	49.983217
3187.452639	51.915385
3188.598740	52.993007
3189.743186	49.837762
3190.887465	52.456643
3192.031576	50.265035
3193.177005	49.576923
3194.319294	48.300000
3195.461417	46.676224
3196.603372	46.283916
3197.745161	45.068531
3198.886782	48.149650
3200.025267	49.937063
3201.165070	49.874126
3202.306191	50.365734
3203.444177	50.325175
3204.580514	55.941259
3205.716685	55.156643
3206.854174	56.611189
3207.990013	57.782517
3209.127170	52.290210
3210.259714	49.953846
3211.396540	47.430769
3212.528754	47.377622
3213.662286	43.947552
3214.795652	42.597203
3215.925891	42.364336
3217.058928	43.929371
3218.188839	44.619580
3219.320067	45.138462
3220.448169	47.364336
3221.579068	48.739161
3222.708324	47.299301
3223.835935	47.967133
3224.960425	48.018881
3226.089190	47.275524
3227.214833	45.886713
3228.340313	45.374126
3229.464152	44.442657
3230.590785	42.202098
3231.712821	41.620979
3232.836173	42.504196
3233.959363	44.834965
3235.082391	45.844755
3236.203779	45.664336
3237.325006	48.555944
3238.444594	49.208392
3239.564021	50.271329
3240.681810	50.436364
3241.802392	51.665734
3242.919859	51.522378
3244.037167	52.670629
3245.154313	53.874825
3246.269824	52.487413
3247.386650	52.395105
3248.500365	48.611189
3249.616870	48.273427
3250.731741	49.313287
3251.843503	47.176224
3252.955106	46.044755
3254.068023	45.110490
3255.180782	46.076224
3256.290434	45.591608
3257.401400	46.278322
3258.512208	42.806993
3259.621385	42.413986
3260.728930	43.076923
3261.837790	42.630070
3262.946491	45.216084
3264.052090	49.541259
3265.159003	50.674126
3266.264288	49.942657
3267.370886	50.777622
3268.474384	52.329371
3269.579196	52.434965
3270.683851	51.991608
3271.785407	51.049650
3272.886808	49.504196
3273.989522	49.102797
3275.092079	49.515385
3276.191540	49.555944
3277.293785	50.825874
3278.392934	50.365734
3279.490459	50.223077
3280.587828	51.613287
3281.687980	50.934266
3282.785038	51.847552
3283.881941	53.149650
3284.978689	53.807692
3286.070879	53.003497
3287.167317	55.406993
3288.262134	55.598601
3289.356795	54.717483
3290.449835	52.751748
3291.542721	51.891608
3292.633986	49.199301
3293.726564	47.706993
3294.817521	46.181818
3295.906859	43.810490
3296.996044	43.225874
3298.086542	42.043357
3299.173955	42.439161
3300.261216	41.410490
3301.349789	41.404196
3302.438209	40.818881
3303.522082	39.137063
3304.610197	37.803497
3305.695231	35.337762
3306.778648	37.672727
3307.863378	44.206294
3308.946493	44.461538
3310.030919	47.865035
3311.112267	49.340559
3312.194927	51.171329
3313.275973	50.816783
3314.356868	50.895804
3315.436150	49.784615
3316.515281	49.609091
3317.595723	49.007692
3318.673092	47.216084
3319.751771	49.958741
3320.828840	52.927273
3321.905758	49.088811
3322.981065	49.990909
3324.056223	50.052448
3325.132692	46.836364
3326.206091	44.127273
3327.279341	42.334965
3328.353902	41.583217
3329.426853	44.573427
3330.498197	48.165734
3331.570851	47.351049
3332.640438	50.447552
3333.711336	50.396503
3334.780627	46.884615
3335.851229	47.519580
3336.920224	45.734266
3337.987613	42.675524
3339.053397	40.627972
3340.123407	41.076224
3341.190354	41.032867
3342.254239	43.060839
3343.320892	44.465035
3344.385940	45.093007
3345.449385	47.323776
3346.512684	45.131469
3347.575836	42.952448
3348.638842	43.884615
3349.701702	44.479720
3350.762960	46.672727
3351.821161	45.304196
3352.883583	46.076923
3353.942948	47.284615
3355.002168	45.671329
3356.062698	46.824476
3357.118718	47.015385
3358.177503	46.388811
3359.231780	43.522378
3360.288820	43.683916
3361.344263	43.814685
3362.401014	42.815385
3363.456168	42.583916
3364.509724	37.931469
3365.561683	38.322378
3366.616404	38.999301
3367.668076	37.186014
3368.719605	37.355944
3369.772443	36.537762
3370.822233	38.930070
3371.873331	38.762238
3372.921384	40.151748
3373.972197	39.331469
3375.019964	37.614685
3376.067589	37.595804
3377.115071	37.916084
3378.160961	40.371329
3379.208159	43.184615
3380.252315	44.318182
3381.299229	43.946154
3382.344551	46.793007
3383.386833	49.533566
3384.428973	50.504196
3385.472421	48.041958
3386.515729	45.779720
3387.557446	44.615385
3388.599022	43.486014
3389.640458	41.432867
3390.680304	38.959441
3391.718563	38.518182
3392.758129	34.288112
3393.797554	32.537762
3394.835392	33.372727
3395.871643	33.713986
3396.907755	36.830769
3397.945174	36.472727
3398.979560	39.140559
3400.015253	41.624476
3401.050807	41.900699
3402.083330	42.116783
3403.118606	42.989510
3404.150851	43.772727
3405.182958	42.851748
3406.213481	41.058042
3407.245312	41.047552
3408.277003	42.860839
3409.305668	44.695105
3410.334194	42.809790
3411.364028	42.072028
3412.393723	40.430070
3413.420393	38.462937
3414.448370	37.852448
3415.473322	39.035664
3416.501024	40.553846
3417.525703	40.380420
3418.551688	39.321678
3419.576093	43.125175
3420.600362	45.893706
3421.623052	45.697902
3422.645606	46.948252
3423.669466	45.468531
3424.690306	45.863636
3425.711011	46.174925
3426.733021	46.456818
3427.752013	46.647253
3428.770870	46.684166
3429.791032	46.505495
3430.808178	46.049176
