-118.187858	-8.997802
-115.518258	-4.802198
-112.851593	-2.019481
-110.185680	-0.422378
-107.522699	0.216384
-104.858289	0.124076
-102.196809	-0.472028
-99.533899	-2.004196
-96.876097	-2.486014
-94.216864	-1.684615
-91.558380	-2.979021
-88.902821	-2.588112
-86.245833	-1.937063
-83.593942	-1.658042
-80.940622	-0.882517
-78.290222	-0.167832
-75.638392	0.593007
-72.991653	-0.574825
-70.343484	-1.167832
-67.696059	-1.517483
-65.051547	-2.612587
-62.405607	-3.248252
-59.764748	-2.623776
-57.122460	-2.197203
-54.483080	-0.904196
-51.842272	0.638462
-49.202204	0.206993
-46.567208	4.381119
-43.930783	6.927273
-41.297262	7.054545
-38.662312	7.347552
-36.032427	7.474126
-33.398950	8.539860
-30.770535	6.833566
-28.142853	5.132168
-25.513744	2.516783
-22.889691	-12.827273
-20.262049	-60.944056
-17.639460	-158.007692
-15.017602	-186.728671
-12.396476	164.159441
-9.776079	741.436364
-7.158570	1234.367832
-4.539633	1581.021678
-1.923582	1775.668531
0.691741	1814.633566
3.306337	1704.135664
5.918050	1446.445455
8.531192	1041.415385
11.139300	530.318881
13.750990	18.179720
16.357649	-270.174825
18.965736	-175.092308
21.573099	-24.574825
24.175437	3.444755
26.781353	4.982517
29.382247	4.583916
31.984570	2.985315
34.581874	5.992308
37.182754	7.150350
39.778620	4.465734
42.375913	4.616084
44.972487	4.973427
47.564052	4.672028
50.157045	4.900699
52.747177	5.402098
55.338737	4.758042
57.927437	2.667133
60.517564	2.534965
63.102693	3.197902
65.689249	5.580420
68.275090	5.846154
70.858078	4.923077
73.442493	5.416783
76.019778	5.984615
78.600630	5.711189
81.178633	6.896503
83.755926	6.797902
86.334645	6.112587
88.908383	3.950350
91.483547	3.335664
94.055868	4.016783
96.627481	3.165734
99.196255	5.453147
101.766455	5.375524
104.333816	5.681818
106.902604	4.785315
109.468554	6.877622
112.031670	4.806294
114.598342	12.595804
117.155793	29.373427
119.718929	53.548951
122.277106	81.004196
124.838836	112.288811
127.395611	151.551748
129.953811	206.668531
132.507059	276.492308
135.059608	362.774126
137.615708	461.149650
140.166861	564.404895
142.717315	660.394406
145.267073	751.336364
147.814011	819.344755
150.360253	863.262238
152.907922	882.123077
155.454894	882.476923
157.996930	879.653846
160.538273	886.212587
163.078924	902.930769
165.620999	942.125874
168.160264	1000.439161
170.696719	1078.526573
173.232484	1173.010490
175.769674	1285.924476
178.306172	1419.969231
180.839865	1604.435664
183.370755	1854.593007
185.900956	2186.065734
188.432582	2648.309790
190.961407	3250.897902
193.487433	3976.958042
196.012774	4775.912587
198.539539	5562.859441
201.063508	6240.056643
203.586791	6702.655944
206.109390	6902.874825
208.629196	6802.161538
211.148319	6429.072028
213.666759	5827.928671
216.186623	5085.440559
218.699486	4326.276224
221.215880	3615.564336
223.731592	3012.991608
226.242415	2535.155245
228.754662	2176.997902
231.264126	1909.004196
233.772912	1700.722378
236.281020	1543.643357
238.790551	1418.902098
241.295203	1317.739860
243.799178	1232.152448
246.304577	1160.425175
248.805101	1111.071329
251.309148	1110.055944
253.806225	1168.997902
256.306824	1256.327972
258.804652	1324.014685
261.301807	1355.050350
263.798289	1344.050350
266.289909	1291.154545
268.785047	1211.196503
271.277420	1094.427273
273.769122	954.243357
276.258061	806.116783
278.748423	682.454545
281.236024	622.172727
283.720865	609.622378
286.209220	609.869930
288.690636	600.161538
291.175566	587.887413
293.655651	576.020979
296.139248	568.032867
298.618002	564.532867
301.098180	561.823776
303.575605	559.311888
306.052367	559.524476
308.528466	560.690210
311.001816	567.410490
313.474504	574.881818
315.946531	583.182517
318.417897	588.579720
320.886519	591.563636
323.354481	592.217483
325.823866	588.266434
328.288428	576.632867
330.756493	569.959441
333.219739	552.904196
335.682328	528.432867
338.144259	492.288811
340.605534	499.036364
343.064075	632.980420
345.524038	873.776923
347.981269	1125.706294
350.437844	1334.187413
352.893766	1473.602098
355.346959	1537.499301
357.801573	1519.606294
360.251386	1428.158042
362.704696	1255.109790
365.153206	1021.046853
367.601066	774.304196
370.050347	604.988811
372.494835	566.699301
374.940745	590.389510
377.386006	604.697902
379.828548	608.883916
382.270442	610.659441
384.711688	617.525175
387.150219	623.572028
389.590172	640.864336
392.027411	670.234266
394.461938	701.263636
396.899953	729.522378
399.333191	747.362238
401.767851	750.675524
404.197737	745.509091
406.631109	737.956643
409.059711	721.704895
411.487672	702.425874
413.917053	682.505594
416.341669	668.392308
418.767707	668.688112
421.193104	686.295804
423.617861	713.536364
426.037860	737.761538
428.459280	763.081119
430.878003	790.388811
433.298147	831.206993
435.715596	881.465734
438.134465	936.153147
440.550641	991.383217
442.962070	1029.800699
445.376975	1032.279720
447.789190	1233.543357
450.200771	2202.343357
452.611718	4551.355944
455.019979	8027.309790
457.427607	11737.555944
459.834604	14844.236364
462.240968	16918.004196
464.644650	17746.565734
467.047702	17261.105594
469.450124	15507.407692
471.851917	12662.876224
474.251031	9113.518881
476.651565	5634.485315
479.051470	3111.462238
481.446652	1981.579720
483.845301	1730.460839
486.239230	1699.595105
488.632533	1617.078322
491.025210	1510.077622
493.417262	1399.721678
495.810733	1312.693007
498.199491	1273.509790
500.585583	1270.803497
502.973095	1265.193007
505.359983	1254.976923
507.744208	1235.353846
510.129852	1208.808392
512.512833	1164.188112
514.893154	1104.867832
517.274894	1025.868531
519.653975	935.402098
522.034475	853.967133
524.412317	800.317483
526.787504	775.961538
529.162073	767.007692
531.538061	753.864336
533.911395	743.509790
536.286148	734.613287
538.656214	727.037762
541.025665	717.077622
543.396535	706.795804
545.762723	696.708392
548.130330	685.837063
550.495291	679.868531
552.859639	670.982517
555.223375	660.772727
557.588528	652.083916
559.949008	648.052448
562.310907	639.160839
564.670166	633.914685
567.026786	625.357343
569.386851	620.629371
571.740226	618.822378
574.097045	618.062937
576.451228	618.772028
578.804804	621.626573
581.157771	621.507692
583.508107	621.516084
585.859859	623.257343
588.204935	623.443357
590.555475	619.225175
592.899342	616.588811
595.248669	612.895804
597.593349	613.508392
599.935404	612.773427
602.278875	607.447552
604.619724	601.721678
606.959971	596.441958
609.297597	590.051748
611.638658	584.208392
613.975082	579.301399
616.312922	577.047552
618.648144	573.153846
620.980751	569.981818
623.314775	571.391608
625.646184	571.263636
627.976995	571.683916
630.307208	570.381818
632.636823	568.583217
634.961816	569.748252
637.292250	571.195804
639.618062	569.793007
641.941268	570.317483
644.265889	571.868531
646.587906	567.312587
648.909328	566.802098
651.228147	563.605594
653.548382	556.325175
655.868024	556.743357
658.185065	552.902098
660.501515	549.376224
662.815366	544.867133
665.130632	540.891608
667.443302	538.751049
669.757387	542.397203
672.066872	547.500000
674.377773	549.106294
676.686081	554.139161
678.993801	556.497902
681.302936	558.036364
683.607478	565.501399
685.911434	569.309091
688.214803	581.008392
690.519587	585.517483
692.819785	590.517483
695.121398	595.422378
697.422425	597.501399
699.718870	598.120979
702.016731	591.450350
704.314008	584.763636
706.610702	579.598601
708.902820	567.718881
711.198349	560.816084
713.489305	553.376923
715.781675	550.606294
718.071469	543.840559
720.360684	539.511888
722.649318	538.815385
724.935381	539.590210
727.222857	544.884615
729.507763	546.442657
731.792090	549.051748
734.073849	553.067133
736.357023	551.867133
738.639618	552.274126
740.917659	555.555944
743.197113	556.422378
745.475992	557.928671
747.754295	559.862238
750.028049	565.575524
752.303217	568.149650
754.577811	570.659441
756.849846	568.038462
759.123293	563.521678
761.394183	565.546154
763.662517	566.588112
765.932264	567.690210
768.199457	574.927972
770.466079	579.455245
772.732132	583.842657
774.995632	584.598601
777.260546	587.893007
779.524890	589.606294
781.784705	591.981818
784.045933	595.294406
786.306593	600.732168
788.564706	610.211189
790.820275	615.306993
793.079235	626.211189
795.331696	662.243357
797.589524	726.478322
799.842832	810.167133
802.093601	894.769231
804.345782	967.283916
806.595425	1009.886713
808.846479	1020.281119
811.093022	1002.780420
813.340978	955.000000
815.586398	880.939161
817.833230	793.246154
820.079501	711.762238
822.321268	655.511888
824.566417	627.965734
826.805094	619.969231
829.047154	620.018182
831.284715	619.089510
833.523687	615.237762
835.760133	612.886713
837.997991	614.248951
840.233323	614.247552
842.466131	616.312587
844.700351	616.851748
846.932049	616.796503
849.163192	615.052448
851.393780	609.875524
853.623814	604.935664
855.853293	603.567133
858.078291	598.813986
860.306664	594.137063
862.530558	591.636364
864.755862	590.320979
866.976691	588.363636
869.200892	588.987413
871.420620	589.141958
873.641759	586.417483
875.862347	585.819580
878.080425	586.516084
880.299914	590.004895
882.514936	594.916084
884.729410	598.276923
886.943337	599.152448
889.156716	602.455944
891.369549	605.453846
893.581834	604.953846
895.791618	605.851049
898.000856	604.097902
900.209548	594.643357
902.415742	592.213287
904.623345	591.104895
906.828451	588.917483
909.033013	590.511888
911.235079	590.785315
913.438555	588.561538
915.639537	590.772028
917.839978	591.844755
920.041827	590.623776
922.237284	591.948951
924.436101	589.186014
926.630480	585.383916
928.828215	580.437762
931.021515	575.117483
933.216224	573.643357
935.408447	574.445455
937.600132	571.485315
939.791279	570.860839
941.979943	570.813986
944.168070	572.083217
946.353717	573.540559
948.542716	577.706294
950.727292	578.613986
952.911333	578.823776
955.098724	576.283916
957.277812	576.555944
959.460249	581.094406
961.642153	581.347552
963.821583	578.741259
965.998540	580.399301
968.176905	579.662238
970.356676	580.197902
972.530099	578.948252
974.706868	576.502797
976.879231	572.865035
979.053000	568.309091
981.222366	567.137762
983.395077	566.660839
985.565321	566.430769
987.735037	566.174126
989.904224	565.723776
992.069014	569.018881
994.237145	571.791608
996.400882	575.714685
998.566025	579.602098
1000.728710	582.155944
1002.890868	583.408392
1005.050570	581.669231
1007.209748	586.200699
1009.370332	584.477622
1011.528461	578.544755
1013.686066	577.085315
1015.843148	575.760839
1017.999707	575.762937
1020.151886	580.451049
1022.305471	585.001399
1024.458535	590.779021
1026.609151	595.769231
1028.761172	594.998601
1030.908820	596.899301
1033.059800	601.170629
1035.206409	596.534266
1037.352500	592.366434
1039.498071	589.804895
1041.645048	588.439860
1043.785737	586.690210
1045.929754	589.781818
1048.071331	591.543357
1050.212392	594.594406
1052.354857	598.604196
1054.491043	599.900699
1056.630555	608.129371
1058.765711	617.812587
1060.904192	625.702797
1063.038320	629.802098
1065.171933	632.046154
1067.306952	641.196503
1069.437621	679.535664
1071.569695	751.174126
1073.699340	852.094406
1075.828473	951.370629
1077.957094	1027.688112
1080.085204	1071.843357
1082.210888	1083.384615
1084.336062	1057.186014
1086.462640	994.958741
1088.584881	904.318182
1090.708525	799.101399
1092.827836	703.014685
1094.952375	640.914685
1097.070669	611.920979
1099.190368	611.132867
1101.307648	608.165734
1103.424422	603.237063
1105.540689	600.300699
1107.654541	595.388112
1109.769796	590.131469
1111.880729	589.001399
1113.994973	587.250350
1116.104897	583.392308
1118.216225	583.894406
1120.327049	581.650350
1122.433556	581.467133
1124.543372	582.548951
1126.648874	581.162937
1128.755779	580.752448
1130.856469	581.464336
1132.962371	578.962937
1135.063964	581.284615
1137.166960	582.741958
1139.269455	582.092308
1141.365744	581.574126
1143.467239	583.988811
1145.564432	589.265035
1147.661126	599.863636
1149.757323	617.324476
1151.853021	636.307692
1153.948222	654.029371
1156.041026	666.670629
1158.135232	672.440559
1160.223247	673.879021
1162.316460	663.775524
1164.403485	649.031469
1166.493810	629.025175
1168.579846	607.228671
1170.669180	590.160839
1172.752333	577.287413
1174.836889	572.710490
1176.922845	569.038462
1179.004520	568.033566
1181.087597	568.487413
1183.168288	569.458042
1185.248487	572.287413
1187.328195	570.402797
1189.407412	574.688811
1191.484247	577.002098
1193.558701	576.006993
1195.636447	576.739860
1197.709922	576.293007
1199.784798	574.976923
1201.855407	570.290210
1203.927418	569.766434
1205.997052	571.224476
1208.068087	569.753846
1210.138634	569.270629
1212.204920	567.807692
1214.272607	573.474126
1216.337922	577.297203
1218.404637	579.816084
1220.467096	585.392308
1222.532840	590.148951
1224.594331	591.536364
1226.657221	593.491608
1228.717744	597.248951
1230.777784	599.547552
1232.837340	599.305594
1234.894531	596.604196
1236.951241	594.509091
1239.005588	592.732867
1241.063215	591.214685
1243.118480	589.138462
1245.169504	587.902797
1247.221928	585.737762
1249.273873	581.150350
1251.323458	581.958042
1253.372565	583.548951
1255.421194	582.125175
1257.469344	583.041958
1259.517016	583.815385
1261.560457	586.026573
1263.607173	583.983217
1265.651537	582.417483
1267.695423	581.644755
1269.736959	582.408392
1271.776145	578.868531
1273.818603	576.925175
1275.856839	576.102098
1277.896474	575.848951
1279.935634	575.183217
1281.970576	577.842657
1284.006916	584.295804
1286.040911	586.430070
1288.076305	583.404196
1290.107485	583.704196
1292.140064	586.766434
1294.172170	587.189510
1296.201936	583.041259
1298.233100	582.717483
1300.260056	581.843357
1302.288410	584.139860
1304.312560	586.645455
1306.339974	587.719580
1308.363187	590.020979
1310.387796	592.693007
1312.410072	593.734266
1314.433745	598.875524
1316.455085	604.106993
1318.475957	606.487413
1320.496363	610.965035
1322.512574	617.246154
1324.530184	625.828671
1326.545465	634.434266
1328.564005	639.712587
1330.578355	645.462238
1332.590380	648.038462
1334.605662	652.465734
1336.616759	654.511189
1338.629253	656.172727
1340.637564	655.546853
1342.649131	656.380420
1344.654658	655.681818
1346.663441	656.402098
1348.668046	658.687413
1350.675905	660.136364
1352.683302	658.353846
1354.684668	659.973427
1356.687431	654.353147
1358.689733	648.748252
1360.691576	645.012587
1362.692960	636.120979
1364.692029	627.829371
1366.690640	619.842657
1368.688793	611.250350
1370.686488	606.989510
1372.680019	603.376923
1374.674947	600.465734
1376.669418	594.509091
1378.663432	592.568531
1380.655139	585.991608
1382.646390	579.695105
1384.635336	576.058741
1386.625677	571.262238
1388.615563	566.872727
1390.603146	563.895804
1392.590275	564.816084
1394.575102	565.602797
1396.561323	568.188112
1398.545245	568.313986
1400.528714	567.822378
1402.511731	567.949650
1404.492450	565.759441
1406.474563	563.738462
1408.454379	563.865734
1410.433745	562.674825
1412.408971	560.378322
1414.387437	561.655245
1416.363609	563.107692
1418.339331	562.097902
1420.314604	561.762937
1422.287586	562.483916
1424.260120	563.271329
1426.232207	563.706294
1428.203845	560.765734
1430.171355	559.411888
1432.143940	557.041958
1434.108718	554.230070
1436.078569	551.274126
1438.044295	551.248951
1440.011415	551.457343
1441.976250	550.767832
1443.936967	548.429371
1445.902751	551.432867
1447.862580	555.448252
1449.823802	555.574825
1451.786417	555.587413
1453.744917	556.803497
1455.702975	555.948951
1457.660590	556.730769
1459.617764	553.330769
1461.572662	555.378322
1463.528952	557.062937
1465.482968	557.899301
1467.436544	558.013986
1469.387847	559.860839
1471.340542	561.789510
1473.290966	559.771329
1475.240951	559.855944
1477.190496	557.703497
1479.137773	554.551748
1481.082783	553.860140
1483.029184	549.119580
1484.975149	548.433566
1486.920675	547.509091
1488.863937	547.291608
1490.806762	549.399301
1492.747324	548.299301
1494.689277	548.975524
1496.628969	547.818182
1498.568225	550.079021
1500.507047	550.960140
1502.443608	551.672727
1504.381561	550.423776
1506.317256	547.606294
1508.252517	546.168531
1510.185521	546.284615
1512.118093	546.527972
1514.050233	549.532168
1515.981941	551.880420
1517.911395	556.410490
1519.842240	555.825874
1521.772654	560.316084
1523.698995	558.847552
1525.626726	558.943357
1527.552207	556.824476
1529.477259	557.441958
1531.401882	558.318881
1533.326076	558.526573
1535.248023	561.658741
1537.171359	566.409790
1539.092450	572.837063
1541.011296	574.462238
1542.931532	574.072727
1544.849524	576.615385
1546.767090	580.049650
1548.682414	581.457343
1550.599128	585.611888
1552.511787	592.279021
1554.427650	598.946853
1556.341273	603.837762
1558.252659	614.723077
1560.165433	624.246154
1562.074158	633.998601
1563.984273	644.091608
1565.893964	657.920979
1567.803231	671.509091
1569.710265	684.081818
1571.615066	693.236364
1573.521256	705.095804
1575.425214	712.535664
1577.328752	712.398601
1579.231868	707.236364
1581.132756	703.321678
1583.035031	695.469231
1584.935079	682.404196
1586.836515	670.136364
1588.733916	657.580420
1590.630899	644.921678
1592.527464	633.750350
1594.425417	623.537063
1596.317535	615.275524
1598.212846	609.027273
1600.107740	602.288811
1602.000412	597.711888
1603.892668	596.451748
1605.782704	597.462238
1607.672324	593.181119
1609.561529	591.848951
1611.450318	592.697902
1613.336891	592.887413
1615.224850	591.575524
1617.108793	587.558741
1618.994124	584.934266
1620.879040	583.059441
1622.761744	581.707692
1624.645833	573.904196
1626.525912	567.065734
1628.407377	557.346154
1630.286632	547.140559
1632.167273	540.018182
1634.042110	535.468531
1635.921929	531.984615
1637.797742	530.025175
1639.673145	527.187413
1641.549935	522.070629
1643.420927	528.630769
1645.295101	530.469231
1647.165277	527.409790
1649.038633	526.326573
1650.909786	521.780420
1652.778737	521.497203
1654.649074	520.815385
1656.515417	517.520979
1658.383146	517.143357
1660.248677	517.172727
1662.115592	513.581818
1663.978519	508.369930
1665.842831	511.434266
1667.704947	507.880420
1669.566659	505.413287
1671.429755	503.627972
1673.290657	499.116084
1675.149365	496.551748
1677.007670	494.189510
1678.867360	487.882517
1680.721283	487.169231
1682.578378	490.909790
1684.435071	491.496503
1686.287788	490.058042
1688.143676	491.327972
1689.995589	494.732168
1691.847102	493.256643
1693.698215	490.466434
1695.548926	489.506993
1697.399237	489.052448
1699.247364	490.394406
1701.096874	486.913986
1702.940636	487.933566
1704.789348	491.394406
1706.632313	488.018182
1708.478444	486.122378
1710.320614	485.088112
1712.165948	482.922378
1714.005542	481.473427
1715.846520	476.517483
1717.688881	475.452448
1719.527286	474.352448
1721.367074	475.143357
1723.204687	476.823776
1725.041904	479.969231
1726.876948	477.610490
1728.713375	473.981818
1730.547630	476.659441
1732.381490	474.216783
1734.214957	471.447552
1736.044477	472.194406
1737.877156	467.155245
1739.705891	465.616084
1741.537784	464.639161
1743.365734	465.169231
1745.193292	468.376224
1747.020458	467.816084
1748.847233	464.878322
1750.673617	466.360839
1752.496064	469.013287
1754.321665	467.413986
1756.143332	468.223776
1757.966381	471.264336
1759.787269	470.799301
1761.607767	470.725175
1763.429647	468.774126
1765.245827	469.158042
1767.065159	470.358042
1768.880564	468.981818
1770.699119	465.897203
1772.513749	464.491608
1774.327993	464.702098
1776.141849	465.663636
1777.955319	467.457343
1779.766636	468.860839
1781.579334	467.921678
1783.391645	466.848951
1785.200039	465.306993
1787.009814	465.764336
1788.815673	468.268531
1790.624679	465.265734
1792.429771	464.633566
1794.236243	463.977622
1796.042332	463.102098
1797.844511	464.253846
1799.649833	462.856643
1801.451247	464.203497
1803.254041	464.313986
1805.052929	462.491608
1806.853198	462.506993
1808.653085	463.576923
1810.450831	466.523776
1812.248196	467.279021
1814.045180	471.281119
1815.841784	472.735664
1817.636249	470.962937
1819.432093	472.158741
1821.222283	467.069231
1823.017369	463.850350
1824.806802	460.067133
1826.599372	455.873427
1828.389807	453.104895
1830.178108	451.334965
1831.969544	451.439860
1833.755334	454.650350
1835.542504	458.476923
1837.327542	462.137762
1839.115714	462.434266
1840.900000	463.141958
1842.682157	459.995804
1844.465692	455.307692
1846.247099	453.215385
1848.029885	449.292308
1849.808791	447.436364
1851.589075	446.534266
1853.367233	446.680420
1855.146770	446.383916
1856.924182	448.125874
1858.699470	451.188112
1860.476137	453.863636
1862.250681	452.976923
1864.026602	451.916783
1865.796904	450.460140
1867.570332	450.804196
1869.341641	448.800699
1871.112580	451.910490
1872.884895	449.683916
1874.651598	446.362937
1876.421425	445.433566
1878.187389	450.593706
1879.956477	452.733566
1881.721703	453.010490
1883.486561	448.747552
1885.252795	450.006294
1887.015171	449.611189
1888.777180	451.946853
1890.538822	450.482517
1892.300096	450.134965
1894.061003	444.933566
1895.821544	438.746853
1897.579975	439.388811
1899.338041	439.327273
1901.093998	434.293007
1902.851333	432.952448
1904.608301	431.287413
1906.363164	434.241259
1908.115921	433.457343
1909.868315	433.625175
1911.622084	431.660140
1913.373750	431.572028
1915.123314	432.198601
1916.874254	432.263636
1918.624830	435.425175
1920.371568	436.755944
1922.119681	434.732867
1923.865695	437.372028
1925.613085	435.881818
1927.358376	436.617483
1929.101570	435.118182
1930.846140	431.995105
1932.588613	432.210490
1934.330726	432.247552
1936.072479	432.322028
1937.813873	432.916783
1939.553173	433.140210
1941.292114	434.674126
1943.030696	432.952797
1944.767186	431.409790
1946.503319	427.140909
1948.240826	430.431469
1949.974512	430.232517
1951.709571	432.061538
1953.442543	435.352098
1955.175158	435.266434
1956.907416	435.538112
1958.639318	435.669231
1960.369134	436.708392
1962.096866	438.682517
1963.825971	439.050350
1965.554722	437.245455
1967.281389	434.105594
1969.007702	434.362238
1970.735388	432.465734
1972.457538	434.983916
1974.182789	436.675524
1975.904234	436.827972
1977.628778	435.410490
1979.351243	434.414685
1981.069904	433.198601
1982.791664	431.418881
1984.509622	430.667133
1986.228954	430.639161
1987.944485	430.179720
1989.664838	429.885315
1991.381391	429.561538
1993.094149	430.332867
1994.810002	432.097902
1996.523782	434.432867
1998.237213	432.909091
1999.948573	431.106294
2001.661306	428.101399
2003.370247	422.872727
2005.082282	422.239860
2006.788807	419.541259
2008.498425	419.323776
2010.205975	422.100699
2011.913178	425.504895
2013.618315	430.332867
2015.323105	435.324476
2017.029267	438.120979
2018.731647	439.591608
2020.435399	438.593007
2022.137087	439.674825
2023.838431	434.244755
2025.539429	430.104895
2027.238367	425.402797
2028.938675	425.927972
2030.635209	427.490210
2032.333114	428.109091
2034.028961	426.626573
2035.727892	425.190210
2037.421338	422.408392
2039.116156	420.648951
2040.810630	421.539860
2042.501336	422.467832
2044.195126	416.530769
2045.885149	416.852448
2047.576543	418.259441
2049.265884	417.272727
2050.956595	416.332168
2052.643544	417.015385
2054.330152	414.701399
2056.018131	413.916084
2057.702350	412.401399
2059.387939	412.297902
2061.073189	413.903497
2062.756391	409.583217
2064.440962	404.013287
2066.120071	406.028671
2067.803965	406.109790
2069.482399	405.145455
2071.163909	405.323776
2072.841669	407.021678
2074.519091	406.601399
2076.197884	407.237762
2077.874633	410.000000
2079.549341	410.662238
2081.225418	408.814685
2082.899455	406.231469
2084.573156	404.724476
2086.246522	408.590909
2087.917850	409.833566
2089.588843	409.713986
2091.259502	409.037063
2092.929826	409.697203
2094.599817	409.220979
2096.267772	410.183916
2097.935394	413.102098
2099.600982	413.749650
2101.267938	413.630070
2102.932861	414.491608
2104.597451	415.627273
2106.260010	416.544755
2107.923937	416.009790
2109.585834	414.714685
2111.247399	412.851748
2112.908634	413.232867
2114.567839	415.258042
2116.226715	418.167133
2117.885260	421.908392
2119.543476	422.623077
2121.197968	421.941958
2122.855525	422.741259
2124.512753	417.179720
2126.166259	415.537762
2127.821133	413.959441
2129.472289	411.410490
2131.126506	409.913986
2132.777007	410.281119
2134.428874	408.825874
2136.075333	407.549650
2137.726547	406.626573
2139.374047	404.858042
2141.022914	405.585315
2142.669763	405.742657
2144.316285	400.873427
2145.962482	402.866434
2147.604971	402.736364
2149.250518	404.365734
2150.892358	404.102797
2152.537255	402.388112
2154.178447	401.453147
2155.819315	401.412587
2157.459860	401.023776
2159.098392	402.674825
2160.738290	402.864336
2162.374488	403.348252
2164.012052	402.881119
2165.649293	401.191608
2167.284525	400.820979
2168.919436	400.464336
2170.554025	398.300699
2172.188292	394.178322
2173.818867	394.952448
2175.452492	392.377622
2177.082426	389.060839
2178.713725	390.864336
2180.343020	390.446154
2181.971994	392.071329
2183.600650	392.617483
2185.228986	392.767832
2186.855319	393.958042
2188.481334	394.446154
2190.105348	395.526573
2191.730726	391.588112
2193.354105	393.206294
2194.978847	390.941958
2196.599909	389.934266
2198.220654	390.531469
2199.842764	389.253846
2201.462876	388.180420
2203.080991	386.753846
2204.698791	388.200000
2206.316276	388.755245
2207.933445	388.704196
2209.550299	390.448951
2211.166838	390.103497
2212.781383	392.123077
2214.393936	389.355245
2216.007853	388.535664
2217.619779	386.919580
2219.233068	387.211888
2220.844367	385.218182
2222.453676	383.250350
2224.064349	384.411888
2225.673033	385.322378
2227.281405	384.402098
2228.887789	387.195105
2230.495537	388.643357
2232.101298	386.688811
2233.706748	381.172727
2235.310214	381.819580
2236.915042	381.829371
2238.517886	382.752448
2240.118747	383.750350
2241.720971	382.324476
2243.321212	381.606294
2244.922816	383.296503
2246.520768	379.763636
2248.120082	380.487413
2249.717416	381.732867
2251.314442	379.390210
2252.912829	378.437063
2254.507568	379.722378
2256.100331	379.979021
2257.694455	381.276224
2259.289941	383.152448
2260.881783	380.104196
2262.473318	378.872028
2264.066214	379.356643
2265.653801	377.609091
2267.246085	379.069930
2268.833061	380.949650
2270.423066	380.292308
2272.007766	378.893007
2273.597160	377.308392
2275.181251	376.105594
2276.766704	373.800000
2278.350187	372.898601
2279.936697	370.260839
2281.519573	367.257343
2283.102145	367.382517
2284.684414	368.937063
2286.263054	367.134965
2287.844717	367.681119
2289.422752	365.923077
2291.003810	363.776224
2292.581242	363.179720
2294.156710	360.080420
2295.735199	356.172028
2297.310065	354.567832
2298.884630	351.967133
2300.458895	348.457343
2302.032859	350.451748
2303.606523	351.243357
2305.179886	349.776923
2306.749631	353.158741
2308.319077	354.414685
2309.891542	357.778322
2311.458731	359.344755
2313.028939	353.752448
2314.595532	354.342657
2316.163485	355.383217
2317.729483	355.940559
2319.295182	352.995105
2320.860585	355.172028
2322.424034	357.528671
2323.988841	360.607692
2325.550041	364.869930
2327.114255	369.851748
2328.673208	372.311888
2330.235174	369.768531
2331.795190	365.130070
2333.354910	367.679021
2334.912681	365.744755
2336.470158	361.011888
2338.027339	358.668531
2339.582574	359.326573
2341.137514	359.023776
2342.692161	357.635664
2344.246514	358.124476
2345.800573	358.237762
2347.354338	357.122378
2348.906160	356.139161
2350.456038	356.897203
2352.008924	358.435664
2353.556568	357.571329
2355.107219	357.134266
2356.654280	359.656643
2358.202698	357.033566
2359.750824	356.288112
2361.295363	353.872727
2362.841259	352.564336
2364.385216	350.300000
2365.930531	352.346853
2367.472261	351.716783
2369.015348	350.889510
2370.556500	351.100000
2372.097362	348.886014
2373.637935	348.337063
2375.178219	346.438462
2376.718214	343.444056
2378.254630	342.319580
2379.794048	338.034965
2381.329889	336.255944
2382.867086	337.986713
2384.400709	340.388112
2385.937331	341.388811
2387.472022	342.876923
2389.004784	344.832867
2390.537260	347.426573
2392.067807	347.978322
2393.601352	349.904895
2395.129686	348.865035
2396.659376	343.080420
2398.188781	342.494406
2399.717900	339.781818
2401.246735	341.594406
2402.770365	340.379720
2404.298630	342.406294
2405.821692	343.767832
2407.349388	345.979021
2408.870245	347.398601
2410.395735	349.579021
2411.917664	353.270629
2413.440949	351.581119
2414.962313	345.693007
2416.481757	346.152448
2418.002556	343.992308
2419.521436	345.593007
2421.040034	343.404895
2422.556715	344.654545
2424.074750	344.669930
2425.592504	344.097203
2427.106707	342.441259
2428.620629	344.548951
2430.134272	342.225175
2431.649268	338.964336
2433.160716	337.060839
2434.673519	337.058042
2436.184409	337.822378
2437.695019	336.639860
2439.203718	336.398601
2440.715404	338.139161
2442.223546	338.070629
2443.731409	335.141259
2445.238995	332.925175
2446.743040	330.425874
2448.250071	328.544755
2449.755193	329.607692
2451.260038	329.562238
2452.762976	329.120979
2454.265637	330.529371
2455.768022	328.069231
2457.268502	331.120280
2458.770335	333.609790
2460.270264	334.329371
2461.769917	332.204895
2463.269295	332.288811
2464.766769	333.169231
2466.262343	335.051748
2467.760896	334.470629
2469.255920	331.281818
2470.752298	331.503497
2472.245149	329.934965
2473.739352	327.009091
2475.233282	327.427972
2476.723689	326.495105
2478.217072	325.541259
2479.708558	325.145455
2481.198147	323.884615
2482.687464	325.709091
2484.174886	325.459441
2485.665283	324.716084
2487.152161	324.742657
2488.640391	328.239860
2490.125105	327.006294
2491.609548	327.018881
2493.095343	325.523077
2494.579245	324.786713
2496.064499	322.968531
2497.544619	322.971329
2499.027711	320.561538
2500.508913	320.218182
2501.989846	317.688811
2503.468890	316.254545
2504.947666	315.379021
2506.426172	316.784615
2507.904411	314.590210
2509.382381	313.948951
2510.856847	311.487413
2512.334281	309.338462
2513.808212	308.544755
2515.283494	312.411189
2516.758508	313.389510
2518.230021	311.940559
2519.702885	312.917483
2521.173865	317.057343
2522.646196	316.290210
2524.113414	315.493007
2525.583597	314.175524
2527.051900	313.170629
2528.519938	309.093706
2529.987711	305.511189
2531.455219	303.579021
2532.922462	304.253846
2534.386213	302.433566
2535.851315	301.634266
2537.314538	304.460140
2538.779112	307.255245
2540.240196	306.637762
2541.702630	309.013287
2543.164801	314.344755
2544.623486	319.071329
2546.086743	318.009790
2547.544903	320.424476
2549.004412	320.325175
2550.458828	320.927273
2551.917813	320.078322
2553.374927	320.185315
2554.830170	318.490909
2556.285152	317.374126
2557.738264	315.695804
2559.192725	313.943357
2560.645317	312.445455
2562.097649	310.362238
2563.548113	307.096503
2565.001533	308.327972
2566.449871	304.776923
2567.901165	304.494406
2569.350592	303.656643
2570.796548	304.887413
2572.245458	305.077622
2573.690897	307.923776
2575.137685	308.832168
2576.582609	309.675524
2578.027276	308.539161
2579.473290	309.380420
2580.915837	309.385315
2582.359732	308.088112
2583.800162	304.954545
2585.241940	304.352448
2586.681857	304.630769
2588.123122	306.532168
2589.560926	306.879720
2591.001679	307.781119
2592.437369	305.692308
2593.876009	303.627273
2595.312792	300.974126
2596.747718	301.349650
2598.185593	300.465035
2599.618410	297.943357
2601.052573	296.206993
2602.484883	300.496503
2603.918539	304.332867
2605.350342	306.532867
2606.781892	305.988112
2608.213188	305.418881
2609.642633	304.202797
2611.071825	302.675524
2612.499166	305.979720
2613.927854	308.632867
2615.356289	309.421678
2616.781277	310.651049
2618.207612	311.244755
2619.632098	313.374825
2621.057930	311.116084
2622.480318	312.214685
2623.904052	308.396503
2625.325940	306.051049
2626.747577	303.959441
2628.167369	301.914685
2629.588507	299.581818
2631.009395	297.653147
2632.426845	299.151049
2633.847234	300.006294
2635.264186	302.066434
2636.680890	299.570629
2638.097345	311.555944
2639.513552	321.669231
2640.929510	326.390210
2642.343628	332.603497
2643.757499	337.391608
2645.169530	337.525175
2646.582906	330.706993
2647.992852	328.468531
2649.405733	324.511189
2650.815187	319.919580
2652.224394	317.874825
2653.631765	314.084615
2655.042070	324.497203
2656.450539	325.527972
2657.857173	330.418881
2659.263562	334.621678
2660.668117	337.652448
2662.074016	337.815385
2663.478082	336.100699
2664.881904	333.775524
2666.285481	332.530769
2667.687226	336.973427
2669.090315	339.681119
2670.489987	341.981818
2671.891001	346.612587
2673.288600	350.162238
2674.689129	353.109790
2676.086243	352.651049
2677.484700	352.362238
2678.881329	351.005594
2680.277716	346.720280
2681.673862	343.327273
2683.068181	343.929371
2684.463843	344.972028
2685.856095	342.420979
2687.249691	341.872727
2688.641462	340.579021
2690.034575	341.752448
2691.425865	340.542657
2692.815332	339.020280
2694.204560	336.867832
2695.593547	333.288112
2696.983877	331.273427
2698.369222	331.611189
2699.757491	329.691608
2701.143940	326.444056
2702.530150	324.591608
2703.916122	324.117483
2705.298695	323.519580
2706.682609	326.315385
2708.066286	328.556643
2709.449725	328.504196
2710.829768	325.962937
2712.211153	323.085315
2713.590722	323.672028
2714.971633	317.932867
2716.350729	313.067133
2717.728010	309.627273
2719.106633	305.784615
2720.483443	304.289510
2721.860017	303.813986
2723.236355	300.066434
2724.610881	300.474825
2725.986748	299.303497
2727.359228	300.113287
2728.734625	301.306993
2730.105060	301.290210
2731.476837	297.686713
2732.848380	296.320280
2734.218114	295.466434
2735.589188	291.509091
2736.958455	291.565734
2738.327488	287.756643
2739.694714	282.921678
2741.061708	281.167832
2742.428469	277.739860
2743.794997	278.570629
2745.159720	279.217483
2746.524212	277.448951
2747.888471	277.377622
2749.252499	275.772028
2750.616294	276.380420
2751.976716	277.113986
2753.340049	278.392308
2754.698439	278.224476
2756.059739	276.230769
2757.417668	274.255245
2758.778507	269.404196
2760.137545	267.459441
2761.493215	262.579021
2762.851793	262.495804
2764.207005	263.468531
2765.561987	262.188811
2766.915172	263.309790
2768.271264	268.474825
2769.623992	268.850350
2770.976491	269.567133
2772.328762	268.019580
2773.682372	265.869930
2775.032620	261.042657
2776.381075	257.304895
2777.732434	252.980420
2779.080434	254.312587
2780.429773	253.476923
2781.777319	250.290210
2783.124638	250.562937
2784.471731	252.458042
2785.817033	251.618881
2787.162109	252.911888
2788.506959	254.891608
2789.851582	255.393706
2791.192854	257.679021
2792.535464	258.385315
2793.877848	257.023077
2795.220008	256.552448
2796.558818	255.412587
2797.900527	252.505594
2799.238889	251.696503
2800.578588	249.639161
2801.916501	248.912587
2803.252630	249.984615
2804.588536	250.404196
2805.925778	248.858741
2807.261237	251.036364
2808.596473	251.032168
2809.929927	251.180420
2811.264717	250.455245
2812.596166	250.984615
2813.930511	248.336364
2815.259958	248.932867
2816.590742	249.375524
2817.921304	250.044755
2819.250087	250.551049
2820.580207	248.831469
2821.908547	248.511888
2823.236667	249.118881
2824.563010	247.058042
2825.890688	247.701399
2827.215034	244.797203
2828.540715	245.851748
2829.864621	242.808392
2831.188308	243.850350
2832.513330	244.827972
2833.835023	246.085315
2835.156496	247.395105
2836.477751	247.524476
2837.798787	245.398601
2839.118051	243.047552
2840.438650	240.565734
2841.757477	237.402797
2843.076086	234.125175
2844.392925	234.438462
2845.709546	230.660839
2847.025949	231.086014
2848.340584	235.440559
2849.656553	239.832168
2850.969202	242.503497
2852.283187	241.875524
2853.596955	241.763636
2854.910506	243.456643
2856.222290	242.625175
2857.532309	241.639860
2858.843661	243.880420
2860.151699	242.258741
2861.461072	240.601399
2862.770229	242.096503
2864.079171	244.767133
2865.386350	244.254545
2866.691765	240.623776
2867.998515	238.154545
2869.303502	237.828671
2870.608276	238.008392
2871.911288	236.565734
2873.217182	236.219580
2874.518220	236.066434
2875.820593	233.972028
2877.121206	234.872028
2878.423153	233.951748
2879.724887	232.628671
2881.023317	234.342657
2882.323080	234.107692
2883.621085	235.227273
2884.918879	235.081119
2886.214917	238.919580
2887.512288	237.717483
2888.807903	236.973427
2890.103307	234.189510
2891.398501	233.086014
2892.690396	233.211888
2893.985168	231.211189
2895.276643	228.832168
2896.569452	231.200000
2897.862049	229.334965
2899.151353	228.793007
2900.441989	230.041958
2901.730874	232.540559
2903.021092	231.518182
2904.308018	230.168531
2905.596276	227.774126
2906.882784	230.879720
2908.169085	232.158741
2909.455177	232.554545
2910.739521	231.178322
2912.026737	232.612587
2913.309126	233.296503
2914.592846	236.350350
2915.874821	238.695804
2917.156589	236.769231
2918.436611	235.316084
2919.719503	234.456643
2921.000650	231.995105
2922.278515	231.688811
2923.559249	228.404895
2924.836702	226.417483
2926.113950	222.634266
2927.389455	223.440559
2928.667828	224.570629
2929.941386	223.577622
2931.217812	221.623077
2932.492497	217.821678
2933.765442	217.651748
2935.039717	220.505594
2936.312253	218.330070
2937.584585	219.846154
2938.853644	220.256643
2940.125567	220.778322
2941.395753	220.046853
2942.665736	222.234965
2943.935515	221.851049
2945.203557	221.209790
2946.469864	219.272028
2947.735968	217.341259
2949.003402	217.134965
2950.269102	217.334965
2951.534599	214.794406
2952.799894	214.394406
2954.061924	212.356643
2955.325285	211.130769
2956.588444	212.561538
2957.849870	213.662238
2959.112626	214.346154
2960.373651	215.274825
2961.632945	215.116084
2962.892038	214.046154
2964.150931	213.865035
2965.409624	213.005594
2966.668117	213.379021
2967.924881	210.694406
2969.181445	208.620280
2970.436282	209.818881
2971.692448	210.405594
2972.945358	209.713986
2974.199598	208.848252
2975.453639	208.197902
2976.705954	209.960140
2977.958071	210.822378
2979.208463	209.609790
2980.461710	209.098601
2981.710180	211.575524
2982.961504	211.298601
2984.209580	213.734965
2985.457458	215.232867
2986.705139	213.681119
2987.952624	214.504895
2989.198387	213.065035
2990.443953	213.035664
2991.690848	212.090909
2992.934497	211.951049
2994.179475	208.054545
2995.421210	206.041958
2996.665796	204.011888
2997.908662	205.673427
2999.148288	205.428671
3000.390765	202.738462
3001.630001	202.788811
3002.870565	202.986713
3004.109412	203.606993
3005.348065	205.174126
3006.585002	203.368531
3007.823266	205.107692
3009.059816	203.323776
3010.296171	202.960140
3011.532333	199.640559
3012.766782	199.650350
3014.001037	197.487413
3015.235099	196.353147
3016.467449	196.625175
3017.698087	195.946154
3018.931571	197.278322
3020.163343	198.416084
3021.393405	196.104196
3022.623275	197.229371
3023.851435	196.803497
3025.080921	199.304196
3026.308699	195.964336
3027.536285	196.649650
3028.765197	197.130769
3029.989367	196.341259
3031.216380	196.643357
3032.440170	197.690210
3033.665285	198.163636
3034.888694	198.559441
3036.111914	197.102098
3037.333428	196.001399
3038.557783	198.625175
3039.777403	197.500000
3040.998348	194.281119
3042.219105	194.083217
3043.438158	191.006993
3044.658537	191.492308
3045.875699	191.298601
3047.094186	190.969930
3048.310972	188.892308
3049.527569	188.696503
3050.743979	188.236364
3051.957175	189.772028
3053.173209	192.672028
3054.386031	192.001399
3055.601690	192.127273
3056.812626	192.276224
3058.024887	191.158741
3059.236962	193.366434
3060.448850	191.941259
3061.659040	192.278322
3062.869045	189.795804
3064.078863	187.907692
3065.286985	188.785315
3066.494921	190.337762
3067.701163	190.294406
3068.908728	191.599301
3070.114600	191.546853
3071.320286	191.409790
3072.525787	189.297203
3073.729596	186.715385
3074.934728	182.681818
3076.138167	181.256643
3077.339914	179.612587
3078.541478	178.665734
3079.742858	179.455245
3080.944054	180.934266
3082.143560	180.739860
3083.342882	182.911888
3084.543528	183.209091
3085.742485	182.636364
3086.938246	178.972727
3088.136837	175.967133
3089.332234	174.926573
3090.528954	177.011189
3091.722482	177.194406
3092.918839	178.116084
3094.113508	176.608392
3095.304987	175.648252
3096.500797	174.986014
3097.691914	175.532867
3098.884353	173.832867
3100.073605	174.960839
3101.265683	172.690909
3102.456076	173.504196
3103.643284	174.366434
3104.831815	177.116084
3106.021668	176.811189
3107.208336	177.941958
3108.394825	176.018182
3109.581134	176.190909
3110.768765	177.004895
3111.953215	175.499301
3113.135984	173.572727
3114.321577	175.211189
3115.505489	171.797902
3116.687723	170.927972
3117.869779	168.765734
3119.051656	167.976923
3120.233355	166.142657
3121.413376	166.767133
3122.591721	169.394406
3123.772887	170.019580
3124.950877	170.595804
3126.128690	169.819580
3127.306326	169.745455
3128.482287	173.502098
3129.658072	171.040559
3130.835177	172.890909
3132.010608	172.113986
3133.184366	171.834266
3134.356452	170.253147
3135.529858	171.651049
3136.703089	172.267133
3137.874647	169.566434
3139.047527	169.462937
3140.217239	168.279021
3141.388272	167.722378
3142.557634	168.310490
3143.725327	167.045455
3144.895835	168.471329
3146.061684	166.165734
3147.231843	167.721678
3148.397344	164.506993
3149.562672	165.432168
3150.727826	166.701399
3151.892806	166.179021
3153.059107	169.072727
3154.220754	170.683916
3155.383722	172.046154
3156.546516	171.474126
3157.709138	169.582517
3158.870095	168.449650
3160.030879	166.195804
3161.191491	165.502098
3162.350440	161.659441
3163.509216	160.704895
3164.667821	158.978322
3165.826254	155.957343
3166.984515	156.116783
3168.141114	155.710490
3169.296052	155.984615
3170.452309	153.333566
3171.606906	153.116783
3172.761331	152.972727
3173.914097	153.930769
3175.066693	154.769930
3176.219118	154.395105
3177.371374	156.137762
3178.523460	157.737063
3179.672399	159.186713
3180.824145	161.563636
3181.974234	164.581818
3183.122665	165.652448
3184.270928	165.141958
3185.419021	164.116084
3186.566946	163.031469
3187.713216	161.827972
3188.859317	159.841958
3190.003763	156.294406
3191.148042	158.426573
3192.292153	158.044056
3193.437582	158.540559
3194.579872	161.223077
3195.721994	161.206993
3196.863950	159.894406
3198.005738	157.332168
3199.147359	155.366434
3200.285844	155.806993
3201.425647	154.345455
3202.566768	154.331469
3203.704754	153.504196
3204.841091	155.205594
3205.977262	155.035664
3207.114751	156.556643
3208.250591	159.047552
3209.387747	156.702797
3210.520291	153.819580
3211.657117	150.413986
3212.789331	148.743357
3213.922863	148.114685
3215.056229	150.692308
3216.186468	153.475524
3217.319505	151.919580
3218.449416	152.857343
3219.580644	154.997902
3220.708746	156.330769
3221.839645	157.781818
3222.968901	155.095105
3224.096512	151.671329
3225.221002	148.526573
3226.349767	144.786713
3227.475410	142.772028
3228.600890	142.091608
3229.724729	141.774825
3230.851362	140.056643
3231.973398	141.614685
3233.096750	142.555245
3234.219940	144.657343
3235.342968	147.780420
3236.464356	149.566434
3237.585583	149.509091
3238.705171	148.462937
3239.824598	149.502098
3240.942387	149.704196
3242.062969	148.505594
3243.180436	150.174825
3244.297744	149.533566
3245.414890	149.018182
3246.530401	148.127273
3247.647227	150.969930
3248.760942	154.592308
3249.877448	155.108392
3250.992318	153.417483
3252.104080	152.311888
3253.215683	152.212587
3254.328600	148.343357
3255.441359	147.493007
3256.551011	146.827972
3257.661978	143.271329
3258.772786	142.813287
3259.881962	140.597902
3260.989507	145.746853
3262.098367	151.606993
3263.207068	153.166434
3264.312667	153.941259
3265.419581	154.431469
3266.524865	152.645455
3267.631463	153.688112
3268.734961	154.910490
3269.839773	153.597902
3270.944428	147.660140
3272.045984	144.794406
3273.147385	141.266434
3274.250099	142.365734
3275.352656	142.184615
3276.452118	142.465035
3277.554362	139.140559
3278.653512	137.634965
3279.751036	137.734965
3280.848405	138.394406
3281.948557	136.378322
3283.045615	136.043357
3284.142518	133.274825
3285.239267	134.304895
3286.331456	136.192308
3287.427895	138.508392
3288.522711	141.167832
3289.617372	142.599301
3290.710412	141.051049
3291.803298	142.544056
3292.894563	141.996503
3293.987141	141.064336
3295.078098	139.608392
3296.167437	140.072727
3297.256621	139.732867
3298.347119	141.230070
3299.434532	142.934266
3300.521793	141.086713
3301.610366	140.148252
3302.698786	139.169231
3303.782659	139.244755
3304.870774	138.684615
3305.955808	136.165734
3307.039226	136.102797
3308.123955	135.505594
3309.207070	136.174126
3310.291496	136.621678
3311.372844	134.650350
3312.455504	134.667133
3313.536550	132.998601
3314.617445	130.239161
3315.696727	129.261538
3316.775858	128.254545
3317.856300	128.983916
3318.933669	128.520280
3320.012349	127.207692
3321.089417	126.759441
3322.166335	127.886014
3323.241642	127.615385
3324.316800	126.443357
3325.393270	126.898601
3326.466668	127.099301
3327.539918	124.641958
3328.614479	125.969930
3329.687430	126.937762
3330.758774	129.890210
3331.831428	130.239161
3332.901015	131.341259
3333.971913	133.509091
3335.041204	135.604895
3336.111806	135.274825
3337.180801	135.093007
3338.248190	134.286713
3339.313974	133.233566
3340.383984	132.345455
3341.450931	133.042657
3342.514816	133.085315
3343.581469	134.574126
3344.646517	132.256643
3345.709963	131.100000
3346.773261	128.181119
3347.836414	126.103497
3348.899420	125.970629
3349.962279	125.041958
3351.023537	123.083916
3352.081738	121.732867
3353.144160	123.432867
3354.203525	125.293007
3355.262745	126.961538
3356.323275	127.687413
3357.379295	123.106993
3358.438080	122.645455
3359.492357	120.361538
3360.549397	120.596503
3361.604840	121.539161
3362.661591	120.614685
3363.716745	118.669231
3364.770301	120.334965
3365.822260	121.580420
3366.876981	123.670629
3367.928653	122.504895
3368.980182	121.309790
3370.033020	119.012587
3371.082810	120.171329
3372.133908	115.967133
3373.181961	117.947552
3374.232774	118.587413
3375.280541	117.770629
3376.328166	119.452448
3377.375649	120.263636
3378.421538	121.557343
3379.468736	122.446154
3380.512892	120.734266
3381.559806	120.486713
3382.605128	116.286713
3383.647410	113.580420
3384.689550	111.184615
3385.732998	112.295105
3386.776306	111.980420
3387.818023	113.429371
3388.859599	117.097203
3389.901035	117.047552
3390.940881	120.109790
3391.979140	122.455245
3393.018706	123.190909
3394.058131	121.781119
3395.095970	118.300699
3396.132221	116.778322
3397.168332	115.337762
3398.205751	113.785315
3399.240137	113.682517
3400.275830	114.248252
3401.311384	114.346154
3402.343907	113.603497
3403.379183	113.778322
3404.411428	114.860839
3405.443535	114.787413
3406.474058	114.839161
3407.505889	113.162238
3408.537580	115.152448
3409.566245	115.356643
3410.594771	116.451748
3411.624605	116.432867
3412.654300	117.616783
3413.680970	118.160140
3414.708947	117.306294
3415.733899	118.362937
3416.761601	118.946853
3417.786280	116.011888
3418.812265	115.008392
3419.836670	114.111888
3420.860939	114.319580
3421.883629	110.858042
3422.906183	111.250350
3423.930043	111.728671
3424.950883	113.434266
3425.971588	114.677123
3426.993598	115.647028
3428.012590	116.084715
3429.031447	115.730919
3430.051609	114.326374
3431.068755	111.611813
