-118.448435	18.684890
-115.778835	7.375824
-113.112170	0.290460
-110.446257	-3.271029
-107.783276	-4.008467
-105.118866	-2.621678
-102.457386	0.189510
-99.794476	3.460839
-97.136674	6.544056
-94.477441	5.373427
-91.818958	10.960839
-89.163398	11.623077
-86.506410	11.918881
-83.854519	10.153147
-81.201199	9.367832
-78.550799	10.932867
-75.898969	12.762937
-73.252230	11.706993
-70.604061	10.582517
-67.956636	7.940559
-65.312124	7.028671
-62.666184	6.223776
-60.025325	7.025874
-57.383037	5.612587
-54.743657	7.830769
-52.102849	8.296503
-49.462781	9.981818
-46.827785	11.793706
-44.191360	13.244056
-41.557839	12.017483
-38.922889	13.072028
-36.293004	12.794406
-33.659527	13.412587
-31.031112	13.906294
-28.403430	11.428671
-25.774321	9.839161
-23.150268	-6.692308
-20.522626	-72.225874
-17.900037	-243.277622
-15.278180	-248.689510
-12.657053	273.163636
-10.036656	1039.481818
-7.419147	1669.832867
-4.800210	2104.255944
-2.184159	2342.388112
0.431164	2378.706294
3.045760	2215.009091
5.657473	1858.790210
8.270615	1313.652448
10.878723	624.525874
13.490413	-62.953846
16.097072	-369.451748
18.705159	-201.034266
21.312522	-17.583217
23.914860	12.123077
26.520776	14.794406
29.121670	18.451748
31.723992	18.567133
34.321297	18.452448
36.922177	20.602098
39.518043	19.386014
42.115336	17.027273
44.711910	17.174825
47.303475	13.641259
49.896468	13.425175
52.486600	15.453846
55.078160	16.294406
57.666860	13.658741
60.256987	12.918881
62.842116	12.847552
65.428671	13.184615
68.014513	13.605594
70.597501	12.926573
73.181915	11.302098
75.759201	10.525874
78.340053	9.421678
80.918056	11.927972
83.495349	11.907692
86.074068	15.004895
88.647806	14.464336
91.222970	15.198601
93.795291	19.413986
96.366904	22.118881
98.935677	23.244056
101.505877	24.404196
104.073239	23.260140
106.642026	18.653147
109.207977	13.092308
111.771093	3.113986
114.337765	16.301399
116.895216	66.128671
119.458352	134.970629
122.016529	210.045455
124.578259	283.199301
127.135034	353.988811
129.693234	434.837063
132.246482	524.104196
134.799031	623.904196
137.355131	729.860140
139.906284	830.086014
142.456738	925.842657
145.006496	1029.075524
147.553434	1119.032867
150.099676	1179.268531
152.647344	1200.704196
155.194317	1196.027972
157.736353	1184.879021
160.277696	1190.318182
162.818346	1208.233566
165.360422	1261.290210
167.899687	1352.285315
170.436142	1471.281119
172.971907	1618.769930
175.509097	1798.541259
178.045595	2022.144755
180.579288	2320.490909
183.110178	2714.021678
185.640379	3259.081818
188.172005	4005.444056
190.700830	4976.622378
193.226856	6149.767832
195.752197	7471.204895
198.278962	8765.722378
200.802930	9876.920979
203.326214	10645.969930
205.848813	10977.118881
208.368619	10822.591608
210.887742	10210.366434
213.406182	9219.279720
215.926046	8013.150350
218.438909	6746.948951
220.955303	5564.855245
223.471015	4564.587413
225.981838	3786.346154
228.494085	3186.297203
231.003549	2744.599301
233.512335	2409.925874
236.020443	2155.584615
238.529974	1960.618182
241.034625	1801.113986
243.538601	1665.349650
246.044000	1551.451748
248.544524	1464.113287
251.048571	1477.225874
253.545648	1619.293706
256.046247	1815.815385
258.544075	1983.476224
261.041230	2076.509091
263.537712	2091.874126
266.029331	2018.566434
268.524470	1867.024476
271.016843	1637.155245
273.508545	1354.523077
275.997483	1053.400000
278.487846	802.525874
280.975447	679.452448
283.460288	669.393706
285.948643	673.660140
288.430059	667.128671
290.914989	652.815385
293.395074	640.493706
295.878671	625.395804
298.357425	616.106993
300.837603	605.428671
303.315028	600.546853
305.791790	598.587413
308.267889	601.211888
310.741239	612.002098
313.213927	625.176923
315.685954	629.409091
318.157320	635.435664
320.625942	639.865734
323.093904	637.967832
325.563289	632.003497
328.027850	626.666434
330.495916	615.755245
332.959162	600.430070
335.421750	566.562238
337.883682	527.632168
340.344957	561.746154
342.803498	788.969231
345.263461	1182.153846
347.720691	1582.141958
350.177267	1894.098601
352.633189	2089.930070
355.086382	2155.198601
357.540996	2098.249650
359.990809	1908.632168
362.444119	1604.681818
364.892629	1218.005594
367.340489	834.465734
369.789770	578.890210
372.234258	528.203497
374.680168	571.702098
377.125429	590.492308
379.567970	616.206294
382.009864	704.165035
384.451111	828.396503
386.889642	938.610490
389.329595	1038.401399
391.766834	1135.706993
394.201361	1212.027273
396.639376	1248.884615
399.072614	1224.809091
401.507274	1149.034266
403.937160	1036.658741
406.370532	915.804895
408.799134	829.641958
411.227095	796.185315
413.656476	772.221678
416.081092	741.114685
418.507130	741.283916
420.932527	771.134965
423.357284	812.171329
425.777283	851.962238
428.198703	888.772727
430.617426	936.956643
433.037570	1000.448252
435.455019	1073.354545
437.873888	1164.292308
440.290064	1252.839860
442.701493	1306.548951
445.116398	1332.423077
447.528613	1650.287413
449.940194	3209.579021
452.351141	7039.628671
454.759402	12864.041259
457.167030	19110.686713
459.574027	24389.677622
461.980391	27937.222378
464.384073	29402.062937
466.787125	28674.084615
469.189547	25794.645455
471.591340	21066.709091
473.990454	15150.024476
476.390988	9267.246154
478.790893	4950.111189
481.186075	2969.523776
483.584724	2555.888112
485.978653	2490.797203
488.371956	2353.431469
490.764633	2160.067832
493.156685	1974.981119
495.550156	1842.562937
497.938914	1795.377622
500.325006	1810.339161
502.712518	1831.405594
505.099406	1831.266434
507.483631	1809.884615
509.869275	1764.933566
512.252256	1680.936364
514.632577	1561.465734
517.014317	1406.975524
519.393398	1230.901399
521.773898	1072.328671
524.151740	970.818881
526.526927	934.256643
528.901496	917.220979
531.277484	900.481119
533.650818	876.388112
536.025570	858.000699
538.395637	842.271329
540.765088	826.656643
543.135957	813.731469
545.502146	796.946853
547.869753	778.789510
550.234714	761.935664
552.599062	746.388112
554.962798	724.780420
557.327951	706.913287
559.688431	693.074825
562.050330	678.918881
564.409589	672.378322
566.766209	660.328671
569.126274	653.511189
571.479649	647.116783
573.836468	643.374126
576.190651	643.662238
578.544227	642.190909
580.897194	640.491608
583.247530	638.741259
585.599282	636.691608
587.944358	636.330070
590.294898	633.139161
592.638765	633.522378
594.988092	625.113287
597.332772	619.259441
599.674826	611.684615
602.018298	606.154545
604.359147	600.697902
606.699394	592.888112
609.037020	585.915385
611.378081	582.997902
613.714504	576.789510
616.052345	575.939860
618.387567	571.289510
620.720174	570.176224
623.054197	563.746154
625.385607	558.563636
627.716418	555.795105
630.046631	555.652448
632.376246	554.013287
634.701239	554.647552
637.031673	552.462238
639.357485	551.114685
641.680691	550.432168
644.005312	550.628671
646.327329	545.946154
648.648751	539.504196
650.967570	532.729371
653.287805	529.264336
655.607447	528.530070
657.924488	526.400000
660.240937	524.376923
662.554788	526.906294
664.870055	523.625175
667.182725	521.067133
669.496810	523.956643
671.806295	523.917483
674.117196	522.632168
676.425504	522.659441
678.733224	529.965035
681.042359	546.890210
683.346901	575.825175
685.650856	620.043357
687.954226	672.023077
690.259010	717.829371
692.559208	745.955944
694.860820	758.951748
697.161848	755.910490
699.458293	734.963636
701.756154	695.346154
704.053431	649.211189
706.350125	602.951049
708.642243	562.248951
710.937772	536.892308
713.228728	526.670629
715.521098	525.465035
717.810892	525.725874
720.100107	523.181119
722.388741	526.385315
724.674804	525.992308
726.962280	527.264336
729.247186	523.866434
731.531513	521.944056
733.813272	520.839161
736.096445	517.079021
738.379041	517.841259
740.657082	519.158741
742.936536	523.959441
745.215415	525.500000
747.493718	526.315385
749.767472	529.787413
752.042640	528.035664
754.317234	528.002098
756.589268	525.346154
758.862716	523.110490
761.133606	525.143357
763.401940	528.415385
765.671687	532.562238
767.938880	538.627273
770.205502	544.258042
772.471555	548.270629
774.735055	553.218182
776.999969	558.448951
779.264313	563.704196
781.524128	574.285315
783.785356	589.206294
786.046015	606.217483
788.304129	625.393007
790.559698	641.699301
792.818658	663.064336
795.071119	722.108392
797.328947	843.814685
799.582255	1012.228671
801.833024	1182.894406
804.085205	1323.253846
806.334848	1412.072727
808.585902	1438.191608
810.832445	1400.617483
813.080400	1305.786014
815.325821	1158.238462
817.572653	979.038462
819.818924	807.647552
822.060691	686.413986
824.305840	630.409790
826.544517	616.246154
828.786577	614.474825
831.024138	615.811888
833.263110	614.601399
835.499556	610.031469
837.737413	606.950350
839.972745	607.349650
842.205554	601.606993
844.439774	597.674126
846.671472	595.434965
848.902615	589.874126
851.133203	585.649650
853.363236	581.020280
855.592716	577.493706
857.817714	573.532867
860.046087	571.227273
862.269981	569.627273
864.495285	567.067133
866.716114	567.318182
868.940315	562.416084
871.160043	560.265734
873.381182	561.916084
875.601770	560.000699
877.819848	562.945455
880.039337	563.833566
882.254359	569.397902
884.468833	572.702797
886.682760	574.413287
888.896139	577.758741
891.108971	575.732867
893.321257	576.532867
895.531040	572.516783
897.740278	569.937762
899.948971	568.460140
902.155165	565.650350
904.362768	564.616084
906.567874	566.141259
908.772436	569.786713
910.974502	569.646154
913.177978	567.476224
915.378960	571.774126
917.579401	570.839860
919.781249	574.581119
921.976707	572.227972
924.175524	571.809091
926.369902	566.101399
928.567638	558.371329
930.760938	549.274825
932.955647	541.674126
935.147870	536.420979
937.339555	528.376923
939.530702	522.590210
941.719366	525.202797
943.907493	526.339161
946.093140	531.871329
948.282139	532.390909
950.466715	539.394406
952.650756	537.160140
954.838147	536.631469
957.017234	538.174825
959.199672	536.562238
961.381576	537.204196
963.561006	533.669231
965.737963	526.208392
967.916327	527.347552
970.096099	520.966434
972.269522	519.637063
974.446291	517.224476
976.618653	519.693706
978.792423	517.283217
980.961789	517.707692
983.134500	519.388811
985.304744	521.639860
987.474460	525.625874
989.643647	526.207692
991.808437	525.616084
993.976568	531.561538
996.140305	527.490909
998.305448	530.674126
1000.468133	531.902098
1002.630291	532.224476
1004.789993	531.416084
1006.949171	529.946853
1009.109755	528.448951
1011.267884	526.019580
1013.425489	524.923776
1015.582571	524.053147
1017.739130	522.524476
1019.891309	524.751049
1022.044894	523.782517
1024.197958	529.672028
1026.348574	533.445455
1028.500595	536.948252
1030.648243	540.246853
1032.799223	545.374126
1034.945832	550.184615
1037.091923	552.511888
1039.237494	555.262238
1041.384471	556.946154
1043.525159	555.972028
1045.669177	556.039161
1047.810754	554.548252
1049.951815	558.058741
1052.094280	559.209790
1054.230466	568.041259
1056.369978	576.591608
1058.505134	587.990210
1060.643615	597.576224
1062.777742	606.641259
1064.911356	610.516783
1067.046375	621.883916
1069.177044	651.057343
1071.309118	715.426573
1073.438763	803.671329
1075.567896	893.303497
1077.696517	962.995105
1079.824627	1009.011888
1081.950311	1014.287413
1084.075485	987.937063
1086.202063	924.893007
1088.324304	840.450350
1090.447948	738.979720
1092.567259	647.625175
1094.691798	585.019580
1096.810092	562.297203
1098.929791	557.807692
1101.047071	555.629371
1103.163845	554.446853
1105.280112	549.582517
1107.393964	542.222378
1109.509219	540.201399
1111.620152	534.685315
1113.734396	533.831469
1115.844320	530.311888
1117.955648	528.612587
1120.066471	525.003497
1122.172979	526.196503
1124.282795	523.907692
1126.388297	523.120280
1128.495202	525.579021
1130.595892	525.823776
1132.701794	527.574126
1134.803387	531.704895
1136.906383	534.811189
1139.008878	541.979021
1141.105166	546.737762
1143.206662	554.118182
1145.303855	571.328671
1147.400549	609.508392
1149.496745	678.301399
1151.592444	776.920979
1153.687645	883.439860
1155.780449	968.777622
1157.874655	1023.455944
1159.962670	1040.576224
1162.055883	1017.266434
1164.142908	961.635664
1166.233232	873.232867
1168.319269	770.331469
1170.408603	670.083217
1172.491756	590.616783
1174.576311	549.379021
1176.662268	532.796503
1178.743943	531.634965
1180.827020	524.995105
1182.907711	523.025874
1184.987910	518.682517
1187.067618	513.556643
1189.146835	510.587413
1191.223670	508.652448
1193.298124	510.830070
1195.375870	509.572727
1197.449345	508.882517
1199.524221	508.463636
1201.594830	507.878322
1203.666841	507.823776
1205.736475	507.632168
1207.807510	511.784615
1209.878057	511.893706
1211.944343	512.071329
1214.012030	515.297902
1216.077345	524.729371
1218.144060	535.813986
1220.206519	544.390909
1222.272263	556.877622
1224.333754	564.837063
1226.396644	574.772028
1228.457167	579.119580
1230.517206	582.635664
1232.576763	579.920280
1234.633954	571.356643
1236.690664	559.640559
1238.745011	547.269930
1240.802638	534.669930
1242.857903	522.334266
1244.908927	513.024476
1246.961351	507.758042
1249.013295	501.200699
1251.062881	501.191608
1253.111988	500.555944
1255.160617	502.295804
1257.208767	501.873427
1259.256439	500.969930
1261.299880	498.180420
1263.346596	494.308392
1265.390959	492.888112
1267.434846	495.653846
1269.476382	494.602797
1271.515567	491.668531
1273.558026	490.083217
1275.596262	490.572727
1277.635897	493.386713
1279.675057	492.250350
1281.709998	486.713287
1283.746339	483.862238
1285.780334	481.034266
1287.815728	481.539161
1289.846908	483.137063
1291.879487	484.399301
1293.911593	480.967832
1295.941359	479.552448
1297.972523	480.029371
1299.999479	484.262238
1302.027833	485.980420
1304.051983	481.360140
1306.079397	481.366434
1308.102609	482.175524
1310.127219	479.744056
1312.149495	482.815385
1314.173168	479.090909
1316.194508	477.561538
1318.215380	473.051049
1320.235786	470.581818
1322.251997	468.647552
1324.269606	470.054545
1326.284888	465.760839
1328.303427	466.298601
1330.317778	472.661538
1332.329803	475.983217
1334.345085	477.573427
1336.356182	479.354545
1338.368676	478.629371
1340.376987	479.569930
1342.388554	477.793007
1344.394081	475.636364
1346.402864	473.255245
1348.407469	475.089510
1350.415328	473.730070
1352.422725	475.808392
1354.424091	479.400000
1356.426854	481.866434
1358.429156	482.472727
1360.430999	479.920280
1362.432382	481.293706
1364.431452	479.027273
1366.430063	479.377622
1368.428216	477.000000
1370.425911	474.315385
1372.419442	475.830769
1374.414370	468.402098
1376.408841	463.333566
1378.402855	459.637762
1380.394561	459.152448
1382.385813	456.747552
1384.374759	454.558042
1386.365100	454.700699
1388.354986	456.519580
1390.342569	456.859441
1392.329697	458.372727
1394.314525	459.564336
1396.300746	462.302098
1398.284668	460.389510
1400.268137	461.725874
1402.251154	463.516783
1404.231872	465.827273
1406.213986	463.846154
1408.193802	462.850350
1410.173168	461.277622
1412.148394	463.011888
1414.126860	460.655245
1416.103031	462.427273
1418.078754	463.198601
1420.054027	461.596503
1422.027009	461.404895
1423.999543	466.082517
1425.971630	467.326573
1427.943268	470.627273
1429.910778	470.950350
1431.883363	470.037063
1433.848141	468.711888
1435.817991	468.657343
1437.783718	467.197902
1439.750837	467.306294
1441.715673	462.441259
1443.676390	460.636364
1445.642174	461.525874
1447.602003	465.623077
1449.563225	465.039860
1451.525840	468.878322
1453.484340	469.639860
1455.442398	467.247552
1457.400013	465.927273
1459.357187	462.176923
1461.312085	459.927273
1463.268375	458.073427
1465.222391	454.453846
1467.175967	458.795105
1469.127270	458.900000
1471.079965	462.046853
1473.030389	465.247552
1474.980373	468.901399
1476.929919	469.904895
1478.877196	471.260140
1480.822206	472.333566
1482.768607	465.933566
1484.714572	463.910490
1486.660098	460.124476
1488.603360	458.918182
1490.546185	459.320979
1492.486747	453.745455
1494.428700	454.505594
1496.368392	452.053846
1498.307648	454.349650
1500.246469	454.975524
1502.183031	460.665035
1504.120984	461.183916
1506.056679	459.075524
1507.991939	461.540559
1509.924944	461.874126
1511.857516	462.874825
1513.789656	464.406294
1515.721364	460.920280
1517.650818	464.279021
1519.581663	462.051748
1521.512077	466.302797
1523.438417	465.774126
1525.366149	466.931469
1527.291630	462.362937
1529.216682	458.430769
1531.141305	454.009091
1533.065499	452.632168
1534.987446	449.706993
1536.910782	448.941958
1538.831873	449.702797
1540.750719	452.677622
1542.670955	455.536364
1544.588947	458.523776
1546.506513	459.872727
1548.421837	463.092308
1550.338551	461.139161
1552.251210	464.584615
1554.167073	467.337063
1556.080696	470.406294
1557.992082	467.929371
1559.904856	465.916783
1561.813581	463.752448
1563.723696	462.889510
1565.633387	464.916783
1567.542654	463.623077
1569.449688	463.473427
1571.354489	467.236364
1573.260679	469.597203
1575.164637	474.935664
1577.068175	478.840559
1578.971291	482.964336
1580.872179	485.391608
1582.774454	485.511189
1584.674502	482.445455
1586.575937	482.007692
1588.473339	480.089510
1590.370322	476.489510
1592.266887	476.182517
1594.164840	476.189510
1596.056958	471.293007
1597.952269	471.287413
1599.847163	472.183217
1601.739835	477.699301
1603.632091	480.388811
1605.522126	481.234965
1607.411747	478.220280
1609.300951	477.393007
1611.189741	477.234965
1613.076314	475.306294
1614.964273	474.016783
1616.848216	469.850350
1618.733547	465.063636
1620.618463	463.692308
1622.501166	462.074825
1624.385256	463.422378
1626.265335	461.211888
1628.146800	460.781818
1630.026055	458.395804
1631.906696	460.209790
1633.781533	458.817483
1635.661352	459.686713
1637.537165	459.169231
1639.412568	460.409091
1641.289358	460.254545
1643.160350	459.960839
1645.034524	461.855944
1646.904700	460.420280
1648.778056	455.979021
1650.649209	454.891608
1652.518160	452.293007
1654.388497	446.622378
1656.254840	441.455245
1658.122569	440.695804
1659.988100	438.967832
1661.855015	439.947552
1663.717942	442.948252
1665.582254	445.528671
1667.444370	446.995804
1669.306082	447.683916
1671.169178	445.318182
1673.030080	446.651748
1674.888788	444.900699
1676.747093	442.800699
1678.606783	441.006294
1680.460706	436.438462
1682.317801	435.171329
1684.174494	433.670629
1686.027211	434.166434
1687.883098	430.012587
1689.735012	428.774126
1691.586525	426.097902
1693.437637	423.992308
1695.288349	424.397902
1697.138660	423.912587
1698.986787	424.727972
1700.836297	421.693007
1702.680059	418.659441
1704.528770	415.927273
1706.371736	410.958741
1708.217867	410.707692
1710.060037	407.841259
1711.905371	408.121678
1713.744965	407.887413
1715.585943	410.627273
1717.428304	415.266434
1719.266709	417.580420
1721.106497	420.707692
1722.944110	420.270629
1724.781327	418.452448
1726.616371	414.486713
1728.452798	412.910490
1730.287053	414.625874
1732.120913	412.613287
1733.954380	410.939860
1735.783900	410.999301
1737.616579	411.972028
1739.445314	415.781119
1741.277207	413.347552
1743.105157	411.469231
1744.932715	408.690909
1746.759881	406.658042
1748.586656	407.955245
1750.413040	406.521678
1752.235487	404.469930
1754.061088	401.910490
1755.882755	401.635664
1757.705804	402.994406
1759.526692	403.095105
1761.347190	400.334266
1763.169070	397.192308
1764.985250	399.939860
1766.804582	403.174126
1768.619987	405.089510
1770.438542	406.231469
1772.253172	404.993007
1774.067416	403.044056
1775.881272	407.865035
1777.694742	412.937063
1779.506059	415.562238
1781.318757	413.537762
1783.131068	411.974825
1784.939462	414.455944
1786.749237	415.955944
1788.555096	413.924476
1790.364101	411.340559
1792.169193	405.970629
1793.975666	404.030070
1795.781755	402.032168
1797.583934	404.449650
1799.389256	403.662238
1801.190670	403.205594
1802.993464	399.960839
1804.792352	401.706993
1806.592621	406.404196
1808.392508	404.365035
1810.190254	403.023776
1811.987618	405.041958
1813.784603	402.225175
1815.581207	401.939161
1817.375672	398.416084
1819.171516	398.848951
1820.961706	397.323776
1822.756792	394.919580
1824.546225	395.228671
1826.338795	398.263636
1828.129230	400.137762
1829.917531	397.583217
1831.708967	395.822378
1833.494757	395.566434
1835.281927	392.295105
1837.066965	392.362238
1838.855137	390.681818
1840.639423	394.557343
1842.421580	394.426573
1844.205115	393.765734
1845.986522	397.704196
1847.769308	398.662238
1849.548214	397.998601
1851.328498	395.519580
1853.106656	394.231469
1854.886193	394.155245
1856.663605	395.434965
1858.438893	396.569930
1860.215560	395.277622
1861.990103	396.701399
1863.766025	394.697902
1865.536326	393.160140
1867.309755	394.358741
1869.081064	393.855944
1870.852003	391.204196
1872.624318	389.830769
1874.391020	391.684615
1876.160848	393.894406
1877.926812	392.555245
1879.695900	395.172028
1881.461126	396.803497
1883.225983	396.522378
1884.992218	394.109790
1886.754594	394.204196
1888.516603	395.043357
1890.278244	394.388112
1892.039519	390.319580
1893.800426	389.509790
1895.560967	385.320280
1897.319398	386.225874
1899.077464	383.907692
1900.833421	387.208392
1902.590756	385.714685
1904.347724	382.119580
1906.102587	382.168531
1907.855344	381.866434
1909.607738	382.741259
1911.361507	379.567832
1913.113173	376.643357
1914.862737	375.173427
1916.613677	376.024476
1918.364253	379.587413
1920.110990	381.909790
1921.859104	385.998601
1923.605118	389.486713
1925.352508	389.309091
1927.097799	389.215385
1928.840993	388.147552
1930.585563	390.419580
1932.328036	389.081119
1934.070149	385.275524
1935.811902	380.287413
1937.553296	378.634965
1939.292596	378.709790
1941.031536	380.595804
1942.770119	382.409790
1944.506609	384.272727
1946.242742	380.869930
1947.980249	378.373427
1949.713934	381.539860
1951.448994	382.998601
1953.181966	381.323776
1954.914581	376.692308
1956.646839	375.143357
1958.378741	373.426573
1960.108557	373.507692
1961.836289	373.757343
1963.565394	376.479720
1965.294145	378.207692
1967.020812	377.213986
1968.747125	376.955944
1970.474811	377.477622
1972.196961	377.517483
1973.922212	380.253147
1975.643657	382.968531
1977.368201	386.801399
1979.090666	386.650350
1980.809327	386.929371
1982.531087	388.706294
1984.249045	390.600699
1985.968376	388.529371
1987.683908	386.842657
1989.404261	383.585315
1991.120814	381.875524
1992.833571	382.252448
1994.549425	383.587413
1996.263205	382.078322
1997.976636	381.562937
1999.687996	380.493007
2001.400729	380.603497
2003.109670	377.384615
2004.821705	376.805594
2006.528230	374.400000
2008.237848	374.869231
2009.945398	371.876224
2011.652601	374.560839
2013.357738	375.884615
2015.062528	374.955944
2016.768690	375.148951
2018.471070	379.266434
2020.174822	381.610490
2021.876510	381.751049
2023.577854	378.337762
2025.278852	378.313287
2026.977790	375.974126
2028.678098	375.946853
2030.374632	374.030070
2032.072537	375.923077
2033.768383	374.909790
2035.467315	373.220280
2037.160761	376.647552
2038.855579	378.222378
2040.550053	375.837762
2042.240759	374.006993
2043.934549	374.784615
2045.624572	377.186014
2047.315966	378.377622
2049.005307	382.800699
2050.696018	380.621678
2052.382966	379.002098
2054.069575	375.373427
2055.757554	371.481818
2057.441773	368.153147
2059.127362	365.481119
2060.812612	361.520979
2062.495814	360.806993
2064.180385	363.338462
2065.859494	366.871329
2067.543388	369.615385
2069.221822	370.451748
2070.903332	365.576224
2072.581092	362.869231
2074.258514	359.484615
2075.937306	357.440559
2077.614056	358.709091
2079.288764	359.723776
2080.964841	356.533566
2082.638878	355.825874
2084.312579	355.083217
2085.985945	356.744056
2087.657273	355.324476
2089.328266	354.921678
2090.998925	350.683916
2092.669249	349.294406
2094.339240	349.553147
2096.007195	349.870629
2097.674817	351.417483
2099.340404	352.644755
2101.007361	351.442657
2102.672283	353.524476
2104.336874	356.347552
2105.999433	359.574126
2107.663360	361.220280
2109.325257	363.258741
2110.986822	363.355245
2112.648056	366.330769
2114.307262	367.549650
2115.966137	367.620280
2117.624683	367.358042
2119.282899	368.439161
2120.937391	365.600699
2122.594948	366.086713
2124.252176	362.946853
2125.905682	363.579021
2127.560556	359.133566
2129.211712	355.633566
2130.865929	355.034965
2132.516430	355.095105
2134.168297	355.113986
2135.814756	354.976224
2137.465970	354.653846
2139.113470	355.613986
2140.762337	353.713287
2142.409186	354.807692
2144.055708	354.447552
2145.701905	357.553846
2147.344394	353.434965
2148.989941	354.056643
2150.631781	351.621678
2152.276678	352.981818
2153.917870	354.412587
2155.558738	351.659441
2157.199282	353.632867
2158.837814	352.336364
2160.477712	351.891608
2162.113910	353.896503
2163.751475	355.548252
2165.388716	353.962937
2167.023948	349.795105
2168.658859	351.609790
2170.293448	347.345455
2171.927715	345.176923
2173.558289	343.219580
2175.191915	338.387413
2176.821849	338.065035
2178.453148	334.357343
2180.082442	331.869231
2181.711417	333.645455
2183.340073	333.623776
2184.968409	332.727273
2186.594742	331.313287
2188.220757	332.372727
2189.844771	330.304895
2191.470149	328.649650
2193.093528	329.462937
2194.718270	329.344056
2196.339332	330.909790
2197.960077	330.328671
2199.582187	331.647552
2201.202299	334.597902
2202.820414	332.639161
2204.438214	334.123776
2206.055699	330.427972
2207.672868	331.241259
2209.289722	335.158741
2210.906261	336.755944
2212.520806	339.106993
2214.133359	342.086713
2215.747276	345.490909
2217.359202	346.908392
2218.972491	349.890909
2220.583790	348.530070
2222.193099	342.997203
2223.803772	338.965035
2225.412456	331.839860
2227.020828	332.405594
2228.627212	332.467133
2230.234960	331.700000
2231.840721	331.442657
2233.446171	332.867832
2235.049636	334.308392
2236.654464	337.540559
2238.257309	337.590909
2239.858170	340.711888
2241.460393	341.963636
2243.060635	340.530070
2244.662239	338.610490
2246.260191	339.268531
2247.859505	337.306993
2249.456839	333.883916
2251.053864	328.408392
2252.652252	324.004895
2254.246991	319.690210
2255.839753	318.807692
2257.433878	318.030769
2259.029364	322.555944
2260.621206	326.418182
2262.212741	325.581119
2263.805637	326.757343
2265.393224	325.810490
2266.985508	325.469930
2268.572484	325.009790
2270.162489	324.367133
2271.747189	323.266434
2273.336583	326.188112
2274.920674	328.050350
2276.506127	328.190210
2278.089610	328.532867
2279.676120	327.482517
2281.258996	322.420280
2282.841568	320.002797
2284.423837	316.909091
2286.002477	318.218881
2287.584140	319.776923
2289.162175	320.448951
2290.743233	322.089510
2292.320665	323.412587
2293.896132	322.480420
2295.474622	321.749650
2297.049488	319.984615
2298.624053	316.305594
2300.198318	316.597203
2301.772282	313.665734
2303.345946	314.739860
2304.919309	316.732168
2306.489054	320.815385
2308.058500	320.314685
2309.630965	320.481119
2311.198154	318.348252
2312.768362	320.358042
2314.334955	318.797902
2315.902908	316.275524
2317.468905	314.432867
2319.034605	314.074825
2320.600008	311.679021
2322.163456	313.668531
2323.728264	316.098601
2325.289464	320.397203
2326.853678	321.751049
2328.412631	322.497902
2329.974597	324.080420
2331.534613	324.716783
2333.094333	320.476224
2334.652104	316.055245
2336.209580	310.809091
2337.766762	304.675524
2339.321997	304.262937
2340.876937	303.030070
2342.431584	301.420280
2343.985937	306.454545
2345.539996	310.251049
2347.093761	314.469231
2348.645583	316.530070
2350.195461	320.439860
2351.748347	319.918881
2353.295991	321.199301
2354.846642	317.718881
2356.393702	314.629371
2357.942121	316.188112
2359.490247	313.602797
2361.034785	307.873427
2362.580681	309.104895
2364.124639	307.711888
2365.669954	305.841958
2367.211684	305.234965
2368.754771	307.066434
2370.295923	306.509790
2371.836785	309.060140
2373.377358	307.328671
2374.917641	310.886014
2376.457636	309.053147
2377.994053	306.190909
2379.533471	306.604895
2381.069312	309.644056
2382.606509	308.618881
2384.140131	307.010490
2385.676754	307.109091
2387.211445	306.629371
2388.744207	304.827972
2390.276682	303.983916
2391.807230	302.183916
2393.340775	300.280420
2394.869109	296.864336
2396.398799	299.678322
2397.928204	304.653846
2399.457323	306.587413
2400.986158	305.024476
2402.509787	306.276923
2404.038053	304.170629
2405.561115	301.449650
2407.088811	299.658741
2408.609668	297.491608
2410.135158	295.631469
2411.657087	295.608392
2413.180372	293.300000
2414.701736	293.584615
2416.221180	294.150350
2417.741979	295.375524
2419.260859	297.660140
2420.779457	299.460140
2422.296138	296.868531
2423.814173	297.888112
2425.331927	300.913287
2426.846130	297.401399
2428.360052	294.102098
2429.873694	294.871329
2431.388691	290.948951
2432.900139	291.837063
2434.412942	291.195804
2435.923832	295.029371
2437.434442	296.105594
2438.943141	299.797902
2440.454827	300.936364
2441.962968	303.660140
2443.470832	300.600699
2444.978418	295.617483
2446.482463	293.097203
2447.989494	290.636364
2449.494616	288.114685
2450.999461	284.204895
2452.502399	280.575524
2454.005060	281.159441
2455.507445	275.983217
2457.007925	278.778322
2458.509758	280.493007
2460.009687	282.781119
2461.509340	284.416084
2463.008717	285.851049
2464.506192	286.818182
2466.001765	287.650350
2467.500319	288.588112
2468.995343	285.262937
2470.491721	284.175524
2471.984571	281.016783
2473.478775	276.367832
2474.972705	276.876923
2476.463112	276.709790
2477.956495	277.312587
2479.447981	277.622378
2480.937570	278.130070
2482.426887	279.601399
2483.914309	281.704196
2485.404706	281.545455
2486.891584	281.133566
2488.379814	284.593007
2489.864528	282.818881
2491.348971	281.309091
2492.834766	280.331469
2494.318668	279.188112
2495.803922	280.681818
2497.284042	281.415385
2498.767134	282.818182
2500.248336	284.025874
2501.729269	282.382517
2503.208313	279.274126
2504.687088	277.811189
2506.165595	280.830070
2507.643834	277.390210
2509.121804	276.706294
2510.596270	277.288112
2512.073704	276.411888
2513.547635	277.632168
2515.022916	275.309091
2516.497931	274.037762
2517.969444	274.544755
2519.442307	273.420979
2520.913288	271.565035
2522.385619	274.511888
2523.852837	278.134266
2525.323020	277.355944
2526.791323	280.686014
2528.259361	279.916084
2529.727134	279.845455
2531.194642	278.692308
2532.661885	273.571329
2534.125636	273.675524
2535.590737	274.045455
2537.053961	274.639161
2538.518535	274.830070
2539.979619	274.589510
2541.442053	274.174126
2542.904224	271.786014
2544.362909	271.613986
2545.826166	272.350350
2547.284326	273.627273
2548.743835	273.220979
2550.198251	270.846154
2551.657236	269.339161
2553.114350	270.330769
2554.569593	269.956643
2556.024575	270.326573
2557.477687	269.548252
2558.932148	269.096503
2560.384740	268.360140
2561.837072	268.403497
2563.287536	268.005594
2564.740956	268.454545
2566.189294	270.841958
2567.640588	270.525874
2569.090015	270.702098
2570.535970	272.660140
2571.984881	270.788112
2573.430320	271.864336
2574.877108	274.013986
2576.322032	273.538462
2577.766699	274.845455
2579.212713	272.650350
2580.655260	269.513986
2582.099155	272.896503
2583.539585	274.098601
2584.981362	274.362238
2586.421280	275.663636
2587.862545	274.448252
2589.300349	273.820979
2590.741102	270.972727
2592.176792	271.561538
2593.615432	267.620979
2595.052215	268.525175
2596.487141	267.110490
2597.925016	268.283916
2599.357832	269.455245
2600.791996	269.463636
2602.224306	269.687413
2603.657962	270.253147
2605.089765	270.270629
2606.521315	269.126573
2607.952611	267.432168
2609.382055	267.138462
2610.811248	265.501399
2612.238589	265.593007
2613.667277	265.586014
2615.095712	269.695105
2616.520700	270.780420
2617.947035	270.472727
2619.371521	267.399301
2620.797353	265.979720
2622.219741	265.002098
2623.643475	262.511189
2625.065362	262.527972
2626.487000	258.432867
2627.906792	257.046154
2629.327930	255.869231
2630.748818	257.919580
2632.166268	260.430769
2633.586657	258.889510
2635.003609	257.425175
2636.420313	255.088811
2637.836768	252.806294
2639.252975	249.095804
2640.668933	247.395804
2642.083051	246.733566
2643.496922	247.590909
2644.908953	251.192308
2646.322329	255.718881
2647.732275	259.588112
2649.145156	261.536364
2650.554610	261.429371
2651.963817	262.997203
2653.371187	258.932867
2654.781493	256.245455
2656.189962	253.662238
2657.596596	252.402098
2659.002985	249.444755
2660.407540	249.785315
2661.813439	250.459441
2663.217505	252.313986
2664.621326	253.913287
2666.024904	256.219580
2667.426649	256.644755
2668.829738	257.430769
2670.229409	256.109091
2671.630424	258.793007
2673.028023	261.944755
2674.428552	262.298601
2675.825666	260.313287
2677.224123	261.165035
2678.620752	259.193706
2680.017139	255.256643
2681.413285	254.655245
2682.807604	253.102098
2684.203266	252.125874
2685.595518	252.867133
2686.989114	251.546853
2688.380885	252.120280
2689.773998	252.836364
2691.165288	249.995105
2692.554755	247.130769
2693.943982	246.809790
2695.332970	245.244755
2696.723300	245.699301
2698.108645	248.979021
2699.496914	247.821678
2700.883363	250.796503
2702.269573	254.565734
2703.655545	253.538462
2705.038117	254.741259
2706.422032	253.585315
2707.805709	251.269930
2709.189148	247.388112
2710.569191	243.952448
2711.950576	245.050350
2713.330145	243.773427
2714.711056	242.647552
2716.090151	240.897902
2717.467433	241.313986
2718.846056	242.270629
2720.222866	241.686014
2721.599440	246.496503
2722.975778	248.342657
2724.350304	249.218881
2725.726171	247.857343
2727.098651	245.535664
2728.474047	245.444056
2729.844483	245.546853
2731.216260	245.200000
2732.587802	240.864336
2733.957536	239.113287
2735.328611	236.183217
2736.697877	234.831469
2738.066911	239.755944
2739.434137	240.471329
2740.801131	242.173427
2742.167892	242.044056
2743.534420	241.669930
2744.899143	240.547552
2746.263635	242.532168
2747.627894	238.932867
2748.991921	235.779021
2750.355717	235.965035
2751.716139	234.116084
2753.079472	235.893706
2754.437862	237.486014
2755.799162	237.354545
2757.157091	238.954545
2758.517930	239.748951
2759.876968	239.491608
2761.232638	235.326573
2762.591216	232.489510
2763.946428	228.725175
2765.301410	228.102797
2766.654595	229.037762
2768.010687	229.741259
2769.363415	230.087413
2770.715914	231.086713
2772.068185	232.445455
2773.421795	235.494406
2774.772043	235.970629
2776.120498	235.726573
2777.471857	233.516783
2778.819857	230.193007
2780.169196	226.812587
2781.516742	226.681818
2782.864061	224.737762
2784.211154	223.496503
2785.556456	222.765035
2786.901532	224.967832
2788.246382	223.190909
2789.591005	220.765734
2790.932277	221.950350
2792.274887	225.400000
2793.617271	226.400699
2794.959431	226.098601
2796.298241	226.017483
2797.639950	230.352448
2798.978312	229.470629
2800.318011	230.269231
2801.655924	229.415385
2802.992053	229.995105
2804.327958	226.789510
2805.665201	225.523776
2807.000660	225.529371
2808.335896	222.060839
2809.669349	221.011189
2811.004140	219.077622
2812.335589	215.475524
2813.669934	216.080420
2814.999381	211.830769
2816.330165	214.321678
2817.660727	215.318881
2818.989510	218.566434
2820.319629	217.832168
2821.647970	222.330070
2822.976090	221.024476
2824.302432	221.564336
2825.630111	223.704895
2826.954457	221.383217
2828.280138	215.192308
2829.604044	214.789510
2830.927731	211.550350
2832.252753	213.234266
2833.574445	211.722378
2834.895919	212.502098
2836.217174	211.613287
2837.538210	215.277622
2838.857474	216.086713
2840.178073	218.417483
2841.496900	218.630769
2842.815509	218.608392
2844.132347	216.827972
2845.448968	218.178322
2846.765372	216.565035
2848.080007	217.141958
2849.395976	217.781119
2850.708625	218.190909
2852.022610	216.158042
2853.336377	213.843357
2854.649929	210.962937
2855.961713	207.724476
2857.271731	207.020280
2858.583084	208.096503
2859.891122	209.359441
2861.200495	211.013287
2862.509652	212.129371
2863.818594	213.292308
2865.125773	212.336364
2866.431188	211.667832
2867.737938	209.025874
2869.042925	207.483217
2870.347699	205.234965
2871.650711	207.606294
2872.956605	207.959441
2874.257643	209.525874
2875.560016	209.646853
2876.860629	212.386014
2878.162576	212.491608
2879.464310	211.836364
2880.762739	210.379021
2882.062503	209.660140
2883.360508	208.739161
2884.658302	209.755944
2885.954340	210.860140
2887.251711	212.001399
2888.547326	208.644056
2889.842730	207.726573
2891.137924	208.337063
2892.429819	209.557343
2893.724591	209.002098
2895.016066	209.462238
2896.308874	211.078322
2897.601472	210.904196
2898.890776	211.616783
2900.181412	210.655245
2901.470297	209.048951
2902.760515	206.691608
2904.047440	202.809091
2905.335699	200.118182
2906.622207	200.290909
2907.908508	196.661538
2909.194600	196.407692
2910.478944	196.057343
2911.766160	198.243357
2913.048548	200.700699
2914.332269	200.607692
2915.614244	200.076923
2916.896012	198.613287
2918.176034	202.330070
2919.458926	199.534965
2920.740073	199.086014
2922.017938	197.616084
2923.298672	196.441958
2924.576125	198.033566
2925.853372	198.725175
2927.128878	198.755245
2928.407251	199.510490
2929.680809	200.472727
2930.957235	199.620979
2932.231920	199.796503
2933.504865	203.223776
2934.779140	201.581818
2936.051676	201.703497
2937.324008	201.569930
2938.593066	200.151748
2939.864990	202.115385
2941.135176	199.539860
2942.405159	194.886713
2943.674938	193.999301
2944.942980	191.965035
2946.209287	186.062937
2947.475391	183.962238
2948.742825	183.315385
2950.008525	181.566434
2951.274022	181.032168
2952.539317	184.538462
2953.801347	184.741958
2955.064708	188.148951
2956.327866	187.155944
2957.589293	191.272727
2958.852049	193.119580
2960.113074	192.773427
2961.372367	189.741958
2962.631461	189.049650
2963.890354	189.267133
2965.149047	186.013986
2966.407540	187.166434
2967.664304	192.500699
2968.920868	192.781818
2970.175705	192.937063
2971.431871	192.848252
2972.684781	195.946154
2973.939021	194.202098
2975.193062	193.781818
2976.445377	190.163636
2977.697494	189.196503
2978.947886	188.446853
2980.201133	186.752448
2981.449603	187.917483
2982.700927	187.001399
2983.949003	185.822378
2985.196881	183.795804
2986.444562	184.568531
2987.692047	182.676923
2988.937810	178.875524
2990.183376	179.494406
2991.430270	180.372727
2992.673920	183.686713
2993.918898	186.323077
2995.160633	185.740559
2996.405218	187.513986
2997.648085	187.030070
2998.887711	189.983217
3000.130187	191.362238
3001.369424	191.654545
3002.609988	187.882517
3003.848835	184.416783
3005.087488	186.088811
3006.324425	185.991608
3007.562689	184.824476
3008.799239	183.504895
3010.035594	182.858741
3011.271756	183.576923
3012.506205	184.498601
3013.740460	186.427972
3014.974522	187.512587
3016.206872	187.624476
3017.437510	188.623077
3018.670994	187.553846
3019.902766	184.073427
3021.132828	185.572028
3022.362698	184.996503
3023.590858	184.772028
3024.820344	183.841958
3026.048122	181.358042
3027.275708	181.176224
3028.504620	180.643357
3029.728790	178.179720
3030.955803	176.702797
3032.179592	175.476923
3033.404708	173.437063
3034.628117	170.951049
3035.851337	176.370629
3037.072851	176.176923
3038.297206	177.487413
3039.516826	181.497902
3040.737771	181.557343
3041.958528	181.313986
3043.177581	182.276224
3044.397960	179.752448
3045.615122	179.254545
3046.833609	179.364336
3048.050394	179.472727
3049.266992	176.748252
3050.483401	178.601399
3051.696598	179.100000
3052.912632	178.530070
3054.125454	175.651049
3055.341113	171.922378
3056.552049	170.939860
3057.764310	171.030769
3058.976385	168.846853
3060.188273	171.273427
3061.398463	174.243357
3062.608467	176.288811
3063.818286	177.624476
3065.026408	180.570629
3066.234344	181.551748
3067.440586	177.329371
3068.648151	176.052448
3069.854023	175.099301
3071.059709	174.349650
3072.265210	173.909091
3073.469018	175.127972
3074.674150	179.203497
3075.877590	177.470629
3077.079337	178.218182
3078.280901	175.580420
3079.482281	173.996503
3080.683477	172.275524
3081.882983	169.038462
3083.082305	167.202098
3084.282951	165.328671
3085.481907	166.540559
3086.677669	167.479720
3087.876260	169.557343
3089.071657	171.357343
3090.268377	168.017483
3091.461905	170.616084
3092.658261	169.693007
3093.852931	169.583916
3095.044410	169.349650
3096.240220	172.124476
3097.431337	169.537063
3098.623776	170.441958
3099.813028	169.309091
3101.005106	167.773427
3102.195499	166.546853
3103.382707	166.739860
3104.571238	165.450350
3105.761091	168.877622
3106.947759	170.961538
3108.134248	171.833566
3109.320557	171.753147
3110.508188	173.750350
3111.692638	168.870629
3112.875407	171.153846
3114.061000	169.188811
3115.244912	168.315385
3116.427146	164.735664
3117.609201	164.616084
3118.791079	163.715385
3119.972778	167.888811
3121.152799	169.457343
3122.331144	166.360839
3123.512310	162.595804
3124.690300	161.477622
3125.868113	159.902797
3127.045749	162.281818
3128.221710	162.806294
3129.397494	162.376923
3130.574600	159.487413
3131.750031	159.786014
3132.923789	158.237762
3134.095875	160.837063
3135.269281	157.933566
3136.442512	156.383916
3137.614070	155.566434
3138.786950	155.123077
3139.956662	154.155245
3141.127695	154.890210
3142.297057	155.477622
3143.464750	154.657343
3144.635258	154.631469
3145.801107	156.325874
3146.971266	156.862937
3148.136767	162.012587
3149.302095	162.639161
3150.467249	164.976224
3151.632229	162.225175
3152.798530	161.230769
3153.960177	157.561538
3155.123145	154.438462
3156.285939	148.611888
3157.448561	145.538462
3158.609518	144.474126
3159.770302	145.662238
3160.930914	145.341259
3162.089863	149.341259
3163.248639	147.639161
3164.407244	146.777622
3165.565677	147.551049
3166.723938	150.394406
3167.880537	148.384615
3169.035475	149.063636
3170.191732	148.024476
3171.346329	150.008392
3172.500754	154.074825
3173.653520	154.455944
3174.806116	153.084615
3175.958541	152.744755
3177.110797	148.712587
3178.262883	148.202098
3179.411822	147.250350
3180.563568	144.240559
3181.713656	139.583217
3182.862088	140.688112
3184.010351	139.900699
3185.158444	142.218881
3186.306369	144.438462
3187.452639	146.709790
3188.598740	148.103497
3189.743186	150.670629
3190.887465	151.618881
3192.031576	153.814685
3193.177005	154.058042
3194.319294	154.606993
3195.461417	153.437762
3196.603372	154.687413
3197.745161	151.383916
3198.886782	150.261538
3200.025267	149.106294
3201.165070	151.533566
3202.306191	147.896503
3203.444177	147.820280
3204.580514	146.730070
3205.716685	147.977622
3206.854174	149.611189
3207.990013	150.465035
3209.127170	149.157343
3210.259714	147.292308
3211.396540	144.833566
3212.528754	144.497902
3213.662286	145.065734
3214.795652	146.263636
3215.925891	141.972727
3217.058928	143.745455
3218.188839	143.642657
3219.320067	144.482517
3220.448169	144.805594
3221.579068	144.727972
3222.708324	144.365035
3223.835935	143.101399
3224.960425	145.331469
3226.089190	145.383916
3227.214833	145.920979
3228.340313	147.811189
3229.464152	147.348252
3230.590785	149.434266
3231.712821	147.223776
3232.836173	146.737063
3233.959363	145.690909
3235.082391	146.614685
3236.203779	144.746853
3237.325006	143.780420
3238.444594	141.470629
3239.564021	139.538462
3240.681810	141.704895
3241.802392	144.315385
3242.919859	145.183916
3244.037167	144.591608
3245.154313	144.656643
3246.269824	145.216084
3247.386650	142.100000
3248.500365	141.356643
3249.616870	136.881119
3250.731741	137.141259
3251.843503	136.983916
3252.955106	136.979720
3254.068023	141.325874
3255.180782	140.327972
3256.290434	142.353147
3257.401400	143.583916
3258.512208	143.944056
3259.621385	140.395804
3260.728930	138.065035
3261.837790	136.684615
3262.946491	136.446853
3264.052090	138.972727
3265.159003	139.839860
3266.264288	140.548951
3267.370886	142.469930
3268.474384	141.044056
3269.579196	142.960140
3270.683851	143.241259
3271.785407	141.446154
3272.886808	138.977622
3273.989522	139.041958
3275.092079	137.521678
3276.191540	135.546853
3277.293785	133.258741
3278.392934	133.341958
3279.490459	134.912587
3280.587828	135.564336
3281.687980	134.682517
3282.785038	134.963636
3283.881941	133.899301
3284.978689	132.113986
3286.070879	133.012587
3287.167317	133.611189
3288.262134	136.025874
3289.356795	135.214685
3290.449835	137.286014
3291.542721	140.517483
3292.633986	140.718182
3293.726564	141.747552
3294.817521	140.611189
3295.906859	137.955245
3296.996044	135.050350
3298.086542	132.384615
3299.173955	132.393706
3300.261216	132.897203
3301.349789	135.263636
3302.438209	135.443357
3303.522082	139.027972
3304.610197	139.000000
3305.695231	137.966434
3306.778648	138.455944
3307.863378	140.012587
3308.946493	140.363636
3310.030919	141.337762
3311.112267	140.014685
3312.194927	138.420280
3313.275973	137.802797
3314.356868	139.130070
3315.436150	137.402797
3316.515281	135.997902
3317.595723	131.876224
3318.673092	129.263636
3319.751771	128.690909
3320.828840	130.513287
3321.905758	132.118182
3322.981065	132.841958
3324.056223	132.939860
3325.132692	135.763636
3326.206091	137.433566
3327.279341	141.758042
3328.353902	140.703497
3329.426853	140.529371
3330.498197	137.527972
3331.570851	135.185315
3332.640438	134.320979
3333.711336	133.335664
3334.780627	135.116084
3335.851229	135.306294
3336.920224	136.970629
3337.987613	138.220979
3339.053397	137.791608
3340.123407	138.139860
3341.190354	137.483916
3342.254239	136.889510
3343.320892	133.962238
3344.385940	130.416783
3345.449385	127.955944
3346.512684	126.870629
3347.575836	127.410490
3348.638842	127.325874
3349.701702	126.459441
3350.762960	125.583916
3351.821161	124.523776
3352.883583	124.861538
3353.942948	125.942657
3355.002168	124.688112
3356.062698	123.414685
3357.118718	122.279720
3358.177503	122.251748
3359.231780	124.766434
3360.288820	123.894406
3361.344263	126.448252
3362.401014	126.695804
3363.456168	128.157343
3364.509724	130.683217
3365.561683	131.995105
3366.616404	131.569930
3367.668076	132.483217
3368.719605	135.071329
3369.772443	131.946853
3370.822233	129.738462
3371.873331	129.064336
3372.921384	126.547552
3373.972197	126.146154
3375.019964	123.875524
3376.067589	122.348252
3377.115071	123.507692
3378.160961	123.099301
3379.208159	125.106294
3380.252315	126.234266
3381.299229	128.550350
3382.344551	125.055944
3383.386833	125.974825
3384.428973	126.307692
3385.472421	127.363636
3386.515729	128.093007
3387.557446	126.463636
3388.599022	127.796503
3389.640458	127.816084
3390.680304	129.319580
3391.718563	127.374825
3392.758129	126.272727
3393.797554	126.034965
3394.835392	125.526573
3395.871643	123.518881
3396.907755	120.489510
3397.945174	116.859441
3398.979560	116.986014
3400.015253	115.206993
3401.050807	116.420280
3402.083330	115.767133
3403.118606	120.960839
3404.150851	124.106294
3405.182958	128.835664
3406.213481	129.440559
3407.245312	130.211189
3408.277003	129.683217
3409.305668	128.588811
3410.334194	125.367832
3411.364028	122.471329
3412.393723	115.940559
3413.420393	110.409091
3414.448370	107.395804
3415.473322	110.167832
3416.501024	111.384615
3417.525703	111.537063
3418.551688	110.944755
3419.576093	111.126573
3420.600362	117.060839
3421.623052	121.327972
3422.645606	123.425874
3423.669466	123.365734
3424.690306	122.951049
3425.711011	123.560539
3426.733021	123.317832
3427.752013	121.873626
3428.770870	118.878621
3429.791032	113.983516
3430.808178	106.839011
