-118.187858	6.174176
-115.518258	6.429670
-112.851593	7.051449
-110.185680	7.943357
-107.522699	9.009241
-104.858289	10.152947
-102.196809	11.278322
-99.533899	12.157343
-96.876097	14.075524
-94.216864	15.434266
-91.558380	11.397902
-88.902821	10.801399
-86.245833	8.200699
-83.593942	4.818881
-80.940622	3.604895
-78.290222	2.160140
-75.638392	2.609790
-72.991653	1.486713
-70.343484	2.906294
-67.696059	4.544755
-65.051547	7.584615
-62.405607	7.036364
-59.764748	6.131469
-57.122460	9.268531
-54.483080	5.681119
-51.842272	4.558741
-49.202204	2.771329
-46.567208	4.264336
-43.930783	5.599301
-41.297262	5.738462
-38.662312	6.956643
-36.032427	7.600000
-33.398950	9.553147
-30.770535	9.937762
-28.142853	12.308392
-25.513744	10.274825
-22.889691	-8.478322
-20.262049	-77.420280
-17.639460	-227.956643
-15.017602	-288.640559
-12.396476	216.963636
-9.776079	1099.990210
-7.158570	1829.313986
-4.539633	2337.341958
-1.923582	2622.662937
0.691741	2683.691608
3.306337	2521.473427
5.918050	2137.574825
8.531192	1546.139860
11.139300	784.947552
13.750990	16.758741
16.357649	-422.310490
18.965736	-273.375524
21.573099	-23.047552
24.175437	7.223776
26.781353	7.027972
29.382247	8.405594
31.984570	8.769930
34.581874	11.448951
37.182754	13.420280
39.778620	15.000000
42.375913	14.660839
44.972487	16.538462
47.564052	12.954545
50.157045	15.745455
52.747177	13.746853
55.338737	13.140559
57.927437	9.144755
60.517564	9.231469
63.102693	9.350350
65.689249	9.802797
68.275090	10.690210
70.858078	12.023776
73.442493	12.649650
76.019778	13.558741
78.600630	12.184615
81.178633	15.541958
83.755926	15.404196
86.334645	15.823077
88.908383	12.622378
91.483547	13.832867
94.055868	14.834965
96.627481	14.570629
99.196255	14.632168
101.766455	12.376224
104.333816	11.359441
106.902604	8.772028
109.468554	5.358741
112.031670	5.734965
114.598342	16.813986
117.155793	39.753846
119.718929	73.835664
122.277106	113.829371
124.838836	160.334965
127.395611	215.516084
129.953811	287.019580
132.507059	382.505594
135.059608	504.709790
137.615708	638.210490
140.166861	770.974825
142.717315	901.285315
145.267073	1021.158042
147.814011	1112.570629
150.360253	1172.504895
152.907922	1196.886014
155.454894	1207.156643
157.996930	1203.884615
160.538273	1212.483217
163.078924	1240.669231
165.620999	1294.528671
168.160264	1373.525874
170.696719	1474.769930
173.232484	1597.297902
175.769674	1745.308392
178.306172	1927.488811
180.839865	2169.226573
183.370755	2503.241958
185.900956	2970.972727
188.432582	3586.189510
190.961407	4393.983217
193.487433	5361.096503
196.012774	6426.896503
198.539539	7481.813986
201.063508	8399.408392
203.586791	9030.346154
206.109390	9302.313986
208.629196	9167.902098
211.148319	8671.488811
213.666759	7876.802797
216.186623	6901.520979
218.699486	5863.818182
221.215880	4903.644755
223.731592	4079.969231
226.242415	3430.186713
228.754662	2942.410490
231.264126	2591.514685
233.772912	2315.981119
236.281020	2106.281818
238.790551	1934.923077
241.295203	1807.169930
243.799178	1691.460140
246.304577	1595.280420
248.805101	1520.562238
251.309148	1517.332867
253.806225	1594.550350
256.306824	1706.586713
258.804652	1800.384615
261.301807	1846.076923
263.798289	1838.301399
266.289909	1777.747552
268.785047	1665.406993
271.277420	1507.020979
273.769122	1313.718881
276.258061	1112.718182
278.748423	944.423776
281.236024	861.546853
283.720865	847.583217
286.209220	849.961538
288.690636	843.568531
291.175566	830.192308
293.655651	818.955944
296.139248	809.155944
298.618002	803.320280
301.098180	796.492308
303.575605	786.827972
306.052367	780.979720
308.528466	781.783916
311.001816	788.233566
313.474504	793.196503
315.946531	803.741259
318.417897	809.716783
320.886519	814.759441
323.354481	814.119580
325.823866	811.093706
328.288428	804.222378
330.756493	792.313287
333.219739	772.831469
335.682328	744.357343
338.144259	707.430769
340.605534	714.281119
343.064075	885.437762
345.524038	1206.902098
347.981269	1541.235664
350.437844	1815.803497
352.893766	2000.862937
355.346959	2084.401399
357.801573	2059.569231
360.251386	1931.513287
362.704696	1706.626573
365.153206	1403.902797
367.601066	1087.073427
370.050347	862.388811
372.494835	812.955245
374.940745	843.917483
377.386006	859.219580
379.828548	861.648951
382.270442	864.554545
384.711688	868.858741
387.150219	870.952448
389.590172	891.795804
392.027411	934.898601
394.461938	982.208392
396.899953	1021.725874
399.333191	1048.834266
401.767851	1055.763636
404.197737	1044.681119
406.631109	1030.590909
409.059711	1012.462937
411.487672	988.608392
413.917053	960.463636
416.341669	940.460839
418.767707	939.970629
421.193104	965.572028
423.617861	995.611888
426.037860	1022.909091
428.459280	1054.700699
430.878003	1090.909790
433.298147	1140.623077
435.715596	1203.055944
438.134465	1282.055245
440.550641	1355.691608
442.962070	1398.406993
445.376975	1422.253147
447.789190	1689.290210
450.200771	2991.311189
452.611718	6133.978322
455.019979	10817.216084
457.427607	15802.951748
459.834604	19987.634266
462.240968	22773.080420
464.644650	23886.988112
467.047702	23248.329371
469.450124	20895.307692
471.851917	17068.112587
474.251031	12312.342657
476.651565	7623.483217
479.051470	4231.653846
481.446652	2707.171329
483.845301	2379.509790
486.239230	2328.572028
488.632533	2216.706993
491.025210	2063.417483
493.417262	1912.116783
495.810733	1802.603497
498.199491	1753.158042
500.585583	1735.648252
502.973095	1725.667133
505.359983	1711.612587
507.744208	1690.537762
510.129852	1649.420280
512.512833	1585.575524
514.893154	1502.171329
517.274894	1397.017483
519.653975	1278.102797
522.034475	1172.146853
524.412317	1108.613287
526.787504	1088.528671
529.162073	1077.250350
531.538061	1065.877622
533.911395	1050.588811
536.286148	1039.741958
538.656214	1024.387413
541.025665	1008.501399
543.396535	997.796503
545.762723	981.518881
548.130330	966.536364
550.495291	957.113287
552.859639	945.853846
555.223375	937.482517
557.588528	924.568531
559.949008	912.481818
562.310907	902.325874
564.670166	896.162238
567.026786	887.323776
569.386851	880.694406
571.740226	878.200699
574.097045	871.523077
576.451228	871.494406
578.804804	868.539860
581.157771	866.877622
583.508107	867.070629
585.859859	869.368531
588.204935	871.060140
590.555475	873.381818
592.899342	871.148252
595.248669	866.334965
597.593349	864.386713
599.935404	856.838462
602.278875	852.551049
604.619724	841.916084
606.959971	835.776224
609.297597	828.215385
611.638658	821.898601
613.975082	819.182517
616.312922	814.655944
618.648144	812.940559
620.980751	808.380420
623.314775	805.446154
625.646184	808.044755
627.976995	808.529371
630.307208	811.695105
632.636823	808.355245
634.961816	811.701399
637.292250	805.055944
639.618062	804.506294
641.941268	804.667133
644.265889	805.472727
646.587906	801.044755
648.909328	796.283916
651.228147	792.653147
653.548382	792.278322
655.868024	789.043357
658.185065	782.474126
660.501515	777.046853
662.815366	772.941259
665.130632	768.525874
667.443302	770.018881
669.757387	775.375524
672.066872	779.572028
674.377773	782.568531
676.686081	789.430769
678.993801	793.213986
681.302936	801.463636
683.607478	807.572727
685.911434	816.781119
688.214803	826.730769
690.519587	837.304196
692.819785	845.674126
695.121398	849.958741
697.422425	848.127972
699.718870	841.410490
702.016731	830.776923
704.314008	818.390909
706.610702	804.969930
708.902820	794.548951
711.198349	784.313287
713.489305	777.337762
715.781675	774.679021
718.071469	775.534965
720.360684	773.461538
722.649318	773.441259
724.935381	769.361538
727.222857	772.654545
729.507763	771.955944
731.792090	775.269231
734.073849	779.195804
736.357023	779.773427
738.639618	783.817483
740.917659	783.904196
743.197113	784.437762
745.475992	787.297203
747.754295	786.609091
750.028049	788.923077
752.303217	787.361538
754.577811	794.209091
756.849846	793.511189
759.123293	797.986713
761.394183	801.116084
763.662517	804.490210
765.932264	811.046853
768.199457	813.318881
770.466079	817.886713
772.732132	823.327972
774.995632	823.632867
777.260546	825.518182
779.524890	828.835664
781.784705	835.835664
784.045933	841.347552
786.306593	853.746853
788.564706	861.409091
790.820275	871.900699
793.079235	887.341958
795.331696	931.056643
797.589524	1013.660839
799.842832	1125.642657
802.093601	1239.741958
804.345782	1337.116783
806.595425	1396.942657
808.846479	1415.039860
811.093022	1390.072727
813.340978	1325.765734
815.586398	1222.007692
817.833230	1104.989510
820.079501	988.370629
822.321268	909.830070
824.566417	875.124476
826.805094	869.759441
829.047154	870.486014
831.284715	872.905594
833.523687	871.386713
835.760133	871.534266
837.997991	869.887413
840.233323	866.454545
842.466131	864.706294
844.700351	866.262238
846.932049	863.316084
849.163192	864.638462
851.393780	866.472028
853.623814	865.544755
855.853293	861.490909
858.078291	859.568531
860.306664	855.448951
862.530558	851.570629
864.755862	848.469231
866.976691	839.376224
869.200892	836.588811
871.420620	832.557343
873.641759	831.165035
875.862347	831.698601
878.080425	837.992308
880.299914	843.248951
882.514936	846.274126
884.729410	853.682517
886.943337	852.644056
889.156716	854.016783
891.369549	858.695804
893.581834	855.080420
895.791618	850.972727
898.000856	846.195804
900.209548	845.567133
902.415742	845.020979
904.623345	845.237762
906.828451	842.463636
909.033013	840.552448
911.235079	843.200699
913.438555	838.564336
915.639537	837.867832
917.839978	842.087413
920.041827	836.802098
922.237284	832.818881
924.436101	831.131469
926.630480	831.936364
928.828215	829.069231
931.021515	824.380420
933.216224	820.681119
935.408447	819.559441
937.600132	819.183916
939.791279	816.716084
941.979943	815.862238
944.168070	814.974825
946.353717	814.514685
948.542716	819.188112
950.727292	820.170629
952.911333	824.045455
955.098724	821.697203
957.277812	824.527972
959.460249	825.106294
961.642153	826.051049
963.821583	826.928671
965.998540	826.720979
968.176905	825.172727
970.356676	820.546154
972.530099	820.490909
974.706868	822.034266
976.879231	820.297203
979.053000	819.095804
981.222366	814.886713
983.395077	818.928671
985.565321	816.847552
987.735037	814.548951
989.904224	814.104895
992.069014	811.756643
994.237145	813.702797
996.400882	814.918182
998.566025	816.525175
1000.728710	821.386014
1002.890868	823.832867
1005.050570	825.763636
1007.209748	825.097902
1009.370332	825.898601
1011.528461	822.977622
1013.686066	821.181818
1015.843148	823.199301
1017.999707	822.193007
1020.151886	825.268531
1022.305471	829.249650
1024.458535	829.800699
1026.609151	827.118881
1028.761172	828.240559
1030.908820	827.706294
1033.059800	827.299301
1035.206409	826.019580
1037.352500	828.509790
1039.498071	831.779720
1041.645048	837.069231
1043.785737	836.893706
1045.929754	840.809790
1048.071331	848.211189
1050.212392	849.886014
1052.354857	851.723077
1054.491043	857.334965
1056.630555	862.221678
1058.765711	871.202098
1060.904192	878.754545
1063.038320	882.604895
1065.171933	888.529371
1067.306952	903.249650
1069.437621	947.119580
1071.569695	1046.986014
1073.699340	1182.421678
1075.828473	1316.190210
1077.957094	1418.447552
1080.085204	1482.146154
1082.210888	1496.500000
1084.336062	1459.253147
1086.462640	1374.545455
1088.584881	1250.531469
1090.708525	1112.774825
1092.827836	985.434965
1094.952375	898.967832
1097.070669	868.363636
1099.190368	864.023077
1101.307648	863.671329
1103.424422	858.251049
1105.540689	858.629371
1107.654541	850.200699
1109.769796	844.614685
1111.880729	839.234266
1113.994973	838.460839
1116.104897	836.070629
1118.216225	836.523077
1120.327049	837.533566
1122.433556	834.469930
1124.543372	832.344755
1126.648874	829.455245
1128.755779	825.148252
1130.856469	824.462238
1132.962371	819.483916
1135.063964	821.604196
1137.166960	820.607692
1139.269455	826.934965
1141.365744	829.329371
1143.467239	836.130769
1145.564432	844.040559
1147.661126	855.052448
1149.757323	881.776224
1151.853021	910.165035
1153.948222	932.137063
1156.041026	947.147552
1158.135232	952.784615
1160.223247	948.858042
1162.316460	936.627273
1164.403485	920.937063
1166.493810	894.727972
1168.579846	866.601399
1170.669180	843.159441
1172.752333	830.476224
1174.836889	827.954545
1176.922845	827.451049
1179.004520	825.289510
1181.087597	822.541958
1183.168288	821.204895
1185.248487	816.862937
1187.328195	816.191608
1189.407412	818.644056
1191.484247	814.997203
1193.558701	812.562937
1195.636447	813.341259
1197.709922	812.648252
1199.784798	815.619580
1201.855407	816.009790
1203.927418	819.895804
1205.997052	818.358042
1208.068087	817.951748
1210.138634	820.579720
1212.204920	824.951748
1214.272607	829.952448
1216.337922	834.048252
1218.404637	839.768531
1220.467096	846.737063
1222.532840	850.504895
1224.594331	856.503497
1226.657221	862.193706
1228.717744	865.530769
1230.777784	862.298601
1232.837340	859.369231
1234.894531	856.079021
1236.951241	854.940559
1239.005588	849.972028
1241.063215	847.093706
1243.118480	845.195804
1245.169504	840.587413
1247.221928	832.631469
1249.273873	830.988112
1251.323458	833.481818
1253.372565	832.302098
1255.421194	830.785315
1257.469344	831.639161
1259.517016	828.037762
1261.560457	833.362937
1263.607173	834.027273
1265.651537	835.667832
1267.695423	836.899301
1269.736959	834.123077
1271.776145	833.711888
1273.818603	833.703497
1275.856839	832.120280
1277.896474	831.882517
1279.935634	828.081818
1281.970576	829.926573
1284.006916	825.800699
1286.040911	829.660140
1288.076305	834.408392
1290.107485	840.274825
1292.140064	845.247552
1294.172170	850.492308
1296.201936	853.853147
1298.233100	853.109091
1300.260056	852.630070
1302.288410	852.106294
1304.312560	848.985315
1306.339974	846.974126
1308.363187	845.676923
1310.387796	848.611189
1312.410072	855.394406
1314.433745	861.344056
1316.455085	866.643357
1318.475957	873.590909
1320.496363	879.045455
1322.512574	885.130769
1324.530184	891.574825
1326.545465	897.888112
1328.564005	903.282517
1330.578355	906.674126
1332.590380	913.829371
1334.605662	921.713986
1336.616759	931.197902
1338.629253	940.185315
1340.637564	946.713287
1342.649131	953.739161
1344.654658	960.958042
1346.663441	962.754545
1348.668046	959.899301
1350.675905	957.637063
1352.683302	951.474825
1354.684668	941.630769
1356.687431	930.275524
1358.689733	921.665035
1360.691576	916.999301
1362.692960	906.289510
1364.692029	892.844755
1366.690640	885.072727
1368.688793	877.938462
1370.686488	867.061538
1372.680019	856.461538
1374.674947	851.087413
1376.669418	842.020280
1378.663432	833.970629
1380.655139	827.949650
1382.646390	821.481119
1384.635336	821.248951
1386.625677	816.028671
1388.615563	809.953846
1390.603146	807.711888
1392.590275	805.381818
1394.575102	802.920280
1396.561323	801.245455
1398.545245	797.706993
1400.528714	791.426573
1402.511731	791.169930
1404.492450	787.269930
1406.474563	782.458042
1408.454379	784.262937
1410.433745	786.518881
1412.408971	787.881818
1414.387437	789.856643
1416.363609	794.569930
1418.339331	794.408392
1420.314604	797.862937
1422.287586	798.670629
1424.260120	799.016783
1426.232207	800.909091
1428.203845	796.800699
1430.171355	795.307692
1432.143940	794.203497
1434.108718	796.997902
1436.078569	796.002797
1438.044295	792.473427
1440.011415	792.769231
1441.976250	788.738462
1443.936967	790.381119
1445.902751	792.579720
1447.862580	794.009790
1449.823802	795.619580
1451.786417	796.767832
1453.744917	795.820280
1455.702975	792.637063
1457.660590	795.096503
1459.617764	790.323077
1461.572662	788.658741
1463.528952	790.310490
1465.482968	786.922378
1467.436544	787.018881
1469.387847	785.934965
1471.340542	782.176923
1473.290966	780.662238
1475.240951	784.216783
1477.190496	784.912587
1479.137773	786.887413
1481.082783	790.364336
1483.029184	788.475524
1484.975149	791.501399
1486.920675	792.772727
1488.863937	790.511888
1490.806762	789.350350
1492.747324	778.732867
1494.689277	773.490909
1496.628969	774.818182
1498.568225	780.310490
1500.507047	778.940559
1502.443608	781.868531
1504.381561	783.967832
1506.317256	787.360140
1508.252517	790.450350
1510.185521	793.188811
1512.118093	792.353846
1514.050233	793.625874
1515.981941	791.300000
1517.911395	795.405594
1519.842240	794.609091
1521.772654	792.898601
1523.698995	788.563636
1525.626726	789.074126
1527.552207	791.079021
1529.477259	791.672028
1531.401882	791.009091
1533.326076	789.024476
1535.248023	790.439161
1537.171359	797.313986
1539.092450	800.781818
1541.011296	806.837063
1542.931532	811.216783
1544.849524	819.993706
1546.767090	827.853846
1548.682414	835.999301
1550.599128	841.859441
1552.511787	845.764336
1554.427650	852.639161
1556.341273	858.499301
1558.252659	869.296503
1560.165433	882.670629
1562.074158	892.946154
1563.984273	912.158741
1565.893964	929.769930
1567.803231	954.295105
1569.710265	971.323776
1571.615066	989.730070
1573.521256	1001.805594
1575.425214	1010.070629
1577.328752	1011.586014
1579.231868	1005.727972
1581.132756	996.697902
1583.035031	987.766434
1584.935079	969.004196
1586.836515	953.492308
1588.733916	936.014685
1590.630899	920.230769
1592.527464	902.951748
1594.425417	895.185315
1596.317535	884.895105
1598.212846	874.022378
1600.107740	864.109091
1602.000412	857.313287
1603.892668	852.432168
1605.782704	849.787413
1607.672324	841.437063
1609.561529	837.475524
1611.450318	833.624476
1613.336891	826.829371
1615.224850	822.288811
1617.108793	821.645455
1618.994124	817.066434
1620.879040	812.598601
1622.761744	809.590210
1624.645833	803.719580
1626.525912	796.836364
1628.407377	789.985315
1630.286632	781.388811
1632.167273	775.353147
1634.042110	769.296503
1635.921929	761.693007
1637.797742	758.323776
1639.673145	756.822378
1641.549935	748.278322
1643.420927	751.417483
1645.295101	757.048252
1647.165277	755.968531
1649.038633	757.104895
1650.909786	754.442657
1652.778737	752.359441
1654.649074	748.309091
1656.515417	741.204196
1658.383146	736.795105
1660.248677	733.050350
1662.115592	726.180420
1663.978519	719.086713
1665.842831	724.355944
1667.704947	725.287413
1669.566659	723.878322
1671.429755	720.443357
1673.290657	717.372028
1675.149365	716.419580
1677.007670	712.727273
1678.867360	710.694406
1680.721283	712.104196
1682.578378	711.813986
1684.435071	709.081818
1686.287788	705.977622
1688.143676	702.974825
1689.995589	701.605594
1691.847102	701.266434
1693.698215	698.593007
1695.548926	698.294406
1697.399237	697.145455
1699.247364	696.325874
1701.096874	698.562937
1702.940636	699.509790
1704.789348	696.339860
1706.632313	693.390210
1708.478444	687.913287
1710.320614	687.295804
1712.165948	687.696503
1714.005542	687.299301
1715.846520	686.343357
1717.688881	684.776923
1719.527286	685.412587
1721.367074	685.176224
1723.204687	686.389510
1725.041904	685.395105
1726.876948	680.472727
1728.713375	680.017483
1730.547630	676.942657
1732.381490	677.537063
1734.214957	677.958741
1736.044477	676.202797
1737.877156	676.815385
1739.705891	678.451049
1741.537784	678.932168
1743.365734	675.549650
1745.193292	676.686014
1747.020458	674.802797
1748.847233	675.580420
1750.673617	674.683916
1752.496064	672.741958
1754.321665	671.635664
1756.143332	673.813287
1757.966381	669.394406
1759.787269	671.120979
1761.607767	669.602797
1763.429647	665.638462
1765.245827	665.316084
1767.065159	669.957343
1768.880564	674.115385
1770.699119	677.587413
1772.513749	679.053846
1774.327993	681.355944
1776.141849	682.414685
1777.955319	683.168531
1779.766636	679.393706
1781.579334	681.255944
1783.391645	678.930769
1785.200039	678.074825
1787.009814	677.913287
1788.815673	676.786713
1790.624679	676.474126
1792.429771	671.570629
1794.236243	669.752448
1796.042332	666.917483
1797.844511	664.453147
1799.649833	662.147552
1801.451247	659.055944
1803.254041	660.135664
1805.052929	662.925874
1806.853198	665.269930
1808.653085	666.197902
1810.450831	667.807692
1812.248196	668.279021
1814.045180	666.891608
1815.841784	666.413986
1817.636249	664.249650
1819.432093	664.070629
1821.222283	661.412587
1823.017369	659.276224
1824.806802	658.922378
1826.599372	658.709790
1828.389807	654.158741
1830.178108	653.247552
1831.969544	652.320979
1833.755334	652.015385
1835.542504	653.357343
1837.327542	654.465035
1839.115714	654.307692
1840.900000	655.788112
1842.682157	656.448252
1844.465692	656.500699
1846.247099	653.725175
1848.029885	650.640559
1849.808791	645.753846
1851.589075	647.233566
1853.367233	649.267832
1855.146770	651.468531
1856.924182	656.498601
1858.699470	656.095804
1860.476137	657.537762
1862.250681	660.202098
1864.026602	660.948951
1865.796904	658.622378
1867.570332	659.277622
1869.341641	655.668531
1871.112580	650.941958
1872.884895	649.503497
1874.651598	646.758042
1876.421425	648.160140
1878.187389	651.076224
1879.956477	648.673427
1881.721703	653.904196
1883.486561	655.832867
1885.252795	652.705594
1887.015171	649.668531
1888.777180	650.874825
1890.538822	643.872727
1892.300096	639.409790
1894.061003	636.244056
1895.821544	631.925874
1897.579975	634.797902
1899.338041	636.205594
1901.093998	637.302797
1902.851333	638.176923
1904.608301	634.876923
1906.363164	629.915385
1908.115921	629.650350
1909.868315	627.405594
1911.622084	623.381818
1913.373750	619.860839
1915.123314	616.618881
1916.874254	617.504895
1918.624830	619.356643
1920.371568	620.154545
1922.119681	622.172727
1923.865695	621.908392
1925.613085	619.955245
1927.358376	619.673427
1929.101570	619.537063
1930.846140	616.981119
1932.588613	616.968531
1934.330726	619.150350
1936.072479	620.638811
1937.813873	623.946853
1939.553173	626.347902
1941.292114	629.560140
1943.030696	629.619930
1944.767186	627.301399
1946.503319	625.430420
1948.240826	621.379720
1949.974512	619.768881
1951.709571	619.602797
1953.442543	619.658392
1955.175158	622.627273
1956.907416	621.882168
1958.639318	619.322378
1960.369134	622.374825
1962.096866	623.206993
1963.825971	620.920280
1965.554722	622.185315
1967.281389	623.588811
1969.007702	622.141259
1970.735388	623.032867
1972.457538	622.061538
1974.182789	623.669930
1975.904234	623.597203
1977.628778	625.134266
1979.351243	622.408392
1981.069904	624.292308
1982.791664	623.836364
1984.509622	625.264336
1986.228954	627.509790
1987.944485	629.460140
1989.664838	629.564336
1991.381391	629.227972
1993.094149	629.713287
1994.810002	631.214685
1996.523782	630.710490
1998.237213	632.005594
1999.948573	626.753147
2001.661306	624.988811
2003.370247	621.411189
2005.082282	621.223077
2006.788807	616.477622
2008.498425	618.744755
2010.205975	620.143357
2011.913178	623.562937
2013.618315	624.006993
2015.323105	624.532168
2017.029267	624.983916
2018.731647	623.376923
2020.435399	620.148951
2022.137087	620.488811
2023.838431	619.318881
2025.539429	619.290210
2027.238367	616.815385
2028.938675	620.355245
2030.635209	620.353147
2032.333114	620.108392
2034.028961	617.055245
2035.727892	617.146154
2037.421338	616.262238
2039.116156	614.028671
2040.810630	610.974126
2042.501336	611.730769
2044.195126	609.447552
2045.885149	607.752448
2047.576543	605.852448
2049.265884	604.774126
2050.956595	604.952448
2052.643544	604.115385
2054.330152	602.474825
2056.018131	603.800000
2057.702350	603.227273
2059.387939	600.316783
2061.073189	596.131469
2062.756391	591.383916
2064.440962	585.924476
2066.120071	583.094406
2067.803965	584.235664
2069.482399	585.346853
2071.163909	589.634965
2072.841669	588.148951
2074.519091	590.851049
2076.197884	592.361538
2077.874633	594.526573
2079.549341	594.561538
2081.225418	591.151049
2082.899455	588.674126
2084.573156	587.435664
2086.246522	586.861538
2087.917850	587.672028
2089.588843	585.834266
2091.259502	583.975524
2092.929826	580.905594
2094.599817	583.441259
2096.267772	584.270629
2097.935394	589.560140
2099.600982	592.202098
2101.267938	592.973427
2102.932861	597.074126
2104.597451	598.976923
2106.260010	597.758741
2107.923937	599.377622
2109.585834	599.939161
2111.247399	596.546853
2112.908634	596.976224
2114.567839	598.863636
2116.226715	600.793706
2117.885260	603.742657
2119.543476	601.220979
2121.197968	604.853846
2122.855525	606.776923
2124.512753	605.611189
2126.166259	605.863636
2127.821133	608.685315
2129.472289	607.881818
2131.126506	603.765734
2132.777007	599.884615
2134.428874	598.407692
2136.075333	594.872028
2137.726547	589.222378
2139.374047	584.899301
2141.022914	587.376923
2142.669763	587.874126
2144.316285	590.109790
2145.962482	592.884615
2147.604971	593.812587
2149.250518	593.498601
2150.892358	591.088811
2152.537255	587.944056
2154.178447	587.909790
2155.819315	584.970629
2157.459860	580.424476
2159.098392	577.983217
2160.738290	579.340559
2162.374488	582.056643
2164.012052	582.229371
2165.649293	578.125874
2167.284525	575.750350
2168.919436	574.882517
2170.554025	573.582517
2172.188292	573.506993
2173.818867	573.086713
2175.452492	572.109091
2177.082426	572.846853
2178.713725	572.716783
2180.343020	576.177622
2181.971994	575.432867
2183.600650	570.512587
2185.228986	567.807692
2186.855319	567.141958
2188.481334	567.860839
2190.105348	568.467832
2191.730726	569.237762
2193.354105	568.089510
2194.978847	568.475524
2196.599909	569.190210
2198.220654	567.569930
2199.842764	566.560140
2201.462876	561.082517
2203.080991	557.427273
2204.698791	557.190909
2206.316276	558.634965
2207.933445	557.595105
2209.550299	558.372727
2211.166838	558.620979
2212.781383	556.702797
2214.393936	557.602797
2216.007853	555.623077
2217.619779	553.902797
2219.233068	553.926573
2220.844367	551.453147
2222.453676	548.217483
2224.064349	550.753147
2225.673033	552.988112
2227.281405	554.352448
2228.887789	556.683916
2230.495537	557.324476
2232.101298	552.944755
2233.706748	552.907692
2235.310214	552.531469
2236.915042	552.207692
2238.517886	553.251049
2240.118747	551.981119
2241.720971	548.817483
2243.321212	552.431469
2244.922816	551.981119
2246.520768	550.497203
2248.120082	547.252448
2249.717416	543.145455
2251.314442	538.672727
2252.912829	542.746154
2254.507568	544.713287
2256.100331	546.250350
2257.694455	549.354545
2259.289941	552.116783
2260.881783	552.573427
2262.473318	555.934266
2264.066214	556.086713
2265.653801	552.177622
2267.246085	551.064336
2268.833061	546.817483
2270.423066	545.431469
2272.007766	543.746154
2273.597160	539.075524
2275.181251	534.623776
2276.766704	533.086014
2278.350187	529.967133
2279.936697	526.062238
2281.519573	524.095804
2283.102145	523.695804
2284.684414	524.688112
2286.263054	525.542657
2287.844717	524.095804
2289.422752	525.978322
2291.003810	523.919580
2292.581242	523.761538
2294.156710	519.534266
2295.735199	519.421678
2297.310065	517.411189
2298.884630	515.239161
2300.458895	514.642657
2302.032859	515.708392
2303.606523	516.616783
2305.179886	513.388811
2306.749631	515.626573
2308.319077	517.313287
2309.891542	517.447552
2311.458731	516.389510
2313.028939	513.173427
2314.595532	514.334266
2316.163485	517.565734
2317.729483	520.681818
2319.295182	521.181818
2320.860585	521.240559
2322.424034	522.939161
2323.988841	523.882517
2325.550041	528.907692
2327.114255	530.995105
2328.673208	531.453147
2330.235174	527.922378
2331.795190	525.560839
2333.354910	521.574126
2334.912681	520.666434
2336.470158	517.244755
2338.027339	518.603497
2339.582574	517.271329
2341.137514	517.447552
2342.692161	515.399301
2344.246514	519.572727
2345.800573	518.986014
2347.354338	516.776923
2348.906160	512.504196
2350.456038	508.863636
2352.008924	505.416783
2353.556568	505.498601
2355.107219	504.061538
2356.654280	506.009091
2358.202698	501.260839
2359.750824	501.109790
2361.295363	500.322378
2362.841259	502.189510
2364.385216	498.897902
2365.930531	499.220979
2367.472261	499.748252
2369.015348	498.235664
2370.556500	499.810490
2372.097362	499.390909
2373.637935	499.179021
2375.178219	497.814685
2376.718214	498.079021
2378.254630	499.626573
2379.794048	499.369930
2381.329889	493.776923
2382.867086	495.677622
2384.400709	496.641958
2385.937331	499.503497
2387.472022	497.553147
2389.004784	498.344056
2390.537260	499.616783
2392.067807	501.374126
2393.601352	500.374825
2395.129686	499.520979
2396.659376	496.834266
2398.188781	494.904895
2399.717900	491.234965
2401.246735	493.239161
2402.770365	492.781818
2404.298630	493.211189
2405.821692	492.334266
2407.349388	492.579021
2408.870245	494.544755
2410.395735	495.162937
2411.917664	497.073427
2413.440949	495.665035
2414.962313	497.997902
2416.481757	500.800000
2418.002556	502.537063
2419.521436	501.935664
2421.040034	503.323776
2422.556715	505.094406
2424.074750	507.183916
2425.592504	505.358741
2427.106707	505.038462
2428.620629	502.219580
2430.134272	499.144755
2431.649268	494.034266
2433.160716	492.513287
2434.673519	485.739860
2436.184409	481.216084
2437.695019	479.586713
2439.203718	483.315385
2440.715404	486.256643
2442.223546	485.934266
2443.731409	485.503497
2445.238995	488.827972
2446.743040	487.102797
2448.250071	484.652448
2449.755193	483.669930
2451.260038	481.588811
2452.762976	478.219580
2454.265637	479.090909
2455.768022	479.955245
2457.268502	483.179021
2458.770335	481.227273
2460.270264	479.867832
2461.769917	479.717483
2463.269295	476.609091
2464.766769	472.388112
2466.262343	473.881818
2467.760896	473.373427
2469.255920	471.681818
2470.752298	476.328671
2472.245149	478.820979
2473.739352	478.941958
2475.233282	479.800000
2476.723689	477.809790
2478.217072	479.169231
2479.708558	476.513287
2481.198147	468.507692
2482.687464	468.932168
2484.174886	471.560839
2485.665283	469.153846
2487.152161	469.670629
2488.640391	475.265035
2490.125105	473.691608
2491.609548	472.904895
2493.095343	469.000000
2494.579245	468.487413
2496.064499	468.487413
2497.544619	462.982517
2499.027711	457.552448
2500.508913	457.730070
2501.989846	458.161538
2503.468890	458.865734
2504.947666	459.448252
2506.426172	459.469231
2507.904411	460.512587
2509.382381	461.758741
2510.856847	457.507692
2512.334281	458.746154
2513.808212	460.389510
2515.283494	457.739860
2516.758508	458.459441
2518.230021	458.427273
2519.702885	457.599301
2521.173865	455.213986
2522.646196	452.426573
2524.113414	448.191608
2525.583597	450.760839
2527.051900	449.876224
2528.519938	446.972028
2529.987711	449.173427
2531.455219	452.688112
2532.922462	451.746853
2534.386213	453.300000
2535.851315	454.645455
2537.314538	454.177622
2538.779112	452.753147
2540.240196	450.211189
2541.702630	446.376923
2543.164801	449.095105
2544.623486	451.600699
2546.086743	453.460839
2547.544903	456.548951
2549.004412	457.765734
2550.458828	457.859441
2551.917813	460.587413
2553.374927	461.766434
2554.830170	461.303497
2556.285152	458.860140
2557.738264	455.995105
2559.192725	453.486713
2560.645317	453.462238
2562.097649	456.764336
2563.548113	453.202797
2565.001533	451.315385
2566.449871	449.788811
2567.901165	449.222378
2569.350592	448.111189
2570.796548	445.004895
2572.245458	444.813986
2573.690897	444.251748
2575.137685	445.730070
2576.582609	445.836364
2578.027276	446.044056
2579.473290	446.118881
2580.915837	441.417483
2582.359732	441.662238
2583.800162	439.341259
2585.241940	437.876923
2586.681857	436.517483
2588.123122	436.508392
2589.560926	435.436364
2591.001679	437.512587
2592.437369	442.013986
2593.876009	441.125175
2595.312792	442.551748
2596.747718	443.555944
2598.185593	445.241958
2599.618410	444.432867
2601.052573	442.160140
2602.484883	441.886713
2603.918539	443.087413
2605.350342	442.039161
2606.781892	437.749650
2608.213188	438.452448
2609.642633	440.255944
2611.071825	437.906993
2612.499166	437.938462
2613.927854	441.072028
2615.356289	440.961538
2616.781277	440.467133
2618.207612	443.537063
2619.632098	446.167832
2621.057930	448.981119
2622.480318	447.827972
2623.904052	445.165035
2625.325940	444.753846
2626.747577	446.252448
2628.167369	446.086713
2629.588507	443.141259
2631.009395	444.680420
2632.426845	442.269231
2633.847234	444.067832
2635.264186	447.554545
2636.680890	438.816783
2638.097345	451.076224
2639.513552	458.796503
2640.929510	466.983916
2642.343628	471.437762
2643.757499	478.288112
2645.169530	483.120280
2646.582906	482.021678
2647.992852	481.458042
2649.405733	478.546853
2650.815187	474.998601
2652.224394	466.374825
2653.631765	456.203497
2655.042070	467.957343
2656.450539	466.829371
2657.857173	469.344056
2659.263562	470.130769
2660.668117	470.884615
2662.074016	475.190909
2663.478082	477.265734
2664.881904	479.331469
2666.285481	481.460839
2667.687226	486.225175
2669.090315	485.368531
2670.489987	490.388112
2671.891001	492.422378
2673.288600	494.646154
2674.689129	496.969231
2676.086243	496.460140
2677.484700	494.040559
2678.881329	496.909091
2680.277716	494.677622
2681.673862	491.026573
2683.068181	488.584615
2684.463843	487.878322
2685.856095	485.913287
2687.249691	487.066434
2688.641462	484.622378
2690.034575	485.090210
2691.425865	485.086713
2692.815332	481.850350
2694.204560	481.075524
2695.593547	481.819580
2696.983877	481.077622
2698.369222	481.793706
2699.757491	480.379021
2701.143940	480.133566
2702.530150	482.416084
2703.916122	480.513287
2705.298695	478.620979
2706.682609	477.423077
2708.066286	473.062238
2709.449725	468.362937
2710.829768	465.886713
2712.211153	462.505594
2713.590722	462.069231
2714.971633	458.734266
2716.350729	456.534965
2717.728010	453.690909
2719.106633	452.946154
2720.483443	447.429371
2721.860017	446.184615
2723.236355	444.260839
2724.610881	439.664336
2725.986748	438.502797
2727.359228	435.545455
2728.734625	432.605594
2730.105060	433.540559
2731.476837	428.455245
2732.848380	426.913986
2734.218114	424.175524
2735.589188	423.193007
2736.958455	420.083217
2738.327488	420.011189
2739.694714	419.106294
2741.061708	417.506294
2742.428469	415.705594
2743.794997	413.792308
2745.159720	414.554545
2746.524212	412.211888
2747.888471	408.546853
2749.252499	407.593007
2750.616294	408.502098
2751.976716	407.260839
2753.340049	404.786713
2754.698439	402.704196
2756.059739	404.109091
2757.417668	404.528671
2758.778507	402.841259
2760.137545	399.104196
2761.493215	392.942657
2762.851793	391.788811
2764.207005	390.684615
2765.561987	393.372028
2766.915172	394.621678
2768.271264	393.327273
2769.623992	392.646853
2770.976491	391.594406
2772.328762	391.598601
2773.682372	391.765035
2775.032620	390.584615
2776.381075	384.944755
2777.732434	382.951049
2779.080434	383.552448
2780.429773	381.851748
2781.777319	382.629371
2783.124638	379.015385
2784.471731	376.156643
2785.817033	373.862937
2787.162109	370.770629
2788.506959	372.122378
2789.851582	376.201399
2791.192854	381.449650
2792.535464	380.776224
2793.877848	382.901399
2795.220008	379.354545
2796.558818	379.500699
2797.900527	378.156643
2799.238889	376.422378
2800.578588	375.155245
2801.916501	373.143357
2803.252630	370.911888
2804.588536	374.049650
2805.925778	373.977622
2807.261237	375.691608
2808.596473	373.369930
2809.929927	374.033566
2811.264717	373.060839
2812.596166	374.286014
2813.930511	374.378322
2815.259958	374.355944
2816.590742	373.898601
2817.921304	373.321678
2819.250087	373.697203
2820.580207	373.878322
2821.908547	372.384615
2823.236667	371.502098
2824.563010	371.186713
2825.890688	372.302797
2827.215034	370.012587
2828.540715	368.685315
2829.864621	364.409091
2831.188308	362.938462
2832.513330	361.051049
2833.835023	360.685315
2835.156496	362.818182
2836.477751	360.000000
2837.798787	361.874825
2839.118051	360.480420
2840.438650	359.702797
2841.757477	355.894406
2843.076086	352.492308
2844.392925	353.555944
2845.709546	347.500000
2847.025949	348.644755
2848.340584	349.073427
2849.656553	349.549650
2850.969202	351.611888
2852.283187	351.730070
2853.596955	354.615385
2854.910506	350.239161
2856.222290	346.927972
2857.532309	343.593007
2858.843661	345.280420
2860.151699	345.911189
2861.461072	347.535664
2862.770229	350.555245
2864.079171	352.765734
2865.386350	354.959441
2866.691765	357.155245
2867.998515	358.879720
2869.303502	359.395804
2870.608276	357.346154
2871.911288	357.969231
2873.217182	357.199301
2874.518220	356.934965
2875.820593	358.490210
2877.121206	361.599301
2878.423153	357.193007
2879.724887	357.050350
2881.023317	357.163636
2882.323080	356.255245
2883.621085	358.969231
2884.918879	358.012587
2886.214917	357.427273
2887.512288	355.241958
2888.807903	354.778322
2890.103307	352.143357
2891.398501	352.180420
2892.690396	351.217483
2893.985168	350.428671
2895.276643	348.908392
2896.569452	348.636364
2897.862049	348.830070
2899.151353	353.222378
2900.441989	351.211888
2901.730874	347.697902
2903.021092	348.586713
2904.308018	347.861538
2905.596276	343.571329
2906.882784	343.209790
2908.169085	343.299301
2909.455177	345.113287
2910.739521	341.409790
2912.026737	340.578322
2913.309126	343.375524
2914.592846	345.434266
2915.874821	346.339161
2917.156589	344.255944
2918.436611	348.581119
2919.719503	345.558741
2921.000650	346.567133
2922.278515	346.616084
2923.559249	346.998601
2924.836702	346.239161
2926.113950	338.144755
2927.389455	336.546853
2928.667828	335.685315
2929.941386	331.292308
2931.217812	331.735664
2932.492497	330.202797
2933.765442	332.632168
2935.039717	331.846154
2936.312253	333.239860
2937.584585	334.756643
2938.853644	333.529371
2940.125567	329.220979
2941.395753	323.914685
2942.665736	322.359441
2943.935515	316.287413
2945.203557	315.176224
2946.469864	315.520979
2947.735968	318.435664
2949.003402	321.387413
2950.269102	323.003497
2951.534599	326.239161
2952.799894	329.174825
2954.061924	327.606294
2955.325285	328.460839
2956.588444	329.407692
2957.849870	327.692308
2959.112626	325.325175
2960.373651	327.438462
2961.632945	326.339161
2962.892038	327.976923
2964.150931	326.960839
2965.409624	325.477622
2966.668117	325.304895
2967.924881	321.269930
2969.181445	318.727972
2970.436282	316.766434
2971.692448	314.013986
2972.945358	309.479021
2974.199598	312.352448
2975.453639	312.686014
2976.705954	313.305594
2977.958071	315.388112
2979.208463	315.900699
2980.461710	316.319580
2981.710180	317.357343
2982.961504	318.061538
2984.209580	317.253147
2985.457458	314.339860
2986.705139	313.239860
2987.952624	311.860839
2989.198387	311.179021
2990.443953	308.213287
2991.690848	305.990210
2992.934497	304.332168
2994.179475	302.717483
2995.421210	302.585315
2996.665796	299.105594
2997.908662	303.072028
2999.148288	303.027273
3000.390765	303.691608
3001.630001	305.302797
3002.870565	306.058741
3004.109412	304.319580
3005.348065	304.682517
3006.585002	304.244755
3007.823266	304.120979
3009.059816	303.396503
3010.296171	302.690210
3011.532333	298.089510
3012.766782	298.572028
3014.001037	293.236364
3015.235099	290.412587
3016.467449	288.909790
3017.698087	288.972727
3018.931571	292.296503
3020.163343	293.862937
3021.393405	294.896503
3022.623275	295.206993
3023.851435	293.498601
3025.080921	295.475524
3026.308699	293.797902
3027.536285	291.737762
3028.765197	287.656643
3029.989367	286.718881
3031.216380	288.297203
3032.440170	290.092308
3033.665285	292.435664
3034.888694	289.413287
3036.111914	287.995804
3037.333428	284.738462
3038.557783	284.159441
3039.777403	284.037762
3040.998348	282.285315
3042.219105	280.912587
3043.438158	280.861538
3044.658537	282.386014
3045.875699	283.098601
3047.094186	285.678322
3048.310972	287.306294
3049.527569	286.498601
3050.743979	287.167832
3051.957175	284.225874
3053.173209	283.720280
3054.386031	279.932168
3055.601690	277.738462
3056.812626	276.791608
3058.024887	278.834266
3059.236962	276.559441
3060.448850	273.706294
3061.659040	274.204895
3062.869045	274.329021
3064.078863	272.851748
3065.286985	272.725524
3066.494921	268.732168
3067.701163	267.250699
3068.908728	266.769231
3070.114600	266.452098
3071.320286	269.653846
3072.525787	271.733217
3073.729596	270.056643
3074.934728	268.004545
3076.138167	268.276224
3077.339914	269.632517
3078.541478	270.825175
3079.742858	271.008392
3080.944054	267.651748
3082.143560	266.531469
3083.342882	266.357343
3084.543528	267.241259
3085.742485	270.423077
3086.938246	269.448252
3088.136837	268.274825
3089.332234	266.820979
3090.528954	268.406294
3091.722482	266.465734
3092.918839	265.869231
3094.113508	263.478322
3095.304987	261.326573
3096.500797	262.297203
3097.691914	261.376923
3098.884353	260.534266
3100.073605	261.445455
3101.265683	258.065035
3102.456076	258.933566
3103.643284	260.684615
3104.831815	261.404196
3106.021668	258.916084
3107.208336	255.163636
3108.394825	254.533566
3109.581134	257.099301
3110.768765	258.661538
3111.953215	257.131469
3113.135984	255.764336
3114.321577	255.986713
3115.505489	254.060140
3116.687723	257.803497
3117.869779	256.762238
3119.051656	255.131469
3120.233355	253.773427
3121.413376	247.994406
3122.591721	249.087413
3123.772887	250.006993
3124.950877	250.479720
3126.128690	251.302797
3127.306326	252.248252
3128.482287	254.257343
3129.658072	255.122378
3130.835177	258.451748
3132.010608	257.517483
3133.184366	258.082517
3134.356452	257.555245
3135.529858	256.852448
3136.703089	255.597902
3137.874647	255.647552
3139.047527	254.907692
3140.217239	252.927273
3141.388272	252.891608
3142.557634	249.926573
3143.725327	248.009790
3144.895835	249.101399
3146.061684	250.275524
3147.231843	249.487413
3148.397344	250.401399
3149.562672	254.098601
3150.727826	253.134965
3151.892806	252.341958
3153.059107	250.790210
3154.220754	247.834266
3155.383722	248.470629
3156.546516	246.226573
3157.709138	245.918182
3158.870095	247.310490
3160.030879	248.799301
3161.191491	245.812587
3162.350440	244.633566
3163.509216	245.125175
3164.667821	242.074126
3165.826254	237.925874
3166.984515	236.173427
3168.141114	233.815385
3169.296052	235.009091
3170.452309	235.214685
3171.606906	235.468531
3172.761331	236.741259
3173.914097	237.756643
3175.066693	237.834965
3176.219118	237.360140
3177.371374	240.299301
3178.523460	240.786014
3179.672399	240.610490
3180.824145	240.148951
3181.974234	239.395105
3183.122665	238.760140
3184.270928	237.874126
3185.419021	235.542657
3186.566946	234.202797
3187.713216	232.679021
3188.859317	231.365734
3190.003763	231.431469
3191.148042	234.023077
3192.292153	235.408392
3193.437582	235.842657
3194.579872	238.205594
3195.721994	238.436364
3196.863950	238.242657
3198.005738	235.675524
3199.147359	235.570629
3200.285844	235.003497
3201.425647	234.685315
3202.566768	233.364336
3203.704754	234.792308
3204.841091	234.079021
3205.977262	234.723077
3207.114751	235.081119
3208.250591	234.755944
3209.387747	230.363636
3210.520291	229.818182
3211.657117	226.032168
3212.789331	227.314685
3213.922863	226.848951
3215.056229	231.453147
3216.186468	230.618881
3217.319505	230.034965
3218.449416	227.490210
3219.580644	226.700699
3220.708746	223.010490
3221.839645	218.575524
3222.968901	216.852448
3224.096512	217.372727
3225.221002	215.849650
3226.349767	217.830070
3227.475410	220.871329
3228.600890	227.866434
3229.724729	228.851748
3230.851362	228.791608
3231.973398	228.267133
3233.096750	226.318182
3234.219940	220.304196
3235.342968	219.162937
3236.464356	217.841958
3237.585583	218.796503
3238.705171	214.434266
3239.824598	215.076224
3240.942387	215.909091
3242.062969	219.176923
3243.180436	221.201399
3244.297744	219.211189
3245.414890	221.104895
3246.530401	220.792308
3247.647227	219.791608
3248.760942	221.214685
3249.877448	222.118182
3250.992318	225.209091
3252.104080	221.923077
3253.215683	223.130769
3254.328600	219.411189
3255.441359	222.974126
3256.551011	222.924476
3257.661978	220.667133
3258.772786	220.051748
3259.881962	218.183217
3260.989507	222.661538
3262.098367	226.379720
3263.207068	230.488811
3264.312667	232.535664
3265.419581	230.804196
3266.524865	227.448252
3267.631463	225.584615
3268.734961	226.677622
3269.839773	221.208392
3270.944428	216.106294
3272.045984	210.389510
3273.147385	209.622378
3274.250099	214.395105
3275.352656	215.250350
3276.452118	215.780420
3277.554362	213.406294
3278.653512	211.307692
3279.751036	210.676923
3280.848405	211.425175
3281.948557	206.950350
3283.045615	206.383217
3284.142518	206.277622
3285.239267	206.340559
3286.331456	207.868531
3287.427895	207.885315
3288.522711	206.519580
3289.617372	204.882517
3290.710412	203.350350
3291.803298	202.230070
3292.894563	199.413986
3293.987141	199.573427
3295.078098	198.911189
3296.167437	201.691608
3297.256621	202.866434
3298.347119	203.869930
3299.434532	205.593007
3300.521793	204.624476
3301.610366	202.967133
3302.698786	204.532168
3303.782659	204.624476
3304.870774	202.332867
3305.955808	198.935664
3307.039226	198.760140
3308.123955	200.051748
3309.207070	199.596503
3310.291496	199.392308
3311.372844	199.545455
3312.455504	202.072028
3313.536550	201.452448
3314.617445	201.693706
3315.696727	203.343357
3316.775858	201.920979
3317.856300	199.511888
3318.933669	195.939161
3320.012349	193.710490
3321.089417	192.830769
3322.166335	191.875524
3323.241642	190.960839
3324.316800	193.536364
3325.393270	195.074126
3326.466668	194.588811
3327.539918	194.967133
3328.614479	195.209790
3329.687430	194.725874
3330.758774	193.816084
3331.831428	193.070629
3332.901015	193.668531
3333.971913	193.906993
3335.041204	197.308392
3336.111806	196.385315
3337.180801	200.095804
3338.248190	201.203497
3339.313974	197.993706
3340.383984	201.273427
3341.450931	201.576923
3342.514816	200.831469
3343.581469	198.416783
3344.646517	195.736364
3345.709963	193.355245
3346.773261	191.923776
3347.836414	187.895105
3348.899420	183.676224
3349.962279	186.300000
3351.023537	187.744755
3352.081738	188.581119
3353.144160	194.516783
3354.203525	193.881818
3355.262745	194.678322
3356.323275	191.564336
3357.379295	190.930769
3358.438080	188.947552
3359.492357	187.159441
3360.549397	182.593706
3361.604840	180.901399
3362.661591	182.362937
3363.716745	184.097203
3364.770301	185.823077
3365.822260	186.251049
3366.876981	187.861538
3367.928653	188.369930
3368.980182	185.440559
3370.033020	188.800000
3371.082810	187.851748
3372.133908	183.597203
3373.181961	183.621678
3374.232774	182.451748
3375.280541	183.273427
3376.328166	180.810490
3377.375649	179.690210
3378.421538	181.149650
3379.468736	182.802098
3380.512892	181.646853
3381.559806	181.441958
3382.605128	182.426573
3383.647410	182.737762
3384.689550	181.533566
3385.732998	183.654545
3386.776306	184.399301
3387.818023	181.895804
3388.859599	179.527972
3389.901035	178.472727
3390.940881	178.858042
3391.979140	178.353846
3393.018706	177.909790
3394.058131	179.518881
3395.095970	178.828671
3396.132221	181.633566
3397.168332	180.526573
3398.205751	177.847552
3399.240137	177.197902
3400.275830	174.892308
3401.311384	175.619580
3402.343907	172.520979
3403.379183	172.646853
3404.411428	174.472028
3405.443535	177.170629
3406.474058	175.809091
3407.505889	173.248951
3408.537580	173.237063
3409.566245	170.769930
3410.594771	170.558741
3411.624605	172.127273
3412.654300	172.418182
3413.680970	172.918182
3414.708947	171.667133
3415.733899	174.125874
3416.761601	175.647552
3417.786280	174.018182
3418.812265	171.206993
3419.836670	172.079720
3420.860939	171.229371
3421.883629	170.643357
3422.906183	174.176224
3423.930043	173.693007
3424.950883	174.895804
3425.971588	175.441459
3426.993598	174.810714
3428.012590	172.516683
3429.031447	168.072478
3430.051609	160.991209
3431.068755	150.785989
