-118.448435	19.342582
-115.778835	16.483516
-113.112170	13.695355
-110.446257	11.074426
-107.783276	8.717058
-105.118866	6.719580
-102.457386	5.178322
-99.794476	6.003497
-97.136674	4.657343
-94.477441	4.771329
-91.818958	4.590909
-89.163398	6.948951
-86.506410	8.498601
-83.854519	13.122378
-81.201199	14.174126
-78.550799	19.685315
-75.898969	20.514685
-73.252230	20.897902
-70.604061	17.653846
-67.956636	16.155944
-65.312124	13.567832
-62.666184	13.116084
-60.025325	11.779720
-57.383037	11.366434
-54.743657	9.951748
-52.102849	12.713287
-49.462781	11.189510
-46.827785	13.028671
-44.191360	9.690909
-41.557839	12.086713
-38.922889	9.083916
-36.293004	9.914685
-33.659527	12.761538
-31.031112	17.301399
-28.403430	16.571329
-25.774321	14.745455
-23.150268	-10.237063
-20.522626	-91.711189
-17.900037	-341.367832
-15.278180	-402.039860
-12.657053	317.602797
-10.036656	1525.718182
-7.419147	2525.148951
-4.800210	3224.424476
-2.184159	3615.516783
0.431164	3697.787413
3.045760	3472.013986
5.657473	2945.750350
8.270615	2127.303497
10.878723	1083.586014
13.490413	-3.860839
16.097072	-558.154545
18.705159	-346.367832
21.312522	-19.082517
23.914860	24.476923
26.520776	23.859441
29.121670	21.324476
31.723992	20.519580
34.321297	21.881818
36.922177	23.625175
39.518043	20.971329
42.115336	20.541259
44.711910	16.984615
47.303475	18.837063
49.896468	19.544755
52.486600	19.494406
55.078160	22.369930
57.666860	22.642657
60.256987	22.352448
62.842116	26.493706
65.428671	26.418881
68.014513	26.139860
70.597501	22.894406
73.181915	21.993706
75.759201	20.431469
78.340053	18.851049
80.918056	19.193007
83.495349	21.495804
86.074068	22.585315
88.647806	25.460839
91.222970	26.947552
93.795291	30.156643
96.366904	26.852448
98.935677	27.270629
101.505877	24.593706
104.073239	25.328671
106.642026	18.739860
109.207977	8.821678
111.771093	0.126573
114.337765	26.623776
116.895216	101.516084
119.458352	211.168531
122.016529	325.603497
124.578259	435.029371
127.135034	544.012587
129.693234	670.860140
132.246482	808.131469
134.799031	962.938462
137.355131	1117.973427
139.906284	1271.156643
142.456738	1415.351748
145.006496	1563.569930
147.553434	1690.284615
150.099676	1773.897203
152.647344	1801.674825
155.194317	1796.651748
157.736353	1784.816783
160.277696	1792.941958
162.818346	1824.580420
165.360422	1904.939860
167.899687	2036.191608
170.436142	2217.282517
172.971907	2441.146853
175.509097	2715.222378
178.045595	3046.036364
180.579288	3496.727273
183.110178	4105.909091
185.640379	4949.486014
188.172005	6093.969930
190.700830	7559.545455
193.226856	9350.280420
195.752197	11330.324476
198.278962	13292.198601
200.802930	14984.404895
203.326214	16165.528671
205.848813	16668.325874
208.368619	16418.880420
210.887742	15480.993706
213.406182	13976.657343
215.926046	12137.086713
218.438909	10208.691608
220.955303	8397.818182
223.471015	6889.447552
225.981838	5697.303497
228.494085	4807.283217
231.003549	4149.265734
233.512335	3655.245455
236.020443	3275.595804
238.529974	2970.211888
241.034625	2724.740559
243.538601	2513.934266
246.044000	2336.025175
248.544524	2204.581119
251.048571	2231.810490
253.545648	2456.564336
256.046247	2763.386014
258.544075	3014.999301
261.041230	3157.844755
263.537712	3176.306993
266.029331	3070.083217
268.524470	2831.006294
271.016843	2485.122378
273.508545	2054.536364
275.997483	1597.008392
278.487846	1213.557343
280.975447	1029.178322
283.460288	1003.869930
285.948643	1019.030769
288.430059	1007.869930
290.914989	990.119580
293.395074	968.804196
295.878671	950.706294
298.357425	929.397902
300.837603	918.258042
303.315028	907.532168
305.791790	901.425874
308.267889	902.674126
310.741239	915.111189
313.213927	929.744755
315.685954	946.211888
318.157320	959.688112
320.625942	966.044755
323.093904	964.741259
325.563289	958.556643
328.027850	946.136364
330.495916	929.431469
332.959162	902.102797
335.421750	856.433566
337.883682	796.506993
340.344957	836.648252
342.803498	1177.124476
345.263461	1773.888811
347.720691	2379.751748
350.177267	2843.974825
352.633189	3137.133566
355.086382	3240.799301
357.540996	3149.728671
359.990809	2873.317483
362.444119	2422.718881
364.892629	1844.521678
367.340489	1259.876224
369.789770	869.883217
372.234258	798.572028
374.680168	872.216084
377.125429	898.437762
379.567970	934.458741
382.009864	1063.795804
384.451111	1244.561538
386.889642	1412.358042
389.329595	1570.950350
391.766834	1720.981119
394.201361	1837.332867
396.639376	1887.174126
399.072614	1856.489510
401.507274	1747.807692
403.937160	1583.286713
406.370532	1403.329371
408.799134	1278.811189
411.227095	1227.253846
413.656476	1188.118182
416.081092	1146.963636
418.507130	1148.413986
420.932527	1192.141259
423.357284	1246.203497
425.777283	1294.975524
428.198703	1350.250350
430.617426	1418.595804
433.037570	1511.927273
435.455019	1624.258741
437.873888	1758.032867
440.290064	1892.649650
442.701493	1981.483217
445.116398	2001.023077
447.528613	2561.934266
449.940194	5158.480420
452.351141	10791.106993
454.759402	19261.560839
457.167030	28471.948951
459.574027	36302.374825
461.980391	41580.669231
464.384073	43767.504895
466.787125	42684.404196
469.189547	38416.817483
471.591340	31406.751748
473.990454	22656.297902
476.390988	14077.270629
478.790893	7808.927273
481.186075	4616.801399
483.584724	3845.974825
485.978653	3747.000699
488.371956	3550.367133
490.764633	3269.360140
493.156685	2986.565035
495.550156	2784.983916
497.938914	2719.511189
500.325006	2739.021678
502.712518	2766.695804
505.099406	2767.184615
507.483631	2736.631469
509.869275	2658.004196
512.252256	2529.493706
514.632577	2343.097203
517.014317	2106.639161
519.393398	1841.608392
521.773898	1595.814685
524.151740	1447.217483
526.526927	1403.290210
528.901496	1391.381818
531.277484	1364.542657
533.650818	1336.144056
536.025570	1309.083916
538.395637	1283.053846
540.765088	1252.556643
543.135957	1228.796503
545.502146	1199.623776
547.869753	1170.478322
550.234714	1142.267832
552.599062	1113.625874
554.962798	1087.000699
557.327951	1062.287413
559.688431	1037.502797
562.050330	1015.937762
564.409589	999.027273
566.766209	985.339860
569.126274	973.730769
571.479649	968.276923
573.836468	961.750350
576.190651	960.101399
578.544227	955.760839
580.897194	948.041259
583.247530	945.253147
585.599282	946.723776
587.944358	952.817483
590.294898	952.372727
592.638765	949.095804
594.988092	946.073427
597.332772	940.909091
599.674826	933.476923
602.018298	924.495804
604.359147	916.230070
606.699394	901.016783
609.037020	887.337063
611.378081	876.955944
613.714504	872.179021
616.052345	868.093007
618.387567	862.086014
620.720174	857.260839
623.054197	857.960140
625.385607	854.530070
627.716418	850.123077
630.046631	843.400699
632.376246	843.738462
634.701239	842.096503
637.031673	839.476224
639.357485	835.154545
641.680691	832.058042
644.005312	826.620280
646.327329	825.109091
648.648751	819.993007
650.967570	815.139161
653.287805	806.930769
655.607447	798.874825
657.924488	789.449650
660.240937	787.448252
662.554788	786.161538
664.870055	784.513287
667.182725	782.397203
669.496810	781.006993
671.806295	782.318881
674.117196	786.397203
676.425504	790.079720
678.733224	803.853846
681.042359	822.943357
683.346901	864.755245
685.650856	927.284615
687.954226	1003.313287
690.259010	1074.255944
692.559208	1127.069231
694.860820	1153.003497
697.161848	1147.337762
699.458293	1120.909091
701.756154	1068.960839
704.053431	1000.655944
706.350125	934.793706
708.642243	869.018881
710.937772	830.869930
713.228728	808.446853
715.521098	801.463636
717.810892	797.496503
720.100107	795.708392
722.388741	791.294406
724.674804	789.076923
726.962280	787.771329
729.247186	787.318182
731.531513	790.843357
733.813272	794.658741
736.096445	793.837063
738.379041	795.940559
740.657082	793.389510
742.936536	797.478322
745.215415	796.558042
747.493718	797.800699
749.767472	794.412587
752.042640	795.392308
754.317234	792.053147
756.589268	797.821678
758.862716	800.920280
761.133606	803.232168
763.401940	807.088811
765.671687	815.275524
767.938880	822.168531
770.205502	829.062937
772.471555	833.729371
774.735055	841.309091
776.999969	846.185315
779.264313	858.268531
781.524128	872.518182
783.785356	894.827273
786.046015	915.712587
788.304129	937.754545
790.559698	957.921678
792.818658	988.100000
795.071119	1077.146853
797.328947	1258.567832
799.582255	1515.547552
801.833024	1781.515385
804.085205	1996.605594
806.334848	2136.081818
808.585902	2178.790210
810.832445	2125.076923
813.080400	1975.003497
815.325821	1752.000000
817.572653	1479.381818
819.818924	1214.519580
822.060691	1031.460140
824.305840	944.824476
826.544517	926.413986
828.786577	923.653846
831.024138	920.027972
833.263110	915.183217
835.499556	907.177622
837.737413	904.868531
839.972745	902.209790
842.205554	905.474126
844.439774	904.576224
846.671472	904.583217
848.902615	904.504196
851.133203	902.126573
853.363236	897.785315
855.592716	894.572028
857.817714	884.299301
860.046087	872.984615
862.269981	863.466434
864.495285	858.716084
866.716114	849.488811
868.940315	844.513287
871.160043	839.530769
873.381182	839.002098
875.601770	841.841958
877.819848	847.150350
880.039337	851.623776
882.254359	862.994406
884.468833	870.418182
886.682760	876.053147
888.896139	880.153147
891.108971	883.262937
893.321257	880.493007
895.531040	878.865734
897.740278	876.337063
899.948971	868.933566
902.155165	858.902098
904.362768	852.694406
906.567874	845.433566
908.772436	846.174126
910.974502	843.595804
913.177978	842.959441
915.378960	846.629371
917.579401	848.272028
919.781249	847.234965
921.976707	849.946853
924.175524	846.288811
926.369902	838.397203
928.567638	830.700699
930.760938	825.079720
932.955647	816.290909
935.147870	813.434965
937.339555	810.167832
939.530702	808.391608
941.719366	808.654545
943.907493	809.793706
946.093140	809.744755
948.282139	814.447552
950.466715	809.989510
952.650756	810.831469
954.838147	814.434965
957.017234	812.213287
959.199672	809.984615
961.381576	812.120280
963.561006	814.046154
965.737963	808.797902
967.916327	808.445455
970.096099	808.995804
972.269522	802.817483
974.446291	800.107692
976.618653	792.828671
978.792423	789.853846
980.961789	787.929371
983.134500	783.159441
985.304744	782.660839
987.474460	784.897902
989.643647	789.936364
991.808437	788.954545
993.976568	790.158042
996.140305	796.292308
998.305448	792.251049
1000.468133	796.321678
1002.630291	796.237063
1004.789993	793.826573
1006.949171	793.032168
1009.109755	795.201399
1011.267884	794.342657
1013.425489	795.908392
1015.582571	796.774825
1017.739130	795.623776
1019.891309	798.315385
1022.044894	801.837063
1024.197958	797.495105
1026.348574	803.130070
1028.500595	805.513287
1030.648243	807.291608
1032.799223	813.404895
1034.945832	819.249650
1037.091923	821.843357
1039.237494	826.030769
1041.384471	831.628671
1043.525159	835.448252
1045.669177	840.220280
1047.810754	842.474126
1049.951815	845.627972
1052.094280	854.680420
1054.230466	868.646853
1056.369978	884.381119
1058.505134	900.821678
1060.643615	916.418881
1062.777742	923.953147
1064.911356	932.016783
1067.046375	946.693007
1069.177044	991.677622
1071.309118	1090.021678
1073.438763	1229.312587
1075.567896	1367.262937
1077.696517	1476.683217
1079.824627	1541.156643
1081.950311	1552.297203
1084.075485	1509.258741
1086.202063	1413.835664
1088.324304	1274.785315
1090.447948	1122.512587
1092.567259	976.572028
1094.691798	882.442657
1096.810092	844.380420
1098.929791	840.920280
1101.047071	838.872727
1103.163845	836.597902
1105.280112	826.083217
1107.393964	818.983217
1109.509219	812.722378
1111.620152	806.056643
1113.734396	801.951748
1115.844320	802.076923
1117.955648	798.339860
1120.066471	799.566434
1122.172979	797.763636
1124.282795	796.279720
1126.388297	793.509091
1128.495202	794.230070
1130.595892	793.223776
1132.701794	802.407692
1134.803387	810.595105
1136.906383	820.051049
1139.008878	831.016783
1141.105166	841.048951
1143.206662	857.209790
1145.303855	886.461538
1147.400549	944.766434
1149.496745	1048.383916
1151.592444	1189.930070
1153.687645	1344.955245
1155.780449	1472.726573
1157.874655	1556.205594
1159.962670	1580.648951
1162.055883	1544.501399
1164.142908	1454.366434
1166.233232	1318.312587
1168.319269	1163.340559
1170.408603	1011.650350
1172.491756	893.063636
1174.576311	825.958741
1176.662268	799.516783
1178.743943	794.753147
1180.827020	787.862238
1182.907711	786.239860
1184.987910	785.793007
1187.067618	786.009091
1189.146835	784.184615
1191.223670	786.587413
1193.298124	788.316783
1195.375870	790.754545
1197.449345	790.913986
1199.524221	788.099301
1201.594830	787.919580
1203.666841	786.906294
1205.736475	782.817483
1207.807510	784.172028
1209.878057	787.581119
1211.944343	788.603497
1214.012030	793.049650
1216.077345	802.938462
1218.144060	814.097203
1220.206519	831.916084
1222.272263	847.827972
1224.333754	862.948252
1226.396644	874.062238
1228.457167	874.500699
1230.517206	871.588811
1232.576763	865.746853
1234.633954	852.833566
1236.690664	834.763636
1238.745011	816.339161
1240.802638	797.645455
1242.857903	783.005594
1244.908927	776.465035
1246.961351	771.810490
1249.013295	770.129371
1251.062881	765.865734
1253.111988	765.021678
1255.160617	762.699301
1257.208767	763.779021
1259.256439	763.095105
1261.299880	760.886014
1263.346596	754.691608
1265.390959	752.136364
1267.434846	750.239860
1269.476382	750.301399
1271.515567	750.377622
1273.558026	745.253147
1275.596262	743.070629
1277.635897	742.414685
1279.675057	736.779720
1281.709998	732.633566
1283.746339	732.253147
1285.780334	728.569930
1287.815728	726.188112
1289.846908	727.888112
1291.879487	730.853846
1293.911593	732.733566
1295.941359	732.200000
1297.972523	728.899301
1299.999479	730.047552
1302.027833	730.633566
1304.051983	725.269930
1306.079397	721.326573
1308.102609	720.997203
1310.127219	719.140559
1312.149495	721.362937
1314.173168	724.475524
1316.194508	727.475524
1318.215380	729.070629
1320.235786	727.776923
1322.251997	729.284615
1324.269606	727.934266
1326.284888	729.694406
1328.303427	728.064336
1330.317778	728.106294
1332.329803	727.902098
1334.345085	731.837762
1336.356182	731.990909
1338.368676	730.774825
1340.376987	725.080420
1342.388554	722.693007
1344.394081	722.057343
1346.402864	718.116084
1348.407469	714.709790
1350.415328	717.866434
1352.422725	716.981119
1354.424091	716.462238
1356.426854	717.992308
1358.429156	719.910490
1360.430999	717.941259
1362.432382	715.661538
1364.431452	713.006993
1366.430063	712.986713
1368.428216	712.718881
1370.425911	710.109091
1372.419442	708.337063
1374.414370	707.608392
1376.408841	704.700699
1378.402855	701.465734
1380.394561	697.556643
1382.385813	693.328671
1384.374759	693.567832
1386.365100	692.781818
1388.354986	692.185315
1390.342569	689.799301
1392.329697	687.751748
1394.314525	688.361538
1396.300746	685.556643
1398.284668	688.172028
1400.268137	691.525175
1402.251154	692.446853
1404.231872	690.310490
1406.213986	688.743357
1408.193802	692.249650
1410.173168	693.995105
1412.148394	693.866434
1414.126860	695.613986
1416.103031	693.781818
1418.078754	696.497902
1420.054027	697.413287
1422.027009	703.023776
1423.999543	707.453846
1425.971630	704.888112
1427.943268	703.084615
1429.910778	701.006993
1431.883363	700.030769
1433.848141	702.807692
1435.817991	699.786014
1437.783718	701.065734
1439.750837	696.593007
1441.715673	697.603497
1443.676390	699.006294
1445.642174	701.086014
1447.602003	701.260839
1449.563225	699.483916
1451.525840	700.298601
1453.484340	700.821678
1455.442398	700.796503
1457.400013	702.540559
1459.357187	698.416783
1461.312085	699.837063
1463.268375	695.588811
1465.222391	695.793007
1467.175967	696.169231
1469.127270	692.874825
1471.079965	690.134266
1473.030389	692.270629
1474.980373	690.127972
1476.929919	692.453147
1478.877196	692.506993
1480.822206	694.707692
1482.768607	694.488112
1484.714572	695.490210
1486.660098	694.777622
1488.603360	694.277622
1490.546185	693.666434
1492.486747	687.362937
1494.428700	684.490210
1496.368392	683.448951
1498.307648	681.811189
1500.246469	686.053147
1502.183031	686.872727
1504.120984	689.881119
1506.056679	689.651748
1507.991939	695.391608
1509.924944	698.166434
1511.857516	700.793706
1513.789656	700.574126
1515.721364	696.511189
1517.650818	694.567133
1519.581663	692.577622
1521.512077	688.610490
1523.438417	688.369930
1525.366149	682.814685
1527.291630	682.506294
1529.216682	683.308392
1531.141305	687.762937
1533.065499	688.571329
1534.987446	690.841259
1536.910782	690.364336
1538.831873	690.347552
1540.750719	692.239161
1542.670955	693.065035
1544.588947	692.894406
1546.506513	694.676923
1548.421837	694.276224
1550.338551	701.430769
1552.251210	701.694406
1554.167073	701.417483
1556.080696	699.665734
1557.992082	698.979720
1559.904856	698.525175
1561.813581	701.195105
1563.723696	702.306993
1565.633387	706.313287
1567.542654	709.613986
1569.449688	712.337762
1571.354489	717.291608
1573.260679	721.938462
1575.164637	720.758042
1577.068175	719.681119
1578.971291	719.270629
1580.872179	718.843357
1582.774454	717.177622
1584.674502	717.797203
1586.575937	714.129371
1588.473339	717.661538
1590.370322	719.774126
1592.266887	723.974126
1594.164840	726.415385
1596.056958	727.609790
1597.952269	728.611888
1599.847163	729.029371
1601.739835	727.979720
1603.632091	723.800699
1605.522126	719.700000
1607.411747	718.343357
1609.300951	715.429371
1611.189741	717.586014
1613.076314	719.220979
1614.964273	719.314685
1616.848216	719.121678
1618.733547	721.599301
1620.618463	720.627972
1622.501166	719.258741
1624.385256	715.733566
1626.265335	711.755944
1628.146800	705.904895
1630.026055	699.447552
1631.906696	695.230769
1633.781533	691.965035
1635.661352	687.645455
1637.537165	686.996503
1639.412568	684.427273
1641.289358	685.429371
1643.160350	684.211189
1645.034524	683.386014
1646.904700	682.862937
1648.778056	681.667133
1650.649209	678.783217
1652.518160	677.287413
1654.388497	673.844755
1656.254840	669.015385
1658.122569	669.341958
1659.988100	670.946154
1661.855015	668.659441
1663.717942	669.622378
1665.582254	670.905594
1667.444370	667.427273
1669.306082	662.860839
1671.169178	662.035664
1673.030080	658.725874
1674.888788	655.144056
1676.747093	646.583217
1678.606783	644.793706
1680.460706	646.163636
1682.317801	651.094406
1684.174494	652.283916
1686.027211	654.002098
1687.883098	654.014685
1689.735012	651.367832
1691.586525	646.326573
1693.437637	643.841259
1695.288349	637.146154
1697.138660	633.777622
1698.986787	630.824476
1700.836297	631.845455
1702.680059	629.416783
1704.528770	632.248252
1706.371736	631.648252
1708.217867	632.644755
1710.060037	635.773427
1711.905371	636.636364
1713.744965	633.572028
1715.585943	633.705594
1717.428304	631.990210
1719.266709	630.245455
1721.106497	632.341958
1722.944110	630.739161
1724.781327	625.984615
1726.616371	626.025874
1728.452798	625.611888
1730.287053	625.218182
1732.120913	626.553147
1733.954380	629.629371
1735.783900	631.025175
1737.616579	632.326573
1739.445314	632.009091
1741.277207	630.194406
1743.105157	632.614685
1744.932715	630.213986
1746.759881	625.234266
1748.586656	621.801399
1750.413040	614.970629
1752.235487	612.487413
1754.061088	609.697203
1755.882755	615.481818
1757.705804	613.381119
1759.526692	612.406294
1761.347190	612.915385
1763.169070	611.830070
1764.985250	612.257343
1766.804582	612.697902
1768.619987	611.431469
1770.438542	611.176224
1772.253172	607.711189
1774.067416	610.602098
1775.881272	610.932168
1777.694742	618.681119
1779.506059	618.051748
1781.318757	618.567832
1783.131068	616.983916
1784.939462	615.565734
1786.749237	613.679720
1788.555096	615.593706
1790.364101	615.097203
1792.169193	610.973427
1793.975666	607.604196
1795.781755	609.946154
1797.583934	611.211888
1799.389256	618.707692
1801.190670	619.455245
1802.993464	619.492308
1804.792352	616.860140
1806.592621	617.032867
1808.392508	616.704196
1810.190254	616.790210
1811.987618	613.633566
1813.784603	608.218182
1815.581207	605.937063
1817.375672	604.322378
1819.171516	602.579021
1820.961706	603.452448
1822.756792	603.409790
1824.546225	601.319580
1826.338795	597.788112
1828.129230	600.832168
1829.917531	598.814685
1831.708967	595.713287
1833.494757	592.097902
1835.281927	589.418182
1837.066965	590.577622
1838.855137	590.679720
1840.639423	590.409091
1842.421580	593.116783
1844.205115	595.504196
1845.986522	595.462937
1847.769308	596.923077
1849.548214	599.541259
1851.328498	598.376224
1853.106656	598.265035
1854.886193	596.325175
1856.663605	598.769930
1858.438893	601.283217
1860.215560	601.162937
1861.990103	599.948252
1863.766025	600.456643
1865.536326	597.583916
1867.309755	597.134266
1869.081064	595.501399
1870.852003	595.211888
1872.624318	596.642657
1874.391020	595.151748
1876.160848	590.571329
1877.926812	590.307692
1879.695900	589.769231
1881.461126	589.988112
1883.225983	586.732867
1884.992218	585.174126
1886.754594	583.674126
1888.516603	587.607692
1890.278244	585.160140
1892.039519	587.337762
1893.800426	586.141259
1895.560967	583.000699
1897.319398	579.309790
1899.077464	577.857343
1900.833421	574.535664
1902.590756	576.966434
1904.347724	574.302797
1906.102587	578.574825
1907.855344	580.313986
1909.607738	584.581818
1911.361507	582.646154
1913.113173	583.218182
1914.862737	581.898601
1916.613677	582.934965
1918.364253	581.927273
1920.110990	577.654545
1921.859104	575.740559
1923.605118	576.730769
1925.352508	572.226573
1927.097799	574.976923
1928.840993	573.602098
1930.585563	575.557343
1932.328036	572.268531
1934.070149	569.958042
1935.811902	570.553497
1937.553296	573.334266
1939.292596	574.887063
1941.031536	575.062238
1942.770119	576.407343
1944.506609	573.834965
1946.242742	573.061888
1947.980249	577.465035
1949.713934	579.222028
1951.448994	584.206294
1953.181966	584.894056
1954.914581	587.718182
1956.646839	588.596853
1958.378741	588.776923
1960.108557	589.379720
1961.836289	590.423077
1963.565394	586.995105
1965.294145	583.530070
1967.020812	581.126573
1968.747125	579.490210
1970.474811	576.696503
1972.196961	580.631469
1973.922212	580.971329
1975.643657	581.483916
1977.368201	574.596503
1979.090666	573.055944
1980.809327	573.995105
1982.531087	577.030769
1984.249045	574.812587
1985.968376	578.543357
1987.683908	579.004196
1989.404261	579.397902
1991.120814	578.402797
1992.833571	580.545455
1994.549425	579.985315
1996.263205	576.500000
1997.976636	570.486014
1999.687996	573.234965
2001.400729	574.185315
2003.109670	574.716783
2004.821705	569.916783
2006.528230	570.576224
2008.237848	567.105594
2009.945398	567.110490
2011.652601	565.004895
2013.357738	564.806993
2015.062528	564.603497
2016.768690	561.017483
2018.471070	562.145455
2020.174822	566.474825
2021.876510	568.665035
2023.577854	569.353846
2025.278852	567.339161
2026.977790	566.364336
2028.678098	565.993007
2030.374632	569.289510
2032.072537	567.214685
2033.768383	569.053846
2035.467315	569.404196
2037.160761	568.502797
2038.855579	570.437063
2040.550053	573.172028
2042.240759	573.682517
2043.934549	572.965734
2045.624572	569.217483
2047.315966	565.280420
2049.005307	566.944056
2050.696018	566.364336
2052.382966	562.348252
2054.069575	561.275524
2055.757554	560.779720
2057.441773	558.400000
2059.127362	556.658042
2060.812612	556.374825
2062.495814	553.227273
2064.180385	552.556643
2065.859494	549.446853
2067.543388	549.734965
2069.221822	550.227273
2070.903332	548.309790
2072.581092	545.197902
2074.258514	544.583217
2075.937306	546.118182
2077.614056	542.581818
2079.288764	543.777622
2080.964841	543.994406
2082.638878	543.918881
2084.312579	545.006294
2085.985945	540.981818
2087.657273	540.976224
2089.328266	540.334266
2090.998925	538.594406
2092.669249	538.901399
2094.339240	539.292308
2096.007195	536.044755
2097.674817	534.487413
2099.340404	535.051748
2101.007361	538.486014
2102.672283	537.345455
2104.336874	540.209790
2105.999433	540.655944
2107.663360	545.532867
2109.325257	547.737762
2110.986822	549.211888
2112.648056	551.974126
2114.307262	552.532168
2115.966137	551.418881
2117.624683	552.334965
2119.282899	550.982517
2120.937391	551.104196
2122.594948	550.375524
2124.252176	551.735664
2125.905682	552.096503
2127.560556	552.946853
2129.211712	550.355245
2130.865929	552.013986
2132.516430	550.887413
2134.168297	554.067133
2135.814756	554.922378
2137.465970	552.744755
2139.113470	549.790210
2140.762337	546.268531
2142.409186	546.107692
2144.055708	544.861538
2145.701905	544.875524
2147.344394	544.125175
2148.989941	543.963636
2150.631781	544.816783
2152.276678	542.986713
2153.917870	543.212587
2155.558738	545.069231
2157.199282	542.437762
2158.837814	538.575524
2160.477712	533.469231
2162.113910	527.896503
2163.751475	528.525175
2165.388716	524.024476
2167.023948	521.993007
2168.658859	523.138462
2170.293448	521.980420
2171.927715	521.963636
2173.558289	522.372028
2175.191915	526.460839
2176.821849	527.042657
2178.453148	527.927273
2180.082442	528.033566
2181.711417	527.157343
2183.340073	530.218881
2184.968409	527.248252
2186.594742	524.310490
2188.220757	524.748951
2189.844771	522.665734
2191.470149	518.043357
2193.093528	517.339161
2194.718270	515.471329
2196.339332	516.425175
2197.960077	514.880420
2199.582187	517.444755
2201.202299	516.788112
2202.820414	516.969231
2204.438214	516.986014
2206.055699	515.438462
2207.672868	511.719580
2209.289722	511.047552
2210.906261	507.191608
2212.520806	508.355944
2214.133359	504.621678
2215.747276	504.760140
2217.359202	505.455245
2218.972491	507.631469
2220.583790	504.324476
2222.193099	503.810490
2223.803772	504.795105
2225.412456	503.913986
2227.020828	500.684615
2228.627212	502.518881
2230.234960	499.679021
2231.840721	498.047552
2233.446171	496.432867
2235.049636	502.109091
2236.654464	506.737063
2238.257309	508.585315
2239.858170	506.852448
2241.460393	509.562238
2243.060635	511.222378
2244.662239	512.581818
2246.260191	511.005594
2247.859505	508.135664
2249.456839	503.664336
2251.053864	503.100000
2252.652252	503.438462
2254.246991	502.965035
2255.839753	501.883916
2257.433878	501.499301
2259.029364	497.625874
2260.621206	498.341958
2262.212741	496.888811
2263.805637	495.902797
2265.393224	493.624476
2266.985508	487.986713
2268.572484	486.253147
2270.162489	488.080420
2271.747189	486.183916
2273.336583	484.282517
2274.920674	487.234965
2276.506127	491.137063
2278.089610	492.676923
2279.676120	491.713986
2281.258996	492.748951
2282.841568	491.823077
2284.423837	489.106993
2286.002477	484.952448
2287.584140	483.809790
2289.162175	481.474825
2290.743233	479.398601
2292.320665	482.113287
2293.896132	484.851748
2295.474622	486.429371
2297.049488	487.127273
2298.624053	485.625874
2300.198318	486.999301
2301.772282	484.481818
2303.345946	482.686713
2304.919309	481.760839
2306.489054	480.539161
2308.058500	479.304895
2309.630965	475.973427
2311.198154	477.589510
2312.768362	475.767133
2314.334955	475.988112
2315.902908	475.552448
2317.468905	475.067133
2319.034605	474.534965
2320.600008	477.439161
2322.163456	484.155944
2323.728264	488.683217
2325.289464	492.874126
2326.853678	494.258042
2328.412631	490.888811
2329.974597	489.245455
2331.534613	483.321678
2333.094333	480.215385
2334.652104	471.969930
2336.209580	470.300699
2337.766762	466.108392
2339.321997	466.540559
2340.876937	467.686713
2342.431584	468.271329
2343.985937	470.105594
2345.539996	474.405594
2347.093761	472.200000
2348.645583	472.213287
2350.195461	470.801399
2351.748347	471.404895
2353.295991	471.687413
2354.846642	475.907692
2356.393702	475.250350
2357.942121	473.793007
2359.490247	472.167133
2361.034785	474.429371
2362.580681	475.813287
2364.124639	475.439860
2365.669954	472.220979
2367.211684	472.876224
2368.754771	472.203497
2370.295923	469.440559
2371.836785	468.562238
2373.377358	470.227972
2374.917641	472.062238
2376.457636	473.638462
2377.994053	474.339161
2379.533471	477.128671
2381.069312	474.101399
2382.606509	471.629371
2384.140131	473.936364
2385.676754	473.644056
2387.211445	474.031469
2388.744207	469.895105
2390.276682	468.215385
2391.807230	466.676224
2393.340775	467.819580
2394.869109	471.913287
2396.398799	470.397203
2397.928204	470.987413
2399.457323	467.327972
2400.986158	467.441958
2402.509787	465.989510
2404.038053	464.186014
2405.561115	462.636364
2407.088811	460.004895
2408.609668	454.352448
2410.135158	453.221678
2411.657087	456.774825
2413.180372	457.999301
2414.701736	456.663636
2416.221180	460.273427
2417.741979	458.593007
2419.260859	457.772028
2420.779457	454.332867
2422.296138	455.239860
2423.814173	454.334266
2425.331927	453.636364
2426.846130	448.579720
2428.360052	453.546853
2429.873694	454.941259
2431.388691	455.001399
2432.900139	455.790210
2434.412942	458.173427
2435.923832	457.261538
2437.434442	456.091608
2438.943141	451.944755
2440.454827	452.135664
2441.962968	447.923776
2443.470832	446.965734
2444.978418	440.714685
2446.482463	440.757343
2447.989494	439.593706
2449.494616	442.933566
2450.999461	439.970629
2452.502399	441.658042
2454.005060	442.323077
2455.507445	439.249650
2457.007925	437.309790
2458.509758	436.844755
2460.009687	435.684615
2461.509340	435.972028
2463.008717	431.852448
2464.506192	432.667832
2466.001765	432.432867
2467.500319	434.241958
2468.995343	428.804895
2470.491721	429.564336
2471.984571	428.953846
2473.478775	424.886713
2474.972705	421.115385
2476.463112	420.258741
2477.956495	419.279021
2479.447981	418.310490
2480.937570	417.651049
2482.426887	421.371329
2483.914309	420.239161
2485.404706	426.325874
2486.891584	428.731469
2488.379814	431.757343
2489.864528	429.894406
2491.348971	427.436364
2492.834766	423.479021
2494.318668	426.451049
2495.803922	422.741259
2497.284042	420.412587
2498.767134	419.904895
2500.248336	424.561538
2501.729269	423.625874
2503.208313	429.688112
2504.687088	428.358741
2506.165595	425.865035
2507.643834	423.010490
2509.121804	423.626573
2510.596270	422.552448
2512.073704	422.409091
2513.547635	420.843357
2515.022916	421.177622
2516.497931	420.810490
2517.969444	421.574126
2519.442307	419.627972
2520.913288	419.894406
2522.385619	417.567832
2523.852837	421.195804
2525.323020	423.627273
2526.791323	422.004196
2528.259361	424.616084
2529.727134	424.662238
2531.194642	428.325874
2532.661885	429.086014
2534.125636	431.860140
2535.590737	433.025175
2537.053961	431.776923
2538.518535	434.577622
2539.979619	433.595804
2541.442053	437.486014
2542.904224	432.917483
2544.362909	427.709091
2545.826166	428.540559
2547.284326	423.402797
2548.743835	422.251049
2550.198251	421.757343
2551.657236	420.872028
2553.114350	419.686713
2554.569593	416.334266
2556.024575	417.307692
2557.477687	414.298601
2558.932148	414.930070
2560.384740	412.179021
2561.837072	415.468531
2563.287536	417.726573
2564.740956	416.949650
2566.189294	418.390210
2567.640588	419.970629
2569.090015	416.072028
2570.535970	416.822378
2571.984881	411.578322
2573.430320	410.314685
2574.877108	410.116783
2576.322032	410.204196
2577.766699	409.554545
2579.212713	414.011189
2580.655260	411.945455
2582.099155	413.671329
2583.539585	413.095105
2584.981362	414.820280
2586.421280	410.746853
2587.862545	409.479021
2589.300349	404.234965
2590.741102	401.584615
2592.176792	400.329371
2593.615432	397.687413
2595.052215	396.197203
2596.487141	397.853147
2597.925016	392.585315
2599.357832	395.239860
2600.791996	395.012587
2602.224306	396.437762
2603.657962	393.721678
2605.089765	394.522378
2606.521315	391.787413
2607.952611	390.645455
2609.382055	390.864336
2610.811248	392.788112
2612.238589	396.947552
2613.667277	395.753147
2615.095712	394.234266
2616.520700	398.550350
2617.947035	395.445455
2619.371521	396.262238
2620.797353	395.984615
2622.219741	396.627972
2623.643475	397.081818
2625.065362	395.700000
2626.487000	395.691608
2627.906792	398.609091
2629.327930	399.806294
2630.748818	396.500000
2632.166268	397.769930
2633.586657	398.276224
2635.003609	396.432168
2636.420313	399.183916
2637.836768	394.604895
2639.252975	392.866434
2640.668933	391.267133
2642.083051	388.393706
2643.496922	385.779720
2644.908953	386.790909
2646.322329	385.713986
2647.732275	385.560839
2649.145156	385.920979
2650.554610	387.795804
2651.963817	388.769231
2653.371187	387.739161
2654.781493	386.444056
2656.189962	387.557343
2657.596596	386.888112
2659.002985	385.990210
2660.407540	385.347552
2661.813439	388.271329
2663.217505	389.253846
2664.621326	388.097902
2666.024904	387.611189
2667.426649	387.953846
2668.829738	386.641259
2670.229409	387.874825
2671.630424	389.061538
2673.028023	389.183217
2674.428552	387.901399
2675.825666	386.700000
2677.224123	388.116783
2678.620752	391.070629
2680.017139	392.390909
2681.413285	392.151748
2682.807604	391.536364
2684.203266	391.306294
2685.595518	391.427972
2686.989114	393.744755
2688.380885	390.709091
2689.773998	389.139161
2691.165288	386.844056
2692.554755	383.071329
2693.943982	378.620979
2695.332970	378.150350
2696.723300	374.276224
2698.108645	372.111189
2699.496914	371.212587
2700.883363	370.750350
2702.269573	371.417483
2703.655545	375.463636
2705.038117	374.049650
2706.422032	375.527972
2707.805709	375.753846
2709.189148	377.609790
2710.569191	376.437063
2711.950576	377.837762
2713.330145	375.541958
2714.711056	373.470629
2716.090151	373.067133
2717.467433	373.784615
2718.846056	373.112587
2720.222866	371.644056
2721.599440	369.171329
2722.975778	369.685315
2724.350304	370.678322
2725.726171	376.216783
2727.098651	375.979021
2728.474047	377.727972
2729.844483	373.682517
2731.216260	367.871329
2732.587802	367.431469
2733.957536	365.256643
2735.328611	360.382517
2736.697877	356.876923
2738.066911	355.910490
2739.434137	354.989510
2740.801131	352.919580
2742.167892	355.232168
2743.534420	357.265734
2744.899143	357.000000
2746.263635	353.334965
2747.627894	354.100000
2748.991921	353.764336
2750.355717	353.974126
2751.716139	355.770629
2753.079472	358.372727
2754.437862	361.036364
2755.799162	363.286014
2757.157091	361.272028
2758.517930	361.933566
2759.876968	362.743357
2761.232638	360.753846
2762.591216	359.677622
2763.946428	358.444056
2765.301410	352.532867
2766.654595	350.978322
2768.010687	345.153846
2769.363415	345.234965
2770.715914	342.345455
2772.068185	345.504895
2773.421795	342.914685
2774.772043	344.776923
2776.120498	347.338462
2777.471857	350.758741
2778.819857	351.153846
2780.169196	351.023776
2781.516742	348.202797
2782.864061	345.517483
2784.211154	340.616783
2785.556456	337.354545
2786.901532	334.451049
2788.246382	337.623077
2789.591005	335.925175
2790.932277	336.725175
2792.274887	338.020280
2793.617271	341.323077
2794.959431	342.719580
2796.298241	342.939860
2797.639950	340.302098
2798.978312	337.875524
2800.318011	335.690909
2801.655924	333.023776
2802.992053	331.844056
2804.327958	330.848252
2805.665201	330.374126
2807.000660	332.582517
2808.335896	331.783217
2809.669349	336.151049
2811.004140	340.110490
2812.335589	342.233566
2813.669934	344.079021
2814.999381	341.838462
2816.330165	341.696503
2817.660727	340.333566
2818.989510	335.652448
2820.319629	330.206993
2821.647970	327.169930
2822.976090	325.290210
2824.302432	322.562937
2825.630111	325.853846
2826.954457	328.760140
2828.280138	332.291608
2829.604044	333.259441
2830.927731	333.004196
2832.252753	335.356643
2833.574445	332.304196
2834.895919	324.650350
2836.217174	321.630769
2837.538210	318.264336
2838.857474	315.367133
2840.178073	316.325874
2841.496900	315.355245
2842.815509	315.911888
2844.132347	317.196503
2845.448968	317.951748
2846.765372	321.321678
2848.080007	324.258042
2849.395976	324.048951
2850.708625	322.922378
2852.022610	327.137063
2853.336377	326.145455
2854.649929	324.008392
2855.961713	324.593706
2857.271731	322.851748
2858.583084	321.051049
2859.891122	320.020280
2861.200495	315.569231
2862.509652	314.393007
2863.818594	315.168531
2865.125773	315.945455
2866.431188	318.314685
2867.737938	322.286014
2869.042925	322.113986
2870.347699	322.872727
2871.650711	325.696503
2872.956605	328.280420
2874.257643	324.299301
2875.560016	326.306294
2876.860629	322.125175
2878.162576	320.427273
2879.464310	318.369231
2880.762739	317.578322
2882.062503	316.172727
2883.360508	315.167133
2884.658302	312.615385
2885.954340	313.876923
2887.251711	311.890909
2888.547326	311.155245
2889.842730	307.483217
2891.137924	312.839860
2892.429819	312.606294
2893.724591	312.634965
2895.016066	313.701399
2896.308874	314.184615
2897.601472	312.339860
2898.890776	314.737063
2900.181412	314.593007
2901.470297	315.374825
2902.760515	309.660839
2904.047440	309.502098
2905.335699	307.962937
2906.622207	309.312587
2907.908508	310.676224
2909.194600	311.883916
2910.478944	312.269231
2911.766160	308.753147
2913.048548	303.846154
2914.332269	305.087413
2915.614244	301.886713
2916.896012	304.044755
2918.176034	301.419580
2919.458926	303.652448
2920.740073	303.664336
2922.017938	304.997902
2923.298672	306.333566
2924.576125	307.712587
2925.853372	307.473427
2927.128878	306.983916
2928.407251	304.774126
2929.680809	304.464336
2930.957235	302.265734
2932.231920	305.608392
2933.504865	300.619580
2934.779140	298.837762
2936.051676	295.538462
2937.324008	291.733566
2938.593066	287.948951
2939.864990	286.179021
2941.135176	286.241259
2942.405159	290.200000
2943.674938	294.271329
2944.942980	299.358042
2946.209287	303.181818
2947.475391	306.693007
2948.742825	305.153147
2950.008525	306.562937
2951.274022	303.081818
2952.539317	300.898601
2953.801347	299.816084
2955.064708	295.465734
2956.327866	291.881818
2957.589293	292.727972
2958.852049	291.924476
2960.113074	293.424476
2961.372367	290.879021
2962.631461	287.441958
2963.890354	285.497203
2965.149047	285.439860
2966.407540	282.227972
2967.664304	283.313287
2968.920868	287.702797
2970.175705	287.740559
2971.431871	287.666434
2972.684781	288.218881
2973.939021	284.701399
2975.193062	283.848252
2976.445377	280.043357
2977.697494	275.045455
2978.947886	273.908392
2980.201133	273.205594
2981.449603	269.904196
2982.700927	271.852448
2983.949003	275.158741
2985.196881	281.339860
2986.444562	283.821678
2987.692047	285.535664
2988.937810	284.052448
2990.183376	284.205594
2991.430270	283.371329
2992.673920	281.753846
2993.918898	278.339161
2995.160633	277.834266
2996.405218	274.207692
2997.648085	274.767133
2998.887711	273.137063
3000.130187	275.909091
3001.369424	272.006294
3002.609988	272.211189
3003.848835	269.981818
3005.087488	269.372028
3006.324425	269.665035
3007.562689	271.169231
3008.799239	271.416084
3010.035594	273.820979
3011.271756	275.321678
3012.506205	277.365734
3013.740460	274.474825
3014.974522	274.978322
3016.206872	271.429371
3017.437510	272.293007
3018.670994	269.113287
3019.902766	269.126573
3021.132828	269.739860
3022.362698	271.046154
3023.590858	268.888112
3024.820344	267.944056
3026.048122	268.032168
3027.275708	265.100000
3028.504620	261.589510
3029.728790	260.788811
3030.955803	259.014685
3032.179592	264.277622
3033.404708	263.377622
3034.628117	264.300699
3035.851337	267.215385
3037.072851	268.209091
3038.297206	266.946154
3039.516826	269.702098
3040.737771	270.795804
3041.958528	271.011888
3043.177581	271.183217
3044.397960	272.426573
3045.615122	269.897902
3046.833609	271.863636
3048.050394	264.675524
3049.266992	261.205594
3050.483401	261.587413
3051.696598	261.746853
3052.912632	258.950350
3054.125454	260.470629
3055.341113	259.962238
3056.552049	260.020979
3057.764310	259.465035
3058.976385	259.630769
3060.188273	254.438462
3061.398463	255.108392
3062.608467	251.098252
3063.818286	249.458042
3065.026408	249.131818
3066.234344	251.587413
3067.440586	251.007343
3068.648151	254.829371
3069.854023	256.005245
3071.059709	258.776224
3072.265210	259.763986
3073.469018	262.830070
3074.674150	262.938112
3075.877590	264.867133
3077.079337	263.014336
3078.280901	261.823776
3079.482281	258.892308
3080.683477	259.993706
3081.882983	259.158741
3083.082305	260.413287
3084.282951	261.424476
3085.481907	263.092308
3086.677669	261.351049
3087.876260	263.486713
3089.071657	261.617483
3090.268377	260.450350
3091.461905	257.317483
3092.658261	254.486713
3093.852931	251.434965
3095.044410	250.460140
3096.240220	245.075524
3097.431337	244.538462
3098.623776	241.585315
3099.813028	242.643357
3101.005106	243.457343
3102.195499	246.419580
3103.382707	247.188811
3104.571238	251.378322
3105.761091	250.354545
3106.947759	254.781119
3108.134248	254.658741
3109.320557	256.651049
3110.508188	252.655245
3111.692638	252.244056
3112.875407	247.447552
3114.061000	251.437063
3115.244912	249.993007
3116.427146	247.839161
3117.609201	248.066434
3118.791079	250.340559
3119.972778	245.796503
3121.152799	245.988811
3122.331144	240.446853
3123.512310	242.573427
3124.690300	238.453147
3125.868113	237.032168
3127.045749	234.265035
3128.221710	236.442657
3129.397494	236.269231
3130.574600	236.118182
3131.750031	237.937063
3132.923789	241.214685
3134.095875	240.731469
3135.269281	241.209790
3136.442512	241.637063
3137.614070	246.056643
3138.786950	246.749650
3139.956662	246.741259
3141.127695	246.338462
3142.297057	245.584615
3143.464750	247.571329
3144.635258	244.841259
3145.801107	242.478322
3146.971266	243.140559
3148.136767	239.920979
3149.302095	237.234266
3150.467249	233.877622
3151.632229	234.631469
3152.798530	232.941259
3153.960177	232.800699
3155.123145	231.751049
3156.285939	231.737063
3157.448561	232.374825
3158.609518	231.247552
3159.770302	232.130070
3160.930914	235.924476
3162.089863	235.595105
3163.248639	237.031469
3164.407244	236.941958
3165.565677	237.076224
3166.723938	236.102098
3167.880537	236.436364
3169.035475	233.110490
3170.191732	233.017483
3171.346329	230.830070
3172.500754	229.104895
3173.653520	228.460839
3174.806116	230.597902
3175.958541	229.120979
3177.110797	227.191608
3178.262883	224.983217
3179.411822	222.204196
3180.563568	221.030769
3181.713656	220.837762
3182.862088	221.702098
3184.010351	224.418182
3185.158444	229.579720
3186.306369	232.825175
3187.452639	233.086713
3188.598740	237.242657
3189.743186	236.867133
3190.887465	234.600000
3192.031576	233.153846
3193.177005	229.378322
3194.319294	226.401399
3195.461417	225.767133
3196.603372	224.348252
3197.745161	223.047552
3198.886782	222.171329
3200.025267	220.236364
3201.165070	217.327273
3202.306191	221.667832
3203.444177	221.376224
3204.580514	222.027273
3205.716685	222.748951
3206.854174	221.269930
3207.990013	224.508392
3209.127170	227.763636
3210.259714	226.054545
3211.396540	228.002797
3212.528754	226.720979
3213.662286	226.160839
3214.795652	222.964336
3215.925891	222.222378
3217.058928	217.883916
3218.188839	218.038462
3219.320067	211.830070
3220.448169	207.232867
3221.579068	206.688112
3222.708324	207.216783
3223.835935	206.153147
3224.960425	207.401399
3226.089190	204.218881
3227.214833	201.861538
3228.340313	202.097203
3229.464152	200.265035
3230.590785	201.374126
3231.712821	202.443357
3232.836173	203.322378
3233.959363	206.792308
3235.082391	209.258042
3236.203779	213.458042
3237.325006	213.079720
3238.444594	211.745455
3239.564021	212.384615
3240.681810	212.933566
3241.802392	213.550350
3242.919859	210.837762
3244.037167	212.261538
3245.154313	209.449650
3246.269824	211.987413
3247.386650	211.501399
3248.500365	208.785315
3249.616870	210.078322
3250.731741	211.089510
3251.843503	214.171329
3252.955106	215.065734
3254.068023	216.250350
3255.180782	217.413986
3256.290434	221.522378
3257.401400	223.444056
3258.512208	221.613986
3259.621385	220.472727
3260.728930	217.655944
3261.837790	215.658741
3262.946491	216.796503
3264.052090	215.188811
3265.159003	213.235664
3266.264288	208.714685
3267.370886	208.313287
3268.474384	206.812587
3269.579196	210.096503
3270.683851	209.660839
3271.785407	209.637063
3272.886808	208.318182
3273.989522	206.755245
3275.092079	208.476923
3276.191540	207.594406
3277.293785	209.693007
3278.392934	211.204196
3279.490459	210.398601
3280.587828	210.555944
3281.687980	210.008392
3282.785038	210.439161
3283.881941	209.123077
3284.978689	209.362937
3286.070879	207.518182
3287.167317	204.494406
3288.262134	200.300000
3289.356795	198.948951
3290.449835	198.492308
3291.542721	195.949650
3292.633986	193.309091
3293.726564	191.885315
3294.817521	192.299301
3295.906859	195.049650
3296.996044	198.437762
3298.086542	201.056643
3299.173955	202.774825
3300.261216	204.053846
3301.349789	202.762238
3302.438209	206.693706
3303.522082	204.967133
3304.610197	205.671329
3305.695231	203.305594
3306.778648	201.795804
3307.863378	202.970629
3308.946493	205.747552
3310.030919	206.174825
3311.112267	207.479021
3312.194927	206.176923
3313.275973	205.886713
3314.356868	203.089510
3315.436150	204.280420
3316.515281	201.745455
3317.595723	199.800000
3318.673092	196.253846
3319.751771	194.080420
3320.828840	194.811888
3321.905758	196.551748
3322.981065	195.137063
3324.056223	194.960140
3325.132692	193.760839
3326.206091	192.709091
3327.279341	190.590909
3328.353902	191.475524
3329.426853	189.609790
3330.498197	189.025874
3331.570851	189.293007
3332.640438	191.179021
3333.711336	193.213287
3334.780627	194.316783
3335.851229	192.144755
3336.920224	191.983217
3337.987613	194.018182
3339.053397	193.931469
3340.123407	192.411888
3341.190354	193.546853
3342.254239	193.063636
3343.320892	194.095804
3344.385940	193.923077
3345.449385	196.356643
3346.512684	194.492308
3347.575836	193.597203
3348.638842	191.641958
3349.701702	189.644755
3350.762960	190.189510
3351.821161	189.457343
3352.883583	185.900000
3353.942948	188.001399
3355.002168	186.721678
3356.062698	188.197203
3357.118718	188.684615
3358.177503	191.103497
3359.231780	188.987413
3360.288820	192.155944
3361.344263	192.321678
3362.401014	192.715385
3363.456168	192.138462
3364.509724	192.317483
3365.561683	191.118881
3366.616404	191.693706
3367.668076	188.516783
3368.719605	189.635664
3369.772443	188.395804
3370.822233	187.250350
3371.873331	184.687413
3372.921384	186.083916
3373.972197	181.220979
3375.019964	183.195804
3376.067589	181.966434
3377.115071	185.227273
3378.160961	186.782517
3379.208159	188.368531
3380.252315	191.980420
3381.299229	195.278322
3382.344551	195.858042
3383.386833	195.532867
3384.428973	191.727972
3385.472421	188.964336
3386.515729	185.762238
3387.557446	184.795804
3388.599022	182.211189
3389.640458	184.236364
3390.680304	183.897902
3391.718563	184.362937
3392.758129	186.694406
3393.797554	187.571329
3394.835392	188.606294
3395.871643	189.546853
3396.907755	186.481818
3397.945174	188.305594
3398.979560	188.189510
3400.015253	186.769930
3401.050807	186.573427
3402.083330	187.916783
3403.118606	186.083916
3404.150851	184.946154
3405.182958	183.674825
3406.213481	182.183217
3407.245312	181.527273
3408.277003	180.979021
3409.305668	177.900000
3410.334194	178.688811
3411.364028	179.299301
3412.393723	179.100699
3413.420393	178.439860
3414.448370	177.347552
3415.473322	177.085315
3416.501024	176.474825
3417.525703	175.803497
3418.551688	175.302797
3419.576093	177.536364
3420.600362	179.121678
3421.623052	180.895105
3422.645606	182.085315
3423.669466	185.395804
3424.690306	184.879720
3425.711011	183.602897
3426.733021	181.634116
3427.752013	179.111489
3428.770870	176.173127
3429.791032	172.957143
3430.808178	169.601648
