-118.448435	13.517857
-115.778835	11.185714
-113.112170	9.756893
-110.446257	9.014086
-107.783276	8.739985
-105.118866	8.717283
-102.457386	8.728671
-99.794476	7.990210
-97.136674	4.562238
-94.477441	6.666434
-91.818958	3.807692
-89.163398	3.945455
-86.506410	2.804895
-83.854519	4.495804
-81.201199	3.303497
-78.550799	5.036364
-75.898969	4.789510
-73.252230	6.293706
-70.604061	7.226573
-67.956636	8.990909
-65.312124	5.309790
-62.666184	8.791608
-60.025325	6.637063
-57.383037	9.713287
-54.743657	6.694406
-52.102849	6.167133
-49.462781	2.600000
-46.827785	4.148951
-44.191360	4.151049
-41.557839	7.356643
-38.922889	8.358042
-36.293004	10.030769
-33.659527	11.825175
-31.031112	19.818881
-28.403430	17.465035
-25.774321	15.427273
-23.150268	-18.451049
-20.522626	-146.577622
-17.900037	-447.070629
-15.278180	-589.772727
-12.657053	453.480420
-10.036656	2094.350350
-7.419147	3442.958042
-4.800210	4384.825874
-2.184159	4911.148951
0.431164	5017.020979
3.045760	4701.744056
5.657473	3981.079021
8.270615	2862.827273
10.878723	1435.645455
13.490413	-16.897902
16.097072	-814.781119
18.705159	-446.386014
21.312522	-25.333566
23.914860	25.992308
26.520776	28.295105
29.121670	27.836364
31.723992	28.551049
34.321297	26.469231
36.922177	24.299301
39.518043	20.793706
42.115336	21.865035
44.711910	15.724476
47.303475	14.014685
49.896468	11.211189
52.486600	13.672028
55.078160	14.553147
57.666860	19.143357
60.256987	23.051748
62.842116	29.581119
65.428671	28.061538
68.014513	31.683916
70.597501	32.158042
73.181915	33.369930
75.759201	28.930070
78.340053	27.756643
80.918056	25.610490
83.495349	28.713986
86.074068	25.358042
88.647806	24.373427
91.222970	22.457343
93.795291	25.856643
96.366904	24.511888
98.935677	32.311189
101.505877	32.810490
104.073239	36.301399
106.642026	30.261538
109.207977	19.552448
111.771093	12.326573
114.337765	47.549650
116.895216	144.850350
119.458352	290.810490
122.016529	439.425175
124.578259	585.866434
127.135034	730.580420
129.693234	889.155245
132.246482	1070.740559
134.799031	1274.469231
137.355131	1486.253846
139.906284	1694.632168
142.456738	1896.709790
145.006496	2098.580420
147.553434	2275.019580
150.099676	2391.808392
152.647344	2428.267832
155.194317	2418.420979
157.736353	2397.996503
160.277696	2395.769231
162.818346	2441.737063
165.360422	2556.510490
167.899687	2743.288811
170.436142	2983.816084
172.971907	3280.810490
175.509097	3638.030070
178.045595	4090.323776
180.579288	4689.917483
183.110178	5501.111888
185.640379	6619.659441
188.172005	8143.200699
190.700830	10122.896503
193.226856	12551.191608
195.752197	15256.930070
198.278962	17931.266434
200.802930	20215.282517
203.326214	21808.193706
205.848813	22491.509091
208.368619	22160.240559
210.887742	20877.908392
213.406182	18834.872727
215.926046	16336.829371
218.438909	13719.849650
220.955303	11286.783217
223.471015	9255.813986
225.981838	7663.293706
228.494085	6462.608392
231.003549	5567.837063
233.512335	4899.638462
236.020443	4390.860140
238.529974	3978.160839
241.034625	3646.095804
243.538601	3369.744056
246.044000	3130.767133
248.544524	2957.208392
251.048571	2996.661538
253.545648	3290.836364
256.046247	3697.368531
258.544075	4032.264336
261.041230	4222.544056
263.537712	4241.595105
266.029331	4097.930769
268.524470	3786.063636
271.016843	3323.741958
273.508545	2750.143357
275.997483	2140.807692
278.487846	1637.642657
280.975447	1390.433566
283.460288	1350.493007
285.948643	1371.233566
288.430059	1353.377622
290.914989	1327.568531
293.395074	1297.069930
295.878671	1271.792308
298.357425	1247.674825
300.837603	1227.836364
303.315028	1209.790210
305.791790	1203.988112
308.267889	1203.261538
310.741239	1212.938462
313.213927	1227.070629
315.685954	1243.809091
318.157320	1254.779720
320.625942	1269.432168
323.093904	1270.801399
325.563289	1263.065035
328.027850	1251.785315
330.495916	1232.023077
332.959162	1199.694406
335.421750	1143.384615
337.883682	1065.950350
340.344957	1140.860140
342.803498	1598.125175
345.263461	2393.290210
347.720691	3196.312587
350.177267	3827.026573
352.633189	4213.302797
355.086382	4348.862238
357.540996	4225.437762
359.990809	3851.025874
362.444119	3242.214685
364.892629	2473.614685
367.340489	1696.251049
369.789770	1188.227972
372.234258	1079.958042
374.680168	1173.937063
377.125429	1209.345455
379.567970	1260.087413
382.009864	1421.274126
384.451111	1666.230769
386.889642	1887.336364
389.329595	2096.668531
391.766834	2298.448252
394.201361	2464.483916
396.639376	2532.580420
399.072614	2489.242657
401.507274	2338.695105
403.937160	2122.391608
406.370532	1879.364336
408.799134	1710.901399
411.227095	1632.168531
413.656476	1581.347552
416.081092	1521.458042
418.507130	1522.682517
420.932527	1582.887413
423.357284	1661.321678
425.777283	1732.283916
428.198703	1806.240559
430.617426	1901.532168
433.037570	2023.153846
435.455019	2172.374126
437.873888	2360.631469
440.290064	2529.934965
442.701493	2633.286014
445.116398	2685.704895
447.528613	3870.036364
449.940194	8052.409091
452.351141	14803.506294
454.759402	24366.518182
457.167030	35243.165035
459.574027	44688.465035
461.980391	51106.936364
464.384073	53784.928671
466.787125	52490.483916
469.189547	47304.523776
471.591340	38859.111189
473.990454	28516.680420
476.390988	18774.371329
478.790893	11610.442657
481.186075	6891.218881
483.584724	5219.651748
485.978653	5042.858042
488.371956	4775.465734
490.764633	4386.164336
493.156685	3996.948252
495.550156	3730.389510
497.938914	3626.034965
500.325006	3656.254545
502.712518	3695.371329
505.099406	3703.573427
507.483631	3659.765035
509.869275	3563.286014
512.252256	3389.150350
514.632577	3145.469930
517.014317	2825.521678
519.393398	2468.894406
521.773898	2145.974825
524.151740	1952.133566
526.526927	1882.189510
528.901496	1865.040559
531.277484	1832.918881
533.650818	1804.511888
536.025570	1766.684615
538.395637	1736.905594
540.765088	1702.753147
543.135957	1670.895105
545.502146	1633.001399
547.869753	1595.890909
550.234714	1562.223776
552.599062	1525.400699
554.962798	1477.663636
557.327951	1439.313986
559.688431	1403.680420
562.050330	1377.098601
564.409589	1348.489510
566.766209	1331.610490
569.126274	1313.850350
571.479649	1307.086014
573.836468	1296.379720
576.190651	1293.970629
578.544227	1294.644056
580.897194	1293.480420
583.247530	1291.255944
585.599282	1294.497902
587.944358	1298.138462
590.294898	1299.220979
592.638765	1293.664336
594.988092	1287.264336
597.332772	1270.570629
599.674826	1256.847552
602.018298	1234.581119
604.359147	1219.906294
606.699394	1204.658741
609.037020	1189.883916
611.378081	1180.336364
613.714504	1173.969930
616.052345	1168.619580
618.387567	1166.481818
620.720174	1158.553846
623.054197	1154.797203
625.385607	1150.995105
627.716418	1146.330769
630.046631	1139.893007
632.376246	1137.420280
634.701239	1133.841259
637.031673	1135.054545
639.357485	1132.744056
641.680691	1128.483217
644.005312	1126.347552
646.327329	1125.372727
648.648751	1115.739161
650.967570	1108.446853
653.287805	1098.323077
655.607447	1089.680420
657.924488	1074.613287
660.240937	1065.991608
662.554788	1058.323077
664.870055	1056.605594
667.182725	1054.202098
669.496810	1058.239860
671.806295	1063.772028
674.117196	1074.574126
676.425504	1082.350350
678.733224	1093.843357
681.042359	1117.447552
683.346901	1175.058042
685.650856	1251.283217
687.954226	1350.844755
690.259010	1439.229371
692.559208	1503.081818
694.860820	1536.138462
697.161848	1535.958042
699.458293	1493.463636
701.756154	1423.750350
704.053431	1329.002797
706.350125	1228.077622
708.642243	1141.320979
710.937772	1093.101399
713.228728	1072.216783
715.521098	1067.250350
717.810892	1064.465734
720.100107	1062.521678
722.388741	1060.474825
724.674804	1061.269231
726.962280	1057.758741
729.247186	1060.700000
731.531513	1062.092308
733.813272	1059.981119
736.096445	1058.092308
738.379041	1061.844056
740.657082	1062.935664
742.936536	1064.004895
745.215415	1063.761538
747.493718	1063.553147
749.767472	1064.558741
752.042640	1070.755245
754.317234	1074.589510
756.589268	1083.262238
758.862716	1082.583916
761.133606	1085.046154
763.401940	1087.758042
765.671687	1092.889510
767.938880	1096.674126
770.205502	1103.434266
772.471555	1103.226573
774.735055	1112.935664
776.999969	1125.363636
779.264313	1141.900000
781.524128	1161.650350
783.785356	1192.504196
786.046015	1227.567832
788.304129	1264.962238
790.559698	1298.285315
792.818658	1342.608392
795.071119	1460.832867
797.328947	1711.036364
799.582255	2050.369930
801.833024	2410.783217
804.085205	2696.445455
806.334848	2875.140559
808.585902	2923.689510
810.832445	2849.243357
813.080400	2653.468531
815.325821	2352.369231
817.572653	1990.638462
819.818924	1635.724476
822.060691	1383.301399
824.305840	1270.253846
826.544517	1242.023776
828.786577	1242.100699
831.024138	1233.572727
833.263110	1225.847552
835.499556	1215.467133
837.737413	1211.364336
839.972745	1204.334266
842.205554	1210.295804
844.439774	1212.355245
846.671472	1209.922378
848.902615	1203.345455
851.133203	1200.696503
853.363236	1196.062937
855.592716	1187.172727
857.817714	1175.202098
860.046087	1166.406993
862.269981	1157.584615
864.495285	1143.926573
866.716114	1134.030769
868.940315	1136.646853
871.160043	1131.797203
873.381182	1136.176923
875.601770	1140.863636
877.819848	1152.123077
880.039337	1158.206294
882.254359	1168.941958
884.468833	1175.750350
886.682760	1185.164336
888.896139	1189.479021
891.108971	1186.225175
893.321257	1184.579021
895.531040	1179.744056
897.740278	1166.104895
899.948971	1158.638462
902.155165	1145.380420
904.362768	1140.106294
906.567874	1132.848951
908.772436	1136.995105
910.974502	1138.475524
913.177978	1146.684615
915.378960	1151.613287
917.579401	1156.247552
919.781249	1157.430769
921.976707	1157.648951
924.175524	1148.274825
926.369902	1141.511189
928.567638	1126.439860
930.760938	1116.232867
932.955647	1100.425175
935.147870	1094.445455
937.339555	1087.288811
939.530702	1084.208392
941.719366	1082.034965
943.907493	1084.362238
946.093140	1086.523776
948.282139	1096.503497
950.466715	1095.185315
952.650756	1098.346154
954.838147	1096.114685
957.017234	1095.650350
959.199672	1091.067832
961.381576	1095.429371
963.561006	1088.155944
965.737963	1084.390909
967.916327	1080.848951
970.096099	1076.131469
972.269522	1071.416783
974.446291	1071.317483
976.618653	1062.815385
978.792423	1061.590909
980.961789	1059.128671
983.134500	1056.953147
985.304744	1053.687413
987.474460	1054.602098
989.643647	1052.106294
991.808437	1057.278322
993.976568	1057.840559
996.140305	1061.113986
998.305448	1068.067133
1000.468133	1074.016084
1002.630291	1076.329371
1004.789993	1079.802797
1006.949171	1080.534965
1009.109755	1077.439860
1011.267884	1070.074126
1013.425489	1064.803497
1015.582571	1063.220280
1017.739130	1064.096503
1019.891309	1064.006993
1022.044894	1067.597902
1024.197958	1075.417483
1026.348574	1078.548252
1028.500595	1086.709790
1030.648243	1101.325874
1032.799223	1110.273427
1034.945832	1112.492308
1037.091923	1109.220979
1039.237494	1112.395804
1041.384471	1116.753846
1043.525159	1121.109091
1045.669177	1122.181119
1047.810754	1125.556643
1049.951815	1135.154545
1052.094280	1144.904196
1054.230466	1164.452448
1056.369978	1191.442657
1058.505134	1206.533566
1060.643615	1221.891608
1062.777742	1229.323776
1064.911356	1243.445455
1067.046375	1260.243357
1069.177044	1326.155944
1071.309118	1457.820979
1073.438763	1649.453846
1075.567896	1835.476224
1077.696517	1981.608392
1079.824627	2067.482517
1081.950311	2086.551049
1084.075485	2027.172727
1086.202063	1905.356643
1088.324304	1722.599301
1090.447948	1516.895804
1092.567259	1321.675524
1094.691798	1193.916783
1096.810092	1137.928671
1098.929791	1131.881818
1101.047071	1122.906294
1103.163845	1115.995105
1105.280112	1104.932168
1107.393964	1098.929371
1109.509219	1093.711189
1111.620152	1086.404895
1113.734396	1077.472727
1115.844320	1072.834266
1117.955648	1067.342657
1120.066471	1059.889510
1122.172979	1060.126573
1124.282795	1061.472028
1126.388297	1064.548252
1128.495202	1069.790210
1130.595892	1072.337063
1132.701794	1083.332168
1134.803387	1089.215385
1136.906383	1094.968531
1139.008878	1104.169930
1141.105166	1118.221678
1143.206662	1135.819580
1145.303855	1171.837762
1147.400549	1257.509091
1149.496745	1404.299301
1151.592444	1600.555944
1153.687645	1807.327273
1155.780449	1979.746154
1157.874655	2092.796503
1159.962670	2120.177622
1162.055883	2069.811888
1164.142908	1949.334266
1166.233232	1772.000699
1168.319269	1560.705594
1170.408603	1358.218182
1172.491756	1201.505594
1174.576311	1116.415385
1176.662268	1082.888112
1178.743943	1077.433566
1180.827020	1074.017483
1182.907711	1074.762238
1184.987910	1066.155944
1187.067618	1061.332867
1189.146835	1058.015385
1191.223670	1055.248951
1193.298124	1048.181818
1195.375870	1041.484615
1197.449345	1035.749650
1199.524221	1039.072028
1201.594830	1040.696503
1203.666841	1045.224476
1205.736475	1043.915385
1207.807510	1050.221678
1209.878057	1053.489510
1211.944343	1059.608392
1214.012030	1062.621678
1216.077345	1076.032867
1218.144060	1091.603497
1220.206519	1109.858741
1222.272263	1134.651049
1224.333754	1160.240559
1226.396644	1176.139860
1228.457167	1181.985315
1230.517206	1176.310490
1232.576763	1168.274126
1234.633954	1151.126573
1236.690664	1127.890909
1238.745011	1101.530769
1240.802638	1085.903497
1242.857903	1069.799301
1244.908927	1061.170629
1246.961351	1055.102098
1249.013295	1053.286713
1251.062881	1050.655245
1253.111988	1045.499301
1255.160617	1042.061538
1257.208767	1037.801399
1259.256439	1032.322378
1261.299880	1026.342657
1263.346596	1018.844755
1265.390959	1015.261538
1267.434846	1010.006294
1269.476382	1013.081119
1271.515567	1007.746154
1273.558026	1007.308392
1275.596262	1005.407692
1277.635897	1004.329371
1279.675057	1002.711189
1281.709998	1001.702797
1283.746339	1001.962238
1285.780334	1000.102098
1287.815728	1000.496503
1289.846908	999.572028
1291.879487	995.893007
1293.911593	992.937063
1295.941359	984.145455
1297.972523	981.340559
1299.999479	974.417483
1302.027833	969.710490
1304.051983	965.264336
1306.079397	963.881818
1308.102609	962.009091
1310.127219	965.862937
1312.149495	970.430769
1314.173168	972.630070
1316.194508	973.330070
1318.215380	972.186713
1320.235786	970.339860
1322.251997	974.400699
1324.269606	972.046853
1326.284888	974.102797
1328.303427	972.511888
1330.317778	973.321678
1332.329803	972.205594
1334.345085	979.695804
1336.356182	977.572028
1338.368676	979.093007
1340.376987	977.762937
1342.388554	977.052448
1344.394081	975.991608
1346.402864	977.316783
1348.407469	975.373427
1350.415328	973.382517
1352.422725	971.360839
1354.424091	972.027273
1356.426854	970.580420
1358.429156	973.112587
1360.430999	967.369930
1362.432382	967.717483
1364.431452	960.611189
1366.430063	958.832168
1368.428216	953.010490
1370.425911	949.334266
1372.419442	947.358042
1374.414370	946.885315
1376.408841	945.269930
1378.402855	943.671329
1380.394561	941.937762
1382.385813	942.015385
1384.374759	937.438462
1386.365100	933.696503
1388.354986	925.805594
1390.342569	924.669231
1392.329697	923.144056
1394.314525	926.446154
1396.300746	928.945455
1398.284668	936.465734
1400.268137	936.051748
1402.251154	942.626573
1404.231872	943.449650
1406.213986	945.127972
1408.193802	946.969231
1410.173168	947.920280
1412.148394	946.285315
1414.126860	944.221678
1416.103031	940.691608
1418.078754	937.834965
1420.054027	936.179720
1422.027009	944.539161
1423.999543	945.475524
1425.971630	950.421678
1427.943268	947.881119
1429.910778	949.759441
1431.883363	952.434266
1433.848141	957.551748
1435.817991	957.729371
1437.783718	955.251049
1439.750837	952.951049
1441.715673	952.106993
1443.676390	950.884615
1445.642174	957.982517
1447.602003	959.360839
1449.563225	958.289510
1451.525840	956.954545
1453.484340	957.338462
1455.442398	956.812587
1457.400013	960.830769
1459.357187	960.890909
1461.312085	957.306993
1463.268375	954.207692
1465.222391	951.870629
1467.175967	947.564336
1469.127270	946.862238
1471.079965	944.553846
1473.030389	943.262238
1474.980373	942.877622
1476.929919	942.195804
1478.877196	939.562238
1480.822206	942.210490
1482.768607	940.710490
1484.714572	938.100000
1486.660098	935.652448
1488.603360	935.579021
1490.546185	933.450350
1492.486747	931.825175
1494.428700	930.176923
1496.368392	929.157343
1498.307648	929.312587
1500.246469	931.018182
1502.183031	929.760140
1504.120984	936.212587
1506.056679	937.640559
1507.991939	938.309091
1509.924944	935.403497
1511.857516	935.347552
1513.789656	934.044755
1515.721364	933.595105
1517.650818	928.736364
1519.581663	927.900000
1521.512077	927.381818
1523.438417	931.462238
1525.366149	930.644056
1527.291630	934.418182
1529.216682	931.690210
1531.141305	929.460839
1533.065499	925.174825
1534.987446	924.685315
1536.910782	922.672727
1538.831873	926.317483
1540.750719	926.598601
1542.670955	927.366434
1544.588947	926.432867
1546.506513	933.897902
1548.421837	933.011888
1550.338551	935.949650
1552.251210	933.790210
1554.167073	937.202797
1556.080696	937.009091
1557.992082	941.818881
1559.904856	945.786713
1561.813581	952.406993
1563.723696	953.506294
1565.633387	955.463636
1567.542654	958.360140
1569.449688	961.954545
1571.354489	959.816084
1573.260679	965.062238
1575.164637	963.926573
1577.068175	968.902098
1578.971291	970.860140
1580.872179	977.891608
1582.774454	979.120979
1584.674502	979.491608
1586.575937	974.874126
1588.473339	971.167133
1590.370322	965.348252
1592.266887	959.518881
1594.164840	954.518182
1596.056958	956.409790
1597.952269	952.439161
1599.847163	952.246154
1601.739835	951.770629
1603.632091	951.099301
1605.522126	950.855944
1607.411747	951.144755
1609.300951	948.679720
1611.189741	951.608392
1613.076314	945.814685
1614.964273	951.604895
1616.848216	952.539161
1618.733547	955.097902
1620.618463	953.774825
1622.501166	951.852448
1624.385256	949.313287
1626.265335	941.297902
1628.146800	938.478322
1630.026055	936.277622
1631.906696	933.973427
1633.781533	933.849650
1635.661352	924.733566
1637.537165	931.614685
1639.412568	926.195105
1641.289358	924.223776
1643.160350	921.674825
1645.034524	920.863636
1646.904700	918.327972
1648.778056	915.356643
1650.649209	913.341958
1652.518160	914.127972
1654.388497	913.263636
1656.254840	913.718881
1658.122569	909.932867
1659.988100	908.909091
1661.855015	903.170629
1663.717942	902.276224
1665.582254	898.479021
1667.444370	896.550350
1669.306082	894.186014
1671.169178	891.864336
1673.030080	887.838462
1674.888788	887.794406
1676.747093	888.571329
1678.606783	890.026573
1680.460706	890.479021
1682.317801	891.220979
1684.174494	890.428671
1686.027211	889.438462
1687.883098	883.570629
1689.735012	882.208392
1691.586525	874.624476
1693.437637	868.579720
1695.288349	864.046154
1697.138660	860.871329
1698.986787	856.208392
1700.836297	853.546853
1702.680059	853.258042
1704.528770	855.029371
1706.371736	855.669930
1708.217867	860.096503
1710.060037	858.965035
1711.905371	862.193007
1713.744965	855.589510
1715.585943	856.527972
1717.428304	854.465734
1719.266709	852.570629
1721.106497	848.268531
1722.944110	847.997203
1724.781327	846.551049
1726.616371	848.500000
1728.452798	847.161538
1730.287053	847.450350
1732.120913	838.743357
1733.954380	835.183217
1735.783900	830.237063
1737.616579	827.702098
1739.445314	827.689510
1741.277207	830.774126
1743.105157	832.569231
1744.932715	834.746154
1746.759881	833.165734
1748.586656	836.546853
1750.413040	832.880420
1752.235487	836.038462
1754.061088	831.668531
1755.882755	834.411189
1757.705804	833.379720
1759.526692	833.847552
1761.347190	835.247552
1763.169070	836.067832
1764.985250	834.797902
1766.804582	835.053147
1768.619987	834.703497
1770.438542	835.346154
1772.253172	831.431469
1774.067416	837.239161
1775.881272	834.834965
1777.694742	836.577622
1779.506059	831.665035
1781.318757	831.997902
1783.131068	826.530769
1784.939462	826.553846
1786.749237	826.848252
1788.555096	830.948951
1790.364101	831.806294
1792.169193	832.937762
1793.975666	833.126573
1795.781755	840.423776
1797.583934	837.332168
1799.389256	835.985315
1801.190670	834.635664
1802.993464	833.452448
1804.792352	827.426573
1806.592621	825.154545
1808.392508	823.020979
1810.190254	819.852448
1811.987618	816.605594
1813.784603	812.946154
1815.581207	809.766434
1817.375672	811.676923
1819.171516	805.896503
1820.961706	810.260140
1822.756792	813.426573
1824.546225	815.269930
1826.338795	811.217483
1828.129230	814.214685
1829.917531	815.027972
1831.708967	817.003497
1833.494757	818.533566
1835.281927	816.784615
1837.066965	813.122378
1838.855137	813.990909
1840.639423	806.514685
1842.421580	808.255245
1844.205115	806.744056
1845.986522	808.309790
1847.769308	805.843357
1849.548214	809.816783
1851.328498	808.934266
1853.106656	813.211189
1854.886193	809.622378
1856.663605	808.550350
1858.438893	803.714685
1860.215560	803.410490
1861.990103	796.397902
1863.766025	791.804895
1865.536326	789.718881
1867.309755	791.165035
1869.081064	789.886014
1870.852003	791.590909
1872.624318	789.916783
1874.391020	791.806294
1876.160848	789.621678
1877.926812	795.694406
1879.695900	795.838462
1881.461126	799.934965
1883.225983	795.739860
1884.992218	791.485315
1886.754594	786.777622
1888.516603	790.844056
1890.278244	788.083916
1892.039519	788.123776
1893.800426	784.700000
1895.560967	786.793007
1897.319398	784.824476
1899.077464	787.960839
1900.833421	785.706993
1902.590756	788.239161
1904.347724	787.573427
1906.102587	788.034965
1907.855344	784.634266
1909.607738	789.016783
1911.361507	784.069930
1913.113173	781.911189
1914.862737	777.762937
1916.613677	778.330769
1918.364253	774.704196
1920.110990	775.428671
1921.859104	774.191608
1923.605118	778.853147
1925.352508	779.738462
1927.097799	780.351049
1928.840993	779.204895
1930.585563	779.002797
1932.328036	774.416084
1934.070149	773.458042
1935.811902	772.226923
1937.553296	773.523077
1939.292596	773.142308
1941.031536	774.236364
1942.770119	772.647902
1944.506609	777.074126
1946.242742	774.041608
1947.980249	775.982517
1949.713934	777.724825
1951.448994	780.414685
1953.181966	777.862587
1954.914581	779.506294
1956.646839	777.738811
1958.378741	779.474825
1960.108557	779.408392
1961.836289	780.594406
1963.565394	777.767832
1965.294145	780.785315
1967.020812	774.609790
1968.747125	776.586713
1970.474811	775.144056
1972.196961	777.767133
1973.922212	776.600000
1975.643657	775.025175
1977.368201	772.605594
1979.090666	775.600000
1980.809327	775.594406
1982.531087	778.383916
1984.249045	777.130769
1985.968376	777.996503
1987.683908	773.809790
1989.404261	776.200000
1991.120814	774.958042
1992.833571	780.625175
1994.549425	776.334965
1996.263205	776.009790
1997.976636	775.599301
1999.687996	780.813986
2001.400729	778.313287
2003.109670	780.351049
2004.821705	778.322378
2006.528230	777.201399
2008.237848	777.384615
2009.945398	778.436364
2011.652601	778.211189
2013.357738	780.014685
2015.062528	773.565035
2016.768690	775.501399
2018.471070	773.919580
2020.174822	778.346853
2021.876510	771.223776
2023.577854	769.427972
2025.278852	766.952448
2026.977790	766.772028
2028.678098	766.531469
2030.374632	764.473427
2032.072537	761.703497
2033.768383	763.323776
2035.467315	757.058741
2037.160761	758.553846
2038.855579	757.376923
2040.550053	761.142657
2042.240759	757.286713
2043.934549	760.161538
2045.624572	762.648252
2047.315966	763.735664
2049.005307	761.154545
2050.696018	759.341259
2052.382966	752.533566
2054.069575	749.074126
2055.757554	742.821678
2057.441773	741.776923
2059.127362	733.739860
2060.812612	735.187413
2062.495814	730.411888
2064.180385	731.365734
2065.859494	731.281818
2067.543388	734.248951
2069.221822	730.620280
2070.903332	734.883916
2072.581092	732.661538
2074.258514	738.571329
2075.937306	743.448252
2077.614056	745.774126
2079.288764	740.776923
2080.964841	740.066434
2082.638878	732.883916
2084.312579	730.943357
2085.985945	726.638462
2087.657273	722.163636
2089.328266	716.900699
2090.998925	722.206993
2092.669249	723.427972
2094.339240	729.975524
2096.007195	728.837063
2097.674817	731.823776
2099.340404	733.106993
2101.007361	734.910490
2102.672283	734.997203
2104.336874	735.938462
2105.999433	731.116783
2107.663360	730.345455
2109.325257	732.751748
2110.986822	738.776923
2112.648056	737.969231
2114.307262	737.190210
2115.966137	738.189510
2117.624683	746.438462
2119.282899	749.766434
2120.937391	751.279021
2122.594948	750.332168
2124.252176	746.922378
2125.905682	742.437762
2127.560556	743.300699
2129.211712	739.665035
2130.865929	737.039161
2132.516430	734.590210
2134.168297	734.955944
2135.814756	738.385315
2137.465970	740.027972
2139.113470	739.621678
2140.762337	741.244755
2142.409186	740.078322
2144.055708	734.210490
2145.701905	732.734266
2147.344394	732.883217
2148.989941	727.740559
2150.631781	727.685315
2152.276678	729.614685
2153.917870	729.601399
2155.558738	727.634266
2157.199282	727.606294
2158.837814	725.662238
2160.477712	725.159441
2162.113910	718.669930
2163.751475	714.872727
2165.388716	713.895804
2167.023948	714.129371
2168.658859	710.058042
2170.293448	710.845455
2171.927715	712.504895
2173.558289	712.227273
2175.191915	709.790909
2176.821849	712.229371
2178.453148	712.034266
2180.082442	712.715385
2181.711417	709.218881
2183.340073	711.240559
2184.968409	707.122378
2186.594742	705.955944
2188.220757	701.936364
2189.844771	701.397203
2191.470149	698.636364
2193.093528	692.786713
2194.718270	687.504895
2196.339332	688.060140
2197.960077	687.165035
2199.582187	689.986014
2201.202299	688.608392
2202.820414	693.346853
2204.438214	692.678322
2206.055699	695.851049
2207.672868	694.398601
2209.289722	694.209091
2210.906261	690.523776
2212.520806	690.630070
2214.133359	687.186713
2215.747276	690.862238
2217.359202	689.797203
2218.972491	694.177622
2220.583790	689.195105
2222.193099	691.874825
2223.803772	690.560839
2225.412456	688.573427
2227.020828	683.783217
2228.627212	682.666434
2230.234960	679.077622
2231.840721	684.210490
2233.446171	683.699301
2235.049636	688.602098
2236.654464	686.764336
2238.257309	687.175524
2239.858170	682.120979
2241.460393	684.316084
2243.060635	682.004895
2244.662239	682.576224
2246.260191	679.508392
2247.859505	680.039161
2249.456839	681.242657
2251.053864	683.727972
2252.652252	682.868531
2254.246991	686.302098
2255.839753	683.441259
2257.433878	677.570629
2259.029364	674.420280
2260.621206	674.363636
2262.212741	671.751049
2263.805637	674.932867
2265.393224	672.174825
2266.985508	674.791608
2268.572484	671.744056
2270.162489	669.866434
2271.747189	667.388112
2273.336583	667.300699
2274.920674	662.143357
2276.506127	659.172028
2278.089610	659.950350
2279.676120	661.325874
2281.258996	660.662937
2282.841568	661.825524
2284.423837	661.602797
2286.002477	662.989860
2287.584140	658.435664
2289.162175	661.186364
2290.743233	659.263636
2292.320665	657.173077
2293.896132	653.577622
2295.474622	654.784965
2297.049488	653.449650
2298.624053	650.393357
2300.198318	646.130769
2301.772282	645.394056
2303.345946	640.683217
2304.919309	640.695105
2306.489054	638.711888
2308.058500	640.487413
2309.630965	639.880420
2311.198154	638.591608
2312.768362	637.141259
2314.334955	640.358042
2315.902908	638.929371
2317.468905	637.937063
2319.034605	641.996503
2320.600008	649.391608
2322.163456	651.973427
2323.728264	658.944755
2325.289464	660.729371
2326.853678	663.473427
2328.412631	659.948951
2329.974597	658.381818
2331.534613	652.183916
2333.094333	650.925175
2334.652104	645.981818
2336.209580	644.430070
2337.766762	644.034965
2339.321997	642.513287
2340.876937	642.444755
2342.431584	640.799301
2343.985937	637.886713
2345.539996	640.091608
2347.093761	637.600000
2348.645583	639.918881
2350.195461	637.605594
2351.748347	643.744755
2353.295991	644.116084
2354.846642	641.598601
2356.393702	635.346154
2357.942121	631.340559
2359.490247	630.365035
2361.034785	627.111888
2362.580681	625.470629
2364.124639	626.609790
2365.669954	626.778322
2367.211684	627.269231
2368.754771	625.611888
2370.295923	628.027273
2371.836785	623.531469
2373.377358	622.122378
2374.917641	621.538462
2376.457636	624.455944
2377.994053	625.080420
2379.533471	625.062937
2381.069312	622.071329
2382.606509	623.325175
2384.140131	621.330070
2385.676754	621.323077
2387.211445	616.811888
2388.744207	617.232867
2390.276682	616.697203
2391.807230	620.805594
2393.340775	621.516783
2394.869109	623.952448
2396.398799	621.929371
2397.928204	623.679021
2399.457323	623.177622
2400.986158	623.827273
2402.509787	618.952448
2404.038053	618.842657
2405.561115	612.836364
2407.088811	613.399301
2408.609668	614.187413
2410.135158	616.424476
2411.657087	616.659441
2413.180372	616.934965
2414.701736	613.900000
2416.221180	618.586713
2417.741979	616.644056
2419.260859	617.155944
2420.779457	614.319580
2422.296138	614.980420
2423.814173	611.913287
2425.331927	616.562238
2426.846130	617.172727
2428.360052	618.955245
2429.873694	618.193007
2431.388691	614.202098
2432.900139	607.169930
2434.412942	606.491608
2435.923832	601.464336
2437.434442	600.179021
2438.943141	596.896503
2440.454827	601.193007
2441.962968	599.479720
2443.470832	604.146853
2444.978418	600.520979
2446.482463	601.286713
2447.989494	598.844056
2449.494616	598.948951
2450.999461	595.228671
2452.502399	595.301399
2454.005060	590.715385
2455.507445	591.124476
2457.007925	588.179021
2458.509758	590.555245
2460.009687	585.251748
2461.509340	584.423077
2463.008717	578.912587
2464.506192	575.837063
2466.001765	571.090909
2467.500319	576.134266
2468.995343	571.083916
2470.491721	570.805594
2471.984571	570.254545
2473.478775	574.374126
2474.972705	574.894406
2476.463112	581.688811
2477.956495	579.632168
2479.447981	579.011888
2480.937570	578.146853
2482.426887	580.148951
2483.914309	574.145455
2485.404706	577.479021
2486.891584	573.494406
2488.379814	572.170629
2489.864528	566.334266
2491.348971	565.211189
2492.834766	564.213287
2494.318668	567.282517
2495.803922	564.983217
2497.284042	566.678322
2498.767134	565.269930
2500.248336	568.458741
2501.729269	565.892308
2503.208313	569.817483
2504.687088	568.831469
2506.165595	563.767832
2507.643834	561.969231
2509.121804	563.430769
2510.596270	561.278322
2512.073704	567.118182
2513.547635	568.099301
2515.022916	570.514685
2516.497931	568.973427
2517.969444	570.658741
2519.442307	569.290210
2520.913288	567.042657
2522.385619	562.791608
2523.852837	560.397203
2525.323020	558.913287
2526.791323	555.455245
2528.259361	550.971329
2529.727134	551.864336
2531.194642	550.825874
2532.661885	551.557343
2534.125636	550.788112
2535.590737	551.618182
2537.053961	551.695105
2538.518535	553.786713
2539.979619	555.583217
2541.442053	556.613986
2542.904224	555.151748
2544.362909	558.093706
2545.826166	557.339161
2547.284326	559.258042
2548.743835	562.023776
2550.198251	564.547552
2551.657236	566.658741
2553.114350	565.488112
2554.569593	560.792308
2556.024575	563.446154
2557.477687	562.100699
2558.932148	560.972028
2560.384740	556.972028
2561.837072	554.258042
2563.287536	551.505594
2564.740956	548.730769
2566.189294	550.331469
2567.640588	552.714685
2569.090015	549.019580
2570.535970	543.941958
2571.984881	542.493007
2573.430320	548.230070
2574.877108	547.681818
2576.322032	549.516783
2577.766699	545.674126
2579.212713	546.713986
2580.655260	543.467832
2582.099155	541.995105
2583.539585	544.576224
2584.981362	543.740559
2586.421280	541.364336
2587.862545	541.392308
2589.300349	541.617483
2590.741102	542.274126
2592.176792	540.237063
2593.615432	542.103497
2595.052215	541.278322
2596.487141	544.395804
2597.925016	538.808392
2599.357832	541.751049
2600.791996	540.197203
2602.224306	543.904895
2603.657962	545.001399
2605.089765	544.579021
2606.521315	543.553147
2607.952611	539.234266
2609.382055	540.611189
2610.811248	542.306993
2612.238589	539.918182
2613.667277	538.960839
2615.095712	533.457343
2616.520700	533.270629
2617.947035	529.119580
2619.371521	530.676923
2620.797353	527.645455
2622.219741	528.800000
2623.643475	525.526573
2625.065362	524.292308
2626.487000	526.160140
2627.906792	530.341259
2629.327930	528.600699
2630.748818	523.473427
2632.166268	520.700000
2633.586657	520.687413
2635.003609	515.649650
2636.420313	517.402098
2637.836768	516.247552
2639.252975	520.707692
2640.668933	521.941958
2642.083051	525.147552
2643.496922	523.783916
2644.908953	529.400699
2646.322329	526.613986
2647.732275	525.449650
2649.145156	525.966434
2650.554610	524.989510
2651.963817	519.453846
2653.371187	522.309091
2654.781493	520.503497
2656.189962	525.001399
2657.596596	525.222378
2659.002985	525.709091
2660.407540	523.234965
2661.813439	526.698601
2663.217505	523.709091
2664.621326	525.376923
2666.024904	520.607692
2667.426649	518.190909
2668.829738	516.068531
2670.229409	516.967832
2671.630424	516.813287
2673.028023	516.436364
2674.428552	512.037762
2675.825666	515.708392
2677.224123	517.290909
2678.620752	518.918182
2680.017139	513.005594
2681.413285	513.405594
2682.807604	510.105594
2684.203266	510.382517
2685.595518	509.746853
2686.989114	511.439161
2688.380885	509.778322
2689.773998	510.469231
2691.165288	509.895804
2692.554755	516.841958
2693.943982	515.961538
2695.332970	515.532867
2696.723300	509.404895
2698.108645	510.464336
2699.496914	507.836364
2700.883363	507.155245
2702.269573	503.270629
2703.655545	504.051049
2705.038117	500.863636
2706.422032	504.582517
2707.805709	503.059441
2709.189148	506.412587
2710.569191	504.334266
2711.950576	505.368531
2713.330145	503.716783
2714.711056	504.169231
2716.090151	501.951748
2717.467433	500.420979
2718.846056	496.336364
2720.222866	499.324476
2721.599440	496.229371
2722.975778	498.925874
2724.350304	495.856643
2725.726171	499.469930
2727.098651	496.272727
2728.474047	496.665734
2729.844483	493.610490
2731.216260	492.639161
2732.587802	489.486713
2733.957536	489.053147
2735.328611	488.320280
2736.697877	488.234266
2738.066911	481.902797
2739.434137	482.307692
2740.801131	477.911888
2742.167892	477.676224
2743.534420	472.874126
2744.899143	471.306993
2746.263635	467.237063
2747.627894	471.130070
2748.991921	472.447552
2750.355717	476.095105
2751.716139	473.248252
2753.079472	474.732867
2754.437862	471.116084
2755.799162	470.325175
2757.157091	467.066434
2758.517930	467.966434
2759.876968	464.102098
2761.232638	461.803497
2762.591216	461.988112
2763.946428	467.995804
2765.301410	471.270629
2766.654595	473.111888
2768.010687	471.219580
2769.363415	472.930769
2770.715914	468.619580
2772.068185	467.576923
2773.421795	464.369930
2774.772043	463.864336
2776.120498	460.796503
2777.471857	462.796503
2778.819857	460.186014
2780.169196	461.342657
2781.516742	460.216783
2782.864061	462.551748
2784.211154	460.143357
2785.556456	461.459441
2786.901532	459.914685
2788.246382	462.332168
2789.591005	457.594406
2790.932277	457.986713
2792.274887	455.416783
2793.617271	453.835664
2794.959431	448.290210
2796.298241	450.165035
2797.639950	451.613287
2798.978312	455.178322
2800.318011	452.825874
2801.655924	452.381818
2802.992053	450.700000
2804.327958	454.715385
2805.665201	452.548951
2807.000660	454.038462
2808.335896	449.677622
2809.669349	450.695105
2811.004140	451.516084
2812.335589	455.397203
2813.669934	453.044755
2814.999381	450.563636
2816.330165	446.082517
2817.660727	443.548951
2818.989510	440.920280
2820.319629	444.057343
2821.647970	443.448951
2822.976090	444.292308
2824.302432	444.628671
2825.630111	446.997902
2826.954457	444.867832
2828.280138	447.255245
2829.604044	442.951049
2830.927731	440.836364
2832.252753	439.241259
2833.574445	437.825874
2834.895919	433.767832
2836.217174	436.448252
2837.538210	437.771329
2838.857474	436.071329
2840.178073	435.027972
2841.496900	435.097902
2842.815509	431.659441
2844.132347	433.126573
2845.448968	428.425874
2846.765372	425.899301
2848.080007	425.999301
2849.395976	424.613287
2850.708625	422.636364
2852.022610	426.459441
2853.336377	427.134266
2854.649929	425.783217
2855.961713	425.914685
2857.271731	429.451049
2858.583084	428.725874
2859.891122	429.337063
2861.200495	426.067832
2862.509652	428.995804
2863.818594	428.962937
2865.125773	429.150350
2866.431188	428.597902
2867.737938	430.460839
2869.042925	427.998601
2870.347699	428.457343
2871.650711	425.481119
2872.956605	428.728671
2874.257643	427.030769
2875.560016	424.822378
2876.860629	422.281818
2878.162576	423.546154
2879.464310	418.648252
2880.762739	419.967133
2882.062503	415.072727
2883.360508	414.539161
2884.658302	411.206993
2885.954340	410.374825
2887.251711	410.323776
2888.547326	416.806294
2889.842730	415.776923
2891.137924	419.425874
2892.429819	419.752448
2893.724591	419.076224
2895.016066	419.693706
2896.308874	423.390909
2897.601472	417.869930
2898.890776	419.453147
2900.181412	418.657343
2901.470297	420.982517
2902.760515	422.010490
2904.047440	423.358741
2905.335699	415.794406
2906.622207	417.292308
2907.908508	410.311888
2909.194600	407.449650
2910.478944	407.629371
2911.766160	408.344755
2913.048548	406.977622
2914.332269	410.399301
2915.614244	411.950350
2916.896012	416.606993
2918.176034	416.713287
2919.458926	417.512587
2920.740073	411.355245
2922.017938	415.266434
2923.298672	409.286713
2924.576125	407.728671
2925.853372	408.655944
2927.128878	408.688811
2928.407251	407.148252
2929.680809	407.353846
2930.957235	405.393007
2932.231920	406.832168
2933.504865	407.475524
2934.779140	407.310490
2936.051676	405.794406
2937.324008	409.874126
2938.593066	407.705594
2939.864990	407.558042
2941.135176	403.878322
2942.405159	398.703497
2943.674938	394.425874
2944.942980	394.995105
2946.209287	391.549650
2947.475391	391.143357
2948.742825	390.147552
2950.008525	390.405594
2951.274022	392.972028
2952.539317	396.072028
2953.801347	398.041958
2955.064708	400.952448
2956.327866	396.623077
2957.589293	395.751748
2958.852049	396.295105
2960.113074	396.859441
2961.372367	391.437063
2962.631461	387.302797
2963.890354	382.127972
2965.149047	380.846853
2966.407540	380.079720
2967.664304	379.874825
2968.920868	383.506993
2970.175705	388.769231
2971.431871	387.595804
2972.684781	391.386014
2973.939021	393.095804
2975.193062	393.648252
2976.445377	389.775524
2977.697494	390.448252
2978.947886	387.384615
2980.201133	384.786713
2981.449603	382.593706
2982.700927	383.127972
2983.949003	384.621678
2985.196881	386.718881
2986.444562	387.031469
2987.692047	387.383916
2988.937810	388.094406
2990.183376	389.339860
2991.430270	385.810490
2992.673920	386.943357
2993.918898	380.899301
2995.160633	376.578322
2996.405218	374.042657
2997.648085	376.513986
2998.887711	374.633566
3000.130187	378.581818
3001.369424	378.751049
3002.609988	380.258741
3003.848835	378.634965
3005.087488	379.228671
3006.324425	377.176224
3007.562689	375.442657
3008.799239	373.743357
3010.035594	373.401399
3011.271756	370.065035
3012.506205	370.269930
3013.740460	367.144755
3014.974522	367.451049
3016.206872	363.888112
3017.437510	363.139860
3018.670994	359.588112
3019.902766	364.242657
3021.132828	363.280420
3022.362698	364.502797
3023.590858	368.134965
3024.820344	370.202797
3026.048122	368.907692
3027.275708	368.593007
3028.504620	367.535664
3029.728790	364.687413
3030.955803	361.306993
3032.179592	360.032168
3033.404708	358.460839
3034.628117	360.170629
3035.851337	361.673427
3037.072851	364.060839
3038.297206	365.898601
3039.516826	370.097902
3040.737771	368.558042
3041.958528	365.161538
3043.177581	361.555944
3044.397960	358.632168
3045.615122	353.329371
3046.833609	352.732867
3048.050394	348.860140
3049.266992	352.318182
3050.483401	354.260839
3051.696598	355.841958
3052.912632	359.836364
3054.125454	359.781818
3055.341113	357.670629
3056.552049	356.619580
3057.764310	353.686713
3058.976385	355.388112
3060.188273	351.017483
3061.398463	353.591608
3062.608467	352.622028
3063.818286	356.020280
3065.026408	353.003846
3066.234344	354.576224
3067.440586	353.978671
3068.648151	350.848252
3069.854023	349.160490
3071.059709	347.567133
3072.265210	345.733217
3073.469018	344.551049
3074.674150	344.003147
3075.877590	351.775524
3077.079337	352.795455
3078.280901	355.188112
3079.482281	354.702098
3080.683477	356.464336
3081.882983	354.086713
3083.082305	353.190909
3084.282951	345.227273
3085.481907	342.771329
3086.677669	339.447552
3087.876260	335.449650
3089.071657	333.262937
3090.268377	334.726573
3091.461905	332.846853
3092.658261	335.067832
3093.852931	334.444755
3095.044410	336.345455
3096.240220	335.493007
3097.431337	337.549650
3098.623776	336.175524
3099.813028	338.988112
3101.005106	335.318182
3102.195499	333.988112
3103.382707	329.305594
3104.571238	329.516783
3105.761091	326.899301
3106.947759	326.218881
3108.134248	324.000000
3109.320557	326.674126
3110.508188	328.865734
3111.692638	334.409790
3112.875407	334.868531
3114.061000	336.234266
3115.244912	331.538462
3116.427146	331.899301
3117.609201	329.623077
3118.791079	330.584615
3119.972778	328.267133
3121.152799	331.934266
3122.331144	331.624476
3123.512310	337.055245
3124.690300	341.499301
3125.868113	344.265035
3127.045749	340.751049
3128.221710	340.411888
3129.397494	335.084615
3130.574600	333.402098
3131.750031	328.436364
3132.923789	327.746154
3134.095875	322.793007
3135.269281	322.711189
3136.442512	319.320280
3137.614070	320.172727
3138.786950	320.852448
3139.956662	322.125874
3141.127695	320.544755
3142.297057	321.094406
3143.464750	318.923776
3144.635258	323.134965
3145.801107	321.272028
3146.971266	323.020979
3148.136767	317.562238
3149.302095	318.272727
3150.467249	314.293007
3151.632229	315.120979
3152.798530	314.310490
3153.960177	315.633566
3155.123145	311.750350
3156.285939	310.851748
3157.448561	309.932867
3158.609518	312.691608
3159.770302	308.668531
3160.930914	307.913287
3162.089863	304.454545
3163.248639	305.202797
3164.407244	302.955944
3165.565677	305.532168
3166.723938	300.824476
3167.880537	302.389510
3169.035475	302.983217
3170.191732	307.104196
3171.346329	307.964336
3172.500754	309.653147
3173.653520	309.485315
3174.806116	310.099301
3175.958541	307.381818
3177.110797	306.304895
3178.262883	303.901399
3179.411822	303.770629
3180.563568	297.178322
3181.713656	299.976923
3182.862088	301.389510
3184.010351	303.364336
3185.158444	305.276224
3186.306369	307.729371
3187.452639	308.745455
3188.598740	309.536364
3189.743186	307.758042
3190.887465	308.237762
3192.031576	306.471329
3193.177005	307.295804
3194.319294	305.240559
3195.461417	306.772727
3196.603372	305.234266
3197.745161	306.483217
3198.886782	304.107692
3200.025267	303.941259
3201.165070	302.376923
3202.306191	304.232867
3203.444177	302.222378
3204.580514	301.406294
3205.716685	301.630769
3206.854174	305.466434
3207.990013	308.612587
3209.127170	308.865035
3210.259714	308.637063
3211.396540	308.376923
3212.528754	301.565035
3213.662286	299.476224
3214.795652	296.117483
3215.925891	298.778322
3217.058928	292.191608
3218.188839	292.061538
3219.320067	290.936364
3220.448169	289.016783
3221.579068	284.765734
3222.708324	283.226573
3223.835935	278.160839
3224.960425	276.969231
3226.089190	272.576923
3227.214833	272.432168
3228.340313	273.158741
3229.464152	277.211888
3230.590785	277.127273
3231.712821	281.447552
3232.836173	280.606993
3233.959363	280.546853
3235.082391	279.915385
3236.203779	282.044755
3237.325006	277.335664
3238.444594	277.634266
3239.564021	273.777622
3240.681810	273.734266
3241.802392	271.451748
3242.919859	272.301399
3244.037167	270.262238
3245.154313	271.253846
3246.269824	271.422378
3247.386650	276.383217
3248.500365	279.747552
3249.616870	284.542657
3250.731741	286.198601
3251.843503	287.855245
3252.955106	286.517483
3254.068023	289.027273
3255.180782	286.579720
3256.290434	285.358042
3257.401400	278.899301
3258.512208	280.533566
3259.621385	280.510490
3260.728930	283.390909
3261.837790	281.470629
3262.946491	280.357343
3264.052090	276.811888
3265.159003	274.950350
3266.264288	272.082517
3267.370886	275.539860
3268.474384	273.283916
3269.579196	272.958042
3270.683851	273.552448
3271.785407	279.811189
3272.886808	279.516783
3273.989522	279.898601
3275.092079	278.421678
3276.191540	277.534965
3277.293785	273.175524
3278.392934	273.833566
3279.490459	275.189510
3280.587828	276.509790
3281.687980	274.545455
3282.785038	275.888811
3283.881941	277.820280
3284.978689	280.704895
3286.070879	275.852448
3287.167317	277.219580
3288.262134	273.906993
3289.356795	272.249650
3290.449835	268.422378
3291.542721	268.710490
3292.633986	268.795804
3293.726564	267.701399
3294.817521	264.943357
3295.906859	264.479021
3296.996044	263.714685
3298.086542	267.662937
3299.173955	263.159441
3300.261216	264.568531
3301.349789	260.396503
3302.438209	262.088112
3303.522082	263.851049
3304.610197	266.753147
3305.695231	268.200699
3306.778648	270.779720
3307.863378	269.778322
3308.946493	271.490210
3310.030919	268.555944
3311.112267	271.591608
3312.194927	270.229371
3313.275973	268.185315
3314.356868	263.965734
3315.436150	264.780420
3316.515281	264.008392
3317.595723	262.411189
3318.673092	259.881119
3319.751771	264.069930
3320.828840	262.444755
3321.905758	262.569231
3322.981065	258.488112
3324.056223	260.830769
3325.132692	260.349650
3326.206091	262.140559
3327.279341	259.432867
3328.353902	263.329371
3329.426853	261.001399
3330.498197	260.677622
3331.570851	260.098601
3332.640438	263.720979
3333.711336	259.950350
3334.780627	260.358042
3335.851229	254.205594
3336.920224	253.196503
3337.987613	247.882517
3339.053397	249.200699
3340.123407	248.033566
3341.190354	253.569231
3342.254239	250.627273
3343.320892	253.618881
3344.385940	255.765734
3345.449385	257.483217
3346.512684	254.947552
3347.575836	256.016084
3348.638842	251.981119
3349.701702	254.639161
3350.762960	248.011189
3351.821161	250.167832
3352.883583	251.560839
3353.942948	252.520979
3355.002168	250.094406
3356.062698	255.437762
3357.118718	252.449650
3358.177503	252.048951
3359.231780	248.566434
3360.288820	250.817483
3361.344263	250.630070
3362.401014	252.236364
3363.456168	245.710490
3364.509724	247.623077
3365.561683	247.950350
3366.616404	250.299301
3367.668076	249.855944
3368.719605	252.097203
3369.772443	248.954545
3370.822233	254.441259
3371.873331	252.859441
3372.921384	254.756643
3373.972197	252.265734
3375.019964	250.746853
3376.067589	249.683217
3377.115071	252.725874
3378.160961	253.327273
3379.208159	255.495804
3380.252315	252.197902
3381.299229	251.202797
3382.344551	251.816084
3383.386833	254.403497
3384.428973	247.711888
3385.472421	247.079021
3386.515729	244.686713
3387.557446	245.834266
3388.599022	245.500699
3389.640458	248.189510
3390.680304	248.669930
3391.718563	248.237063
3392.758129	242.696503
3393.797554	241.629371
3394.835392	242.084615
3395.871643	243.822378
3396.907755	239.574825
3397.945174	242.113287
3398.979560	240.170629
3400.015253	241.207692
3401.050807	239.830070
3402.083330	244.301399
3403.118606	243.707692
3404.150851	244.469231
3405.182958	241.390909
3406.213481	244.472028
3407.245312	246.645455
3408.277003	250.079021
3409.305668	247.325874
3410.334194	248.567832
3411.364028	247.411189
3412.393723	248.313287
3413.420393	246.011189
3414.448370	247.110490
3415.473322	243.593007
3416.501024	245.609091
3417.525703	241.080420
3418.551688	244.665035
3419.576093	242.188112
3420.600362	243.036364
3421.623052	240.293007
3422.645606	241.029371
3423.669466	240.636364
3424.690306	239.236364
3425.711011	237.107592
3426.733021	235.330170
3427.752013	234.285914
3428.770870	234.356643
3429.791032	235.924176
3430.808178	239.370330
