-118.448435	1.739560
-115.778835	7.119780
-113.112170	10.698002
-110.446257	12.756044
-107.783276	13.575724
-105.118866	13.438861
-102.457386	12.627273
-99.794476	9.774126
-97.136674	9.091608
-94.477441	9.981818
-91.818958	13.816783
-89.163398	11.955944
-86.506410	15.090210
-83.854519	12.962937
-81.201199	15.550350
-78.550799	17.393706
-75.898969	21.798601
-73.252230	24.649650
-70.604061	25.188811
-67.956636	23.146154
-65.312124	24.403497
-62.666184	20.910490
-60.025325	18.327273
-57.383037	11.872727
-54.743657	10.900000
-52.102849	8.120280
-49.462781	9.199301
-46.827785	12.158741
-44.191360	19.989510
-41.557839	23.060839
-38.922889	25.805594
-36.293004	28.004196
-33.659527	28.781119
-31.031112	26.084615
-28.403430	26.232867
-25.774321	16.349650
-23.150268	-28.234965
-20.522626	-190.909790
-17.900037	-479.883217
-15.278180	-641.623077
-12.657053	627.453846
-10.036656	2597.998601
-7.419147	4211.198601
-4.800210	5326.028671
-2.184159	5937.624476
0.431164	6044.523077
3.045760	5651.315385
5.657473	4756.793706
8.270615	3395.476224
10.878723	1686.074825
13.490413	1.674825
16.097072	-977.918182
18.705159	-528.344755
21.312522	-28.818182
23.914860	30.015385
26.520776	32.009790
29.121670	33.816084
31.723992	34.738462
34.321297	38.204895
36.922177	33.853846
39.518043	35.922378
42.115336	35.914685
44.711910	36.286713
47.303475	31.479720
49.896468	27.223077
52.486600	26.677622
55.078160	26.597902
57.666860	26.211888
60.256987	26.462937
62.842116	28.673427
65.428671	33.880420
68.014513	39.160140
70.597501	44.910490
73.181915	45.746154
75.759201	47.963636
78.340053	45.766434
80.918056	47.623077
83.495349	46.826573
86.074068	46.076224
88.647806	40.811888
91.222970	39.561538
93.795291	40.912587
96.366904	44.852448
98.935677	47.653147
101.505877	46.308392
104.073239	49.353846
106.642026	44.157343
109.207977	27.793007
111.771093	15.740559
114.337765	53.190909
116.895216	178.578322
119.458352	355.340559
122.016529	543.918881
124.578259	727.509091
127.135034	910.827273
129.693234	1114.400699
132.246482	1342.781119
134.799031	1604.669231
137.355131	1873.707692
139.906284	2130.572727
142.456738	2383.409091
145.006496	2637.211888
147.553434	2859.937762
150.099676	3001.992308
152.647344	3047.241958
155.194317	3040.379021
157.736353	3010.625175
160.277696	3018.415385
162.818346	3075.281818
165.360422	3219.262937
167.899687	3446.872028
170.436142	3751.971329
172.971907	4139.841259
175.509097	4589.516783
178.045595	5155.895804
180.579288	5916.648951
183.110178	6939.165035
185.640379	8331.848951
188.172005	10233.590909
190.700830	12754.807692
193.226856	15828.207692
195.752197	19249.575524
198.278962	22640.949650
200.802930	25562.581818
203.326214	27609.770629
205.848813	28466.964336
208.368619	28061.603497
210.887742	26445.286713
213.406182	23846.723776
215.926046	20656.037063
218.438909	17336.420280
220.955303	14261.827273
223.471015	11678.995105
225.981838	9654.672028
228.494085	8149.323776
231.003549	7031.919580
233.512335	6196.875524
236.020443	5548.009790
238.529974	5037.782517
241.034625	4614.640559
243.538601	4264.146154
246.044000	3960.643357
248.544524	3743.918182
251.048571	3780.648252
253.545648	4152.997902
256.046247	4670.843357
258.544075	5105.930769
261.041230	5349.618182
263.537712	5391.270629
266.029331	5215.435664
268.524470	4820.027972
271.016843	4230.979720
273.508545	3502.795105
275.997483	2727.557343
278.487846	2082.481119
280.975447	1759.505594
283.460288	1713.507692
285.948643	1736.824476
288.430059	1714.252448
290.914989	1679.914685
293.395074	1644.408392
295.878671	1608.901399
298.357425	1574.964336
300.837603	1551.566434
303.315028	1536.585315
305.791790	1530.079021
308.267889	1538.662238
310.741239	1557.482517
313.213927	1585.634965
315.685954	1610.927273
318.157320	1633.969930
320.625942	1643.445455
323.093904	1639.579021
325.563289	1628.052448
328.027850	1606.455944
330.495916	1580.372028
332.959162	1538.344755
335.421750	1462.950350
337.883682	1366.395105
340.344957	1436.064336
342.803498	2019.304895
345.263461	3019.361538
347.720691	4042.586713
350.177267	4840.624476
352.633189	5335.764336
355.086382	5507.379720
357.540996	5353.855944
359.990809	4876.974126
362.444119	4113.094406
364.892629	3132.795804
367.340489	2144.561538
369.789770	1482.981818
372.234258	1360.239860
374.680168	1476.090909
377.125429	1530.563636
379.567970	1604.225874
382.009864	1820.133566
384.451111	2123.614685
386.889642	2406.426573
389.329595	2664.230769
391.766834	2920.265035
394.201361	3115.608392
396.639376	3199.816084
399.072614	3140.879021
401.507274	2959.090210
403.937160	2680.130070
406.370532	2370.282517
408.799134	2164.782517
411.227095	2074.041259
413.656476	1998.926573
416.081092	1923.773427
418.507130	1921.851049
420.932527	1997.605594
423.357284	2092.088112
425.777283	2178.361538
428.198703	2281.532867
430.617426	2402.720280
433.037570	2552.870629
435.455019	2735.888811
437.873888	2967.820979
440.290064	3194.260839
442.701493	3321.906294
445.116398	3509.413986
447.528613	5949.230070
449.940194	11374.808392
452.351141	18949.800000
454.759402	28197.356643
457.167030	39260.837063
459.574027	49203.559441
461.980391	56101.696503
464.384073	59018.497902
466.787125	57646.186713
469.189547	52125.166434
471.591340	43203.875524
473.990454	32631.015385
476.390988	23301.004196
478.790893	15741.505594
481.186075	10003.737063
483.584724	6866.622378
485.978653	6363.730769
488.371956	6010.325175
490.764633	5541.360140
493.156685	5053.576224
495.550156	4710.432168
497.938914	4592.594406
500.325006	4633.593706
502.712518	4695.890210
505.099406	4713.349650
507.483631	4670.072727
509.869275	4543.751049
512.252256	4317.222378
514.632577	4000.926573
517.014317	3600.527972
519.393398	3141.415385
521.773898	2721.176224
524.151740	2470.046853
526.526927	2391.230070
528.901496	2372.863636
531.277484	2338.825874
533.650818	2292.834266
536.025570	2254.286014
538.395637	2209.861538
540.765088	2163.798601
543.135957	2120.830769
545.502146	2070.379720
547.869753	2016.862937
550.234714	1961.210490
552.599062	1911.548252
554.962798	1864.455245
557.327951	1816.846853
559.688431	1778.343357
562.050330	1739.931469
564.409589	1712.716084
566.766209	1691.183217
569.126274	1676.058042
571.479649	1663.277622
573.836468	1654.704196
576.190651	1645.154545
578.544227	1636.129371
580.897194	1639.930070
583.247530	1644.935664
585.599282	1646.526573
587.944358	1656.198601
590.294898	1652.706294
592.638765	1646.986713
594.988092	1635.969231
597.332772	1623.371329
599.674826	1607.105594
602.018298	1590.181119
604.359147	1566.813986
606.699394	1547.090210
609.037020	1531.007692
611.378081	1514.922378
613.714504	1506.806993
616.052345	1502.052448
618.387567	1486.980420
620.720174	1481.462238
623.054197	1473.601399
625.385607	1469.115385
627.716418	1461.136364
630.046631	1458.616783
632.376246	1455.360839
634.701239	1456.290210
637.031673	1452.547552
639.357485	1450.411189
641.680691	1453.762937
644.005312	1450.039161
646.327329	1439.300000
648.648751	1433.772727
650.967570	1414.922378
653.287805	1399.216084
655.607447	1381.036364
657.924488	1367.335664
660.240937	1351.813287
662.554788	1345.130769
664.870055	1339.899301
667.182725	1342.406993
669.496810	1350.534266
671.806295	1365.606294
674.117196	1376.576224
676.425504	1390.193706
678.733224	1402.655245
681.042359	1435.076923
683.346901	1503.395804
685.650856	1602.206993
687.954226	1723.579021
690.259010	1835.334266
692.559208	1916.771329
694.860820	1957.477622
697.161848	1952.770629
699.458293	1904.588811
701.756154	1810.390210
704.053431	1693.402797
706.350125	1565.118881
708.642243	1456.853846
710.937772	1393.505594
713.228728	1366.025874
715.521098	1364.662238
717.810892	1365.336364
720.100107	1367.076923
722.388741	1369.232867
724.674804	1369.056643
726.962280	1366.600699
729.247186	1362.799301
731.531513	1364.742657
733.813272	1356.594406
736.096445	1355.287413
738.379041	1357.488811
740.657082	1359.446154
742.936536	1361.388811
745.215415	1365.463636
747.493718	1364.031469
749.767472	1365.853846
752.042640	1363.559441
754.317234	1365.759441
756.589268	1365.733566
758.862716	1372.954545
761.133606	1378.202797
763.401940	1388.597902
765.671687	1401.369930
767.938880	1414.258741
770.205502	1421.153846
772.471555	1428.425175
774.735055	1433.009091
776.999969	1448.106993
779.264313	1463.656643
781.524128	1487.210490
783.785356	1518.903497
786.046015	1560.581818
788.304129	1603.854545
790.559698	1647.910490
792.818658	1707.622378
795.071119	1855.209790
797.328947	2157.527273
799.582255	2590.073427
801.833024	3038.023776
804.085205	3402.968531
806.334848	3627.031469
808.585902	3691.333566
810.832445	3595.585315
813.080400	3347.630769
815.325821	2969.055245
817.572653	2515.593007
819.818924	2068.016783
822.060691	1751.385315
824.305840	1612.223776
826.544517	1584.497203
828.786577	1579.816783
831.024138	1575.923077
833.263110	1568.023776
835.499556	1563.340559
837.737413	1554.288112
839.972745	1548.714685
842.205554	1541.825874
844.439774	1543.436364
846.671472	1540.968531
848.902615	1535.469231
851.133203	1531.109790
853.363236	1522.725175
855.592716	1511.691608
857.817714	1504.389510
860.046087	1497.087413
862.269981	1492.888811
864.495285	1477.611888
866.716114	1468.403497
868.940315	1457.213287
871.160043	1455.846154
873.381182	1453.972727
875.601770	1455.032867
877.819848	1460.594406
880.039337	1467.692308
882.254359	1476.804196
884.468833	1489.143357
886.682760	1502.561538
888.896139	1510.083916
891.108971	1507.523776
893.321257	1507.261538
895.531040	1499.406993
897.740278	1487.808392
899.948971	1474.834965
902.155165	1464.299301
904.362768	1454.182517
906.567874	1449.365035
908.772436	1448.669231
910.974502	1455.047552
913.177978	1463.586713
915.378960	1469.458741
917.579401	1476.965734
919.781249	1485.779720
921.976707	1483.427273
924.175524	1472.492308
926.369902	1457.390909
928.567638	1444.399301
930.760938	1428.118881
932.955647	1416.312587
935.147870	1404.240559
937.339555	1397.516084
939.530702	1391.116783
941.719366	1387.375524
943.907493	1388.242657
946.093140	1389.455245
948.282139	1393.435664
950.466715	1393.345455
952.650756	1389.118881
954.838147	1395.173427
957.017234	1395.489510
959.199672	1395.800699
961.381576	1388.938462
963.561006	1383.469231
965.737963	1377.436364
967.916327	1375.085315
970.096099	1368.643357
972.269522	1364.185315
974.446291	1365.232867
976.618653	1363.539860
978.792423	1361.962937
980.961789	1368.093706
983.134500	1365.784615
985.304744	1362.850350
987.474460	1358.065035
989.643647	1357.227273
991.808437	1358.625175
993.976568	1359.458741
996.140305	1359.613287
998.305448	1354.651049
1000.468133	1353.380420
1002.630291	1356.211888
1004.789993	1355.074825
1006.949171	1361.479021
1009.109755	1363.378322
1011.267884	1368.093007
1013.425489	1371.619580
1015.582571	1375.720280
1017.739130	1378.829371
1019.891309	1383.318182
1022.044894	1384.110490
1024.197958	1380.247552
1026.348574	1381.168531
1028.500595	1385.653846
1030.648243	1388.431469
1032.799223	1396.374126
1034.945832	1405.876923
1037.091923	1412.171329
1039.237494	1415.704196
1041.384471	1421.274825
1043.525159	1425.189510
1045.669177	1435.279021
1047.810754	1443.126573
1049.951815	1452.963636
1052.094280	1465.361538
1054.230466	1487.870629
1056.369978	1512.919580
1058.505134	1539.760839
1060.643615	1567.945455
1062.777742	1581.680420
1064.911356	1591.960839
1067.046375	1611.929371
1069.177044	1685.834266
1071.309118	1858.296503
1073.438763	2087.501399
1075.567896	2320.381119
1077.696517	2502.058741
1079.824627	2610.683916
1081.950311	2628.862937
1084.075485	2558.504895
1086.202063	2404.074825
1088.324304	2182.301399
1090.447948	1921.772727
1092.567259	1677.751049
1094.691798	1518.712587
1096.810092	1457.990909
1098.929791	1442.115385
1101.047071	1443.942657
1103.163845	1432.478322
1105.280112	1416.504196
1107.393964	1404.960839
1109.509219	1393.738462
1111.620152	1383.248252
1113.734396	1381.301399
1115.844320	1370.706993
1117.955648	1363.664336
1120.066471	1359.933566
1122.172979	1354.752448
1124.282795	1350.074825
1126.388297	1354.074825
1128.495202	1355.039161
1130.595892	1360.818182
1132.701794	1368.704895
1134.803387	1382.754545
1136.906383	1397.546853
1139.008878	1415.837063
1141.105166	1425.901399
1143.206662	1449.111888
1145.303855	1496.552448
1147.400549	1596.469231
1149.496745	1775.918881
1151.592444	2022.634965
1153.687645	2286.160140
1155.780449	2505.370629
1157.874655	2642.294406
1159.962670	2693.313986
1162.055883	2635.998601
1164.142908	2484.565734
1166.233232	2256.873427
1168.319269	1987.210490
1170.408603	1729.008392
1172.491756	1528.812587
1174.576311	1412.821678
1176.662268	1369.332168
1178.743943	1360.352448
1180.827020	1351.122378
1182.907711	1344.778322
1184.987910	1346.470629
1187.067618	1341.501399
1189.146835	1340.860140
1191.223670	1336.223776
1193.298124	1331.671329
1195.375870	1335.887413
1197.449345	1336.984615
1199.524221	1336.628671
1201.594830	1340.928671
1203.666841	1342.065734
1205.736475	1342.573427
1207.807510	1347.333566
1209.878057	1354.172028
1211.944343	1357.532168
1214.012030	1369.974126
1216.077345	1379.495105
1218.144060	1401.954545
1220.206519	1432.006294
1222.272263	1459.018881
1224.333754	1480.674825
1226.396644	1500.734266
1228.457167	1506.852448
1230.517206	1505.964336
1232.576763	1496.757343
1234.633954	1474.109790
1236.690664	1445.041958
1238.745011	1414.865035
1240.802638	1388.506294
1242.857903	1368.490909
1244.908927	1353.916084
1246.961351	1342.367133
1249.013295	1329.204895
1251.062881	1328.513986
1253.111988	1324.440559
1255.160617	1322.549650
1257.208767	1323.552448
1259.256439	1321.173427
1261.299880	1314.420280
1263.346596	1304.758042
1265.390959	1303.060839
1267.434846	1295.441259
1269.476382	1289.518182
1271.515567	1286.572727
1273.558026	1279.806294
1275.596262	1282.358042
1277.635897	1277.355245
1279.675057	1279.462937
1281.709998	1280.945455
1283.746339	1284.544056
1285.780334	1278.615385
1287.815728	1273.144056
1289.846908	1271.783217
1291.879487	1263.946154
1293.911593	1253.730070
1295.941359	1250.474825
1297.972523	1246.530070
1299.999479	1243.367133
1302.027833	1236.341259
1304.051983	1241.437762
1306.079397	1240.079720
1308.102609	1247.537063
1310.127219	1247.352448
1312.149495	1250.307692
1314.173168	1249.271329
1316.194508	1242.537063
1318.215380	1238.291608
1320.235786	1242.934965
1322.251997	1242.488112
1324.269606	1243.134965
1326.284888	1244.677622
1328.303427	1245.573427
1330.317778	1250.748951
1332.329803	1260.586014
1334.345085	1260.291608
1336.356182	1263.199301
1338.368676	1259.463636
1340.376987	1259.333566
1342.388554	1259.114685
1344.394081	1258.392308
1346.402864	1252.502098
1348.407469	1250.204196
1350.415328	1246.839161
1352.422725	1241.334266
1354.424091	1242.726573
1356.426854	1241.057343
1358.429156	1233.701399
1360.430999	1234.640559
1362.432382	1232.223776
1364.431452	1233.655245
1366.430063	1227.286014
1368.428216	1223.479720
1370.425911	1218.045455
1372.419442	1216.503497
1374.414370	1219.195105
1376.408841	1220.739161
1378.402855	1218.137063
1380.394561	1217.495105
1382.385813	1211.254545
1384.374759	1214.289510
1386.365100	1209.051748
1388.354986	1202.608392
1390.342569	1191.008392
1392.329697	1190.423776
1394.314525	1184.909091
1396.300746	1186.233566
1398.284668	1190.296503
1400.268137	1194.998601
1402.251154	1200.461538
1404.231872	1205.947552
1406.213986	1209.329371
1408.193802	1214.388811
1410.173168	1207.339860
1412.148394	1205.937063
1414.126860	1204.846853
1416.103031	1206.304196
1418.078754	1203.716084
1420.054027	1206.809790
1422.027009	1209.702797
1423.999543	1217.919580
1425.971630	1221.092308
1427.943268	1221.981818
1429.910778	1226.379720
1431.883363	1226.180420
1433.848141	1223.974126
1435.817991	1225.988811
1437.783718	1223.410490
1439.750837	1218.040559
1441.715673	1213.192308
1443.676390	1212.911888
1445.642174	1212.663636
1447.602003	1211.590909
1449.563225	1204.627972
1451.525840	1201.116084
1453.484340	1203.447552
1455.442398	1206.232867
1457.400013	1206.948252
1459.357187	1210.375524
1461.312085	1212.305594
1463.268375	1212.782517
1465.222391	1210.140559
1467.175967	1210.049650
1469.127270	1206.392308
1471.079965	1202.477622
1473.030389	1196.244056
1474.980373	1192.467133
1476.929919	1196.020979
1478.877196	1193.677622
1480.822206	1195.344056
1482.768607	1202.382517
1484.714572	1202.212587
1486.660098	1202.663636
1488.603360	1200.991608
1490.546185	1197.693706
1492.486747	1193.501399
1494.428700	1193.210490
1496.368392	1190.998601
1498.307648	1193.375524
1500.246469	1194.648252
1502.183031	1183.488811
1504.120984	1184.287413
1506.056679	1183.237063
1507.991939	1181.543357
1509.924944	1183.781818
1511.857516	1183.389510
1513.789656	1182.278322
1515.721364	1185.097203
1517.650818	1189.059441
1519.581663	1189.138462
1521.512077	1196.020979
1523.438417	1196.465035
1525.366149	1186.501399
1527.291630	1187.381818
1529.216682	1186.295804
1531.141305	1184.406993
1533.065499	1184.871329
1534.987446	1182.632867
1536.910782	1185.575524
1538.831873	1187.839860
1540.750719	1191.746853
1542.670955	1192.568531
1544.588947	1199.137762
1546.506513	1201.821678
1548.421837	1206.918881
1550.338551	1209.879021
1552.251210	1210.445455
1554.167073	1212.334965
1556.080696	1215.217483
1557.992082	1215.397203
1559.904856	1218.864336
1561.813581	1218.393706
1563.723696	1222.189510
1565.633387	1222.518182
1567.542654	1225.425874
1569.449688	1231.337762
1571.354489	1237.153846
1573.260679	1238.755245
1575.164637	1243.609790
1577.068175	1250.255245
1578.971291	1250.873427
1580.872179	1255.205594
1582.774454	1256.421678
1584.674502	1256.744755
1586.575937	1257.383217
1588.473339	1251.988811
1590.370322	1245.479021
1592.266887	1241.120979
1594.164840	1232.532867
1596.056958	1230.053147
1597.952269	1226.650350
1599.847163	1227.355245
1601.739835	1226.919580
1603.632091	1228.760140
1605.522126	1230.274825
1607.411747	1233.234965
1609.300951	1233.552448
1611.189741	1231.669231
1613.076314	1231.764336
1614.964273	1229.398601
1616.848216	1226.553147
1618.733547	1225.352448
1620.618463	1224.105594
1622.501166	1220.351748
1624.385256	1217.384615
1626.265335	1209.830070
1628.146800	1206.525874
1630.026055	1199.612587
1631.906696	1193.671329
1633.781533	1192.850350
1635.661352	1190.707692
1637.537165	1188.776224
1639.412568	1189.274825
1641.289358	1188.000699
1643.160350	1185.596503
1645.034524	1183.057343
1646.904700	1181.502797
1648.778056	1178.788811
1650.649209	1178.820280
1652.518160	1175.025874
1654.388497	1174.263636
1656.254840	1171.884615
1658.122569	1167.577622
1659.988100	1164.559441
1661.855015	1161.063636
1663.717942	1156.237063
1665.582254	1151.153846
1667.444370	1148.463636
1669.306082	1147.872028
1671.169178	1143.175524
1673.030080	1142.853846
1674.888788	1140.635664
1676.747093	1140.096503
1678.606783	1137.232867
1680.460706	1134.244056
1682.317801	1131.846154
1684.174494	1125.581119
1686.027211	1119.282517
1687.883098	1117.167832
1689.735012	1113.405594
1691.586525	1112.386713
1693.437637	1104.319580
1695.288349	1100.879021
1697.138660	1099.059441
1698.986787	1098.306993
1700.836297	1096.489510
1702.680059	1093.493706
1704.528770	1092.134266
1706.371736	1088.923077
1708.217867	1090.083217
1710.060037	1092.160839
1711.905371	1090.780420
1713.744965	1090.358042
1715.585943	1086.239860
1717.428304	1083.597902
1719.266709	1086.771329
1721.106497	1089.309091
1722.944110	1088.978322
1724.781327	1086.755245
1726.616371	1085.474126
1728.452798	1085.198601
1730.287053	1081.524476
1732.120913	1079.300000
1733.954380	1074.672727
1735.783900	1068.679021
1737.616579	1064.951748
1739.445314	1066.633566
1741.277207	1067.965035
1743.105157	1067.962937
1744.932715	1068.682517
1746.759881	1070.125874
1748.586656	1072.468531
1750.413040	1073.404196
1752.235487	1069.926573
1754.061088	1074.329371
1755.882755	1068.432168
1757.705804	1066.955944
1759.526692	1065.858741
1761.347190	1065.828671
1763.169070	1061.067832
1764.985250	1064.186713
1766.804582	1068.890210
1768.619987	1073.620280
1770.438542	1073.526573
1772.253172	1070.901399
1774.067416	1071.736364
1775.881272	1070.017483
1777.694742	1064.248252
1779.506059	1064.019580
1781.318757	1062.966434
1783.131068	1062.283916
1784.939462	1059.600699
1786.749237	1060.716084
1788.555096	1059.046154
1790.364101	1055.730070
1792.169193	1051.408392
1793.975666	1050.837063
1795.781755	1050.567133
1797.583934	1048.574825
1799.389256	1048.043357
1801.190670	1049.926573
1802.993464	1052.486014
1804.792352	1052.572727
1806.592621	1048.761538
1808.392508	1046.548252
1810.190254	1042.251049
1811.987618	1034.555245
1813.784603	1027.897203
1815.581207	1024.710490
1817.375672	1019.265035
1819.171516	1022.407692
1820.961706	1020.934266
1822.756792	1023.136364
1824.546225	1026.058741
1826.338795	1029.183217
1828.129230	1032.199301
1829.917531	1037.968531
1831.708967	1040.969930
1833.494757	1041.687413
1835.281927	1035.511888
1837.066965	1035.825175
1838.855137	1031.260140
1840.639423	1032.777622
1842.421580	1030.234965
1844.205115	1028.452448
1845.986522	1025.181119
1847.769308	1027.045455
1849.548214	1033.098601
1851.328498	1032.739161
1853.106656	1029.324476
1854.886193	1023.656643
1856.663605	1019.746853
1858.438893	1018.518881
1860.215560	1013.228671
1861.990103	1011.482517
1863.766025	1010.513287
1865.536326	1013.365035
1867.309755	1016.585315
1869.081064	1021.701399
1870.852003	1021.574825
1872.624318	1016.269930
1874.391020	1014.114685
1876.160848	1017.361538
1877.926812	1021.299301
1879.695900	1019.907692
1881.461126	1021.139161
1883.225983	1019.597902
1884.992218	1023.683916
1886.754594	1032.136364
1888.516603	1034.856643
1890.278244	1028.591608
1892.039519	1023.488112
1893.800426	1017.914685
1895.560967	1017.478322
1897.319398	1014.502098
1899.077464	1006.518182
1900.833421	999.895105
1902.590756	996.393706
1904.347724	994.300000
1906.102587	996.467133
1907.855344	996.758741
1909.607738	991.374126
1911.361507	987.155944
1913.113173	985.330070
1914.862737	981.965734
1916.613677	983.504196
1918.364253	982.081119
1920.110990	980.975524
1921.859104	982.327972
1923.605118	984.886014
1925.352508	989.593007
1927.097799	989.906993
1928.840993	989.745455
1930.585563	987.865734
1932.328036	991.291608
1934.070149	989.634266
1935.811902	989.529720
1937.553296	991.092308
1939.292596	995.584266
1941.031536	993.693706
1942.770119	994.429021
1944.506609	995.888811
1946.242742	998.749301
1947.980249	999.691608
1949.713934	997.969580
1951.448994	996.763636
1953.181966	998.219231
1954.914581	994.672028
1956.646839	995.561888
1958.378741	995.052448
1960.108557	996.041958
1961.836289	991.208392
1963.565394	994.339161
1965.294145	992.045455
1967.020812	992.216084
1968.747125	986.986713
1970.474811	980.187413
1972.196961	980.000000
1973.922212	983.837762
1975.643657	984.309091
1977.368201	987.863636
1979.090666	988.006294
1980.809327	990.604196
1982.531087	994.215385
1984.249045	998.737063
1985.968376	998.486713
1987.683908	997.686713
1989.404261	995.512587
1991.120814	996.224476
1992.833571	999.242657
1994.549425	1003.998601
1996.263205	999.695105
1997.976636	998.367133
1999.687996	995.730769
2001.400729	995.777622
2003.109670	991.815385
2004.821705	989.108392
2006.528230	983.877622
2008.237848	982.474825
2009.945398	984.264336
2011.652601	984.358741
2013.357738	988.774126
2015.062528	994.988112
2016.768690	990.962238
2018.471070	988.346853
2020.174822	986.514685
2021.876510	985.505594
2023.577854	977.646853
2025.278852	977.598601
2026.977790	973.790210
2028.678098	975.084615
2030.374632	972.413986
2032.072537	973.006294
2033.768383	978.419580
2035.467315	978.822378
2037.160761	979.276923
2038.855579	981.295105
2040.550053	982.597203
2042.240759	984.348252
2043.934549	981.925874
2045.624572	983.139161
2047.315966	978.969231
2049.005307	976.685315
2050.696018	968.007692
2052.382966	967.634266
2054.069575	960.683916
2055.757554	960.181119
2057.441773	962.627972
2059.127362	962.421678
2060.812612	957.304895
2062.495814	955.197203
2064.180385	948.169231
2065.859494	945.299301
2067.543388	943.488811
2069.221822	941.948951
2070.903332	939.423776
2072.581092	943.516084
2074.258514	944.869930
2075.937306	947.869930
2077.614056	947.288811
2079.288764	949.556643
2080.964841	943.877622
2082.638878	939.169930
2084.312579	932.323776
2085.985945	934.772028
2087.657273	933.706993
2089.328266	932.806294
2090.998925	932.202098
2092.669249	931.865734
2094.339240	934.345455
2096.007195	931.873427
2097.674817	929.994406
2099.340404	935.183217
2101.007361	930.366434
2102.672283	933.875524
2104.336874	936.935664
2105.999433	940.741958
2107.663360	940.406294
2109.325257	942.765734
2110.986822	942.036364
2112.648056	943.998601
2114.307262	948.039161
2115.966137	949.454545
2117.624683	950.977622
2119.282899	957.170629
2120.937391	955.390210
2122.594948	959.417483
2124.252176	954.132168
2125.905682	953.534266
2127.560556	952.200000
2129.211712	951.055245
2130.865929	947.401399
2132.516430	950.339860
2134.168297	952.039860
2135.814756	951.426573
2137.465970	951.643357
2139.113470	950.625175
2140.762337	947.944755
2142.409186	943.880420
2144.055708	940.576224
2145.701905	942.828671
2147.344394	940.958042
2148.989941	935.680420
2150.631781	928.790210
2152.276678	932.962238
2153.917870	928.044056
2155.558738	920.576224
2157.199282	917.764336
2158.837814	915.562937
2160.477712	909.225175
2162.113910	904.938462
2163.751475	905.527273
2165.388716	904.815385
2167.023948	904.804895
2168.658859	903.868531
2170.293448	903.062238
2171.927715	907.485315
2173.558289	907.277622
2175.191915	906.311189
2176.821849	910.223776
2178.453148	908.662238
2180.082442	904.369930
2181.711417	898.732867
2183.340073	896.988811
2184.968409	897.762937
2186.594742	895.584615
2188.220757	892.681119
2189.844771	886.381119
2191.470149	885.790210
2193.093528	885.942657
2194.718270	886.125874
2196.339332	887.476224
2197.960077	883.816084
2199.582187	882.446154
2201.202299	881.316084
2202.820414	883.769231
2204.438214	886.283916
2206.055699	884.630769
2207.672868	884.013287
2209.289722	884.538462
2210.906261	882.727273
2212.520806	881.520979
2214.133359	879.448951
2215.747276	875.428671
2217.359202	875.241958
2218.972491	874.622378
2220.583790	875.279720
2222.193099	877.425874
2223.803772	881.360839
2225.412456	883.790909
2227.020828	885.432168
2228.627212	887.585315
2230.234960	886.105594
2231.840721	886.338462
2233.446171	881.757343
2235.049636	879.242657
2236.654464	880.037063
2238.257309	877.188811
2239.858170	874.660140
2241.460393	872.683217
2243.060635	870.853846
2244.662239	868.894406
2246.260191	866.944056
2247.859505	867.560140
2249.456839	871.525874
2251.053864	875.567832
2252.652252	877.722378
2254.246991	879.295804
2255.839753	880.305594
2257.433878	877.334266
2259.029364	871.472727
2260.621206	866.131469
2262.212741	866.155944
2263.805637	863.065734
2265.393224	857.797203
2266.985508	858.017483
2268.572484	859.373427
2270.162489	860.487413
2271.747189	860.884615
2273.336583	859.681119
2274.920674	858.460839
2276.506127	854.369930
2278.089610	851.529371
2279.676120	845.998601
2281.258996	844.913986
2282.841568	839.634266
2284.423837	835.624476
2286.002477	831.451049
2287.584140	831.818182
2289.162175	832.697902
2290.743233	832.339161
2292.320665	833.380420
2293.896132	836.143357
2295.474622	835.209790
2297.049488	838.186713
2298.624053	832.562937
2300.198318	834.110490
2301.772282	831.518182
2303.345946	829.025175
2304.919309	824.879720
2306.489054	824.795804
2308.058500	820.417483
2309.630965	816.672727
2311.198154	818.583916
2312.768362	817.477622
2314.334955	816.247552
2315.902908	820.944056
2317.468905	817.624476
2319.034605	823.855245
2320.600008	830.246853
2322.163456	839.146154
2323.728264	846.162238
2325.289464	848.723077
2326.853678	847.606294
2328.412631	847.641259
2329.974597	845.290909
2331.534613	840.093007
2333.094333	835.277622
2334.652104	828.450350
2336.209580	819.011888
2337.766762	820.192308
2339.321997	821.210490
2340.876937	822.557343
2342.431584	822.275524
2343.985937	823.390210
2345.539996	820.923077
2347.093761	818.790210
2348.645583	817.624476
2350.195461	819.153147
2351.748347	820.157343
2353.295991	818.162937
2354.846642	818.569231
2356.393702	819.786014
2357.942121	819.802797
2359.490247	818.860839
2361.034785	816.925175
2362.580681	815.362937
2364.124639	809.221678
2365.669954	805.520280
2367.211684	802.523776
2368.754771	800.825175
2370.295923	798.259441
2371.836785	796.634965
2373.377358	797.026573
2374.917641	798.413986
2376.457636	802.116084
2377.994053	801.154545
2379.533471	797.455944
2381.069312	796.184615
2382.606509	796.328671
2384.140131	799.555944
2385.676754	798.193007
2387.211445	797.356643
2388.744207	797.155245
2390.276682	798.820280
2391.807230	797.727273
2393.340775	797.562937
2394.869109	798.132867
2396.398799	795.122378
2397.928204	792.150350
2399.457323	793.504196
2400.986158	791.771329
2402.509787	795.459441
2404.038053	795.910490
2405.561115	795.406294
2407.088811	796.016084
2408.609668	795.860839
2410.135158	790.160140
2411.657087	790.239860
2413.180372	791.631469
2414.701736	784.904895
2416.221180	780.916084
2417.741979	777.616084
2419.260859	781.802098
2420.779457	788.409790
2422.296138	790.450350
2423.814173	790.835664
2425.331927	788.557343
2426.846130	792.141958
2428.360052	789.885315
2429.873694	791.130769
2431.388691	785.340559
2432.900139	776.416084
2434.412942	770.479021
2435.923832	769.572028
2437.434442	776.678322
2438.943141	777.855944
2440.454827	775.218881
2441.962968	771.582517
2443.470832	771.368531
2444.978418	775.181818
2446.482463	774.378322
2447.989494	772.088811
2449.494616	767.278322
2450.999461	764.882517
2452.502399	758.883916
2454.005060	758.495105
2455.507445	761.655944
2457.007925	756.676923
2458.509758	751.724476
2460.009687	748.596503
2461.509340	746.776224
2463.008717	742.102098
2464.506192	740.086014
2466.001765	738.669231
2467.500319	738.435664
2468.995343	739.811888
2470.491721	736.269930
2471.984571	738.957343
2473.478775	740.739860
2474.972705	737.683217
2476.463112	735.958042
2477.956495	737.311189
2479.447981	736.417483
2480.937570	736.537063
2482.426887	737.893007
2483.914309	736.003497
2485.404706	735.503497
2486.891584	733.332867
2488.379814	728.087413
2489.864528	729.418182
2491.348971	724.477622
2492.834766	727.968531
2494.318668	728.179720
2495.803922	733.717483
2497.284042	736.922378
2498.767134	741.983916
2500.248336	742.517483
2501.729269	744.517483
2503.208313	746.566434
2504.687088	744.524476
2506.165595	738.786014
2507.643834	738.877622
2509.121804	731.243357
2510.596270	728.522378
2512.073704	721.453846
2513.547635	721.062937
2515.022916	719.655245
2516.497931	720.453147
2517.969444	718.525175
2519.442307	719.431469
2520.913288	719.476224
2522.385619	718.869930
2523.852837	715.541259
2525.323020	721.637762
2526.791323	721.537063
2528.259361	724.634266
2529.727134	726.581119
2531.194642	732.001399
2532.661885	729.702797
2534.125636	728.059441
2535.590737	723.986014
2537.053961	719.404196
2538.518535	720.313986
2539.979619	719.886014
2541.442053	717.792308
2542.904224	721.344755
2544.362909	723.727972
2545.826166	727.479720
2547.284326	727.189510
2548.743835	726.873427
2550.198251	718.981818
2551.657236	714.889510
2553.114350	714.261538
2554.569593	712.052448
2556.024575	713.081119
2557.477687	713.449650
2558.932148	710.120979
2560.384740	710.325175
2561.837072	710.693706
2563.287536	713.485315
2564.740956	711.932168
2566.189294	712.612587
2567.640588	707.858042
2569.090015	710.746154
2570.535970	710.774126
2571.984881	710.210490
2573.430320	712.109091
2574.877108	708.537063
2576.322032	703.904196
2577.766699	704.100000
2579.212713	701.541958
2580.655260	699.979021
2582.099155	697.086014
2583.539585	694.221678
2584.981362	691.655944
2586.421280	693.637063
2587.862545	690.576923
2589.300349	690.639860
2590.741102	692.775524
2592.176792	693.428671
2593.615432	696.237762
2595.052215	700.957343
2596.487141	704.473427
2597.925016	704.486713
2599.357832	705.450350
2600.791996	703.102098
2602.224306	703.897902
2603.657962	704.369231
2605.089765	696.411189
2606.521315	689.028671
2607.952611	688.719580
2609.382055	684.155944
2610.811248	684.419580
2612.238589	684.532168
2613.667277	685.076224
2615.095712	681.342657
2616.520700	680.663636
2617.947035	681.941259
2619.371521	683.779720
2620.797353	685.466434
2622.219741	678.315385
2623.643475	677.941259
2625.065362	679.194406
2626.487000	680.516084
2627.906792	685.743357
2629.327930	683.558042
2630.748818	680.086713
2632.166268	677.786713
2633.586657	673.355944
2635.003609	671.244755
2636.420313	669.044056
2637.836768	667.316783
2639.252975	663.386014
2640.668933	662.322378
2642.083051	661.552448
2643.496922	665.406993
2644.908953	663.097203
2646.322329	661.029371
2647.732275	659.070629
2649.145156	661.235664
2650.554610	660.503497
2651.963817	660.721678
2653.371187	660.425175
2654.781493	663.269231
2656.189962	664.148252
2657.596596	664.884615
2659.002985	665.524476
2660.407540	666.938462
2661.813439	666.536364
2663.217505	669.493706
2664.621326	669.791608
2666.024904	673.584615
2667.426649	673.753147
2668.829738	675.492308
2670.229409	677.053846
2671.630424	679.591608
2673.028023	678.855944
2674.428552	676.538462
2675.825666	671.351748
2677.224123	670.022378
2678.620752	668.911888
2680.017139	663.955245
2681.413285	660.030070
2682.807604	660.748951
2684.203266	657.553846
2685.595518	659.069231
2686.989114	660.658042
2688.380885	661.038462
2689.773998	662.190210
2691.165288	662.405594
2692.554755	661.589510
2693.943982	662.869930
2695.332970	658.727972
2696.723300	651.491608
2698.108645	650.229371
2699.496914	652.791608
2700.883363	646.786014
2702.269573	643.690210
2703.655545	643.639860
2705.038117	644.034266
2706.422032	642.970629
2707.805709	643.885315
2709.189148	643.207692
2710.569191	642.673427
2711.950576	638.579021
2713.330145	634.666434
2714.711056	636.744755
2716.090151	639.454545
2717.467433	634.079021
2718.846056	634.915385
2720.222866	636.665734
2721.599440	636.183916
2722.975778	635.694406
2724.350304	637.895105
2725.726171	639.264336
2727.098651	639.275524
2728.474047	636.916783
2729.844483	639.155944
2731.216260	641.853147
2732.587802	640.683217
2733.957536	636.816783
2735.328611	637.476224
2736.697877	635.469930
2738.066911	632.604895
2739.434137	634.679021
2740.801131	633.713986
2742.167892	633.411888
2743.534420	633.390210
2744.899143	632.449650
2746.263635	634.093706
2747.627894	630.046853
2748.991921	627.335664
2750.355717	625.270629
2751.716139	624.994406
2753.079472	623.465035
2754.437862	621.075524
2755.799162	620.913287
2757.157091	620.013287
2758.517930	617.504895
2759.876968	617.113986
2761.232638	617.004895
2762.591216	613.962238
2763.946428	608.075524
2765.301410	606.547552
2766.654595	605.983217
2768.010687	604.072028
2769.363415	601.053846
2770.715914	600.964336
2772.068185	599.726573
2773.421795	597.625874
2774.772043	594.856643
2776.120498	594.792308
2777.471857	596.047552
2778.819857	593.474825
2780.169196	590.523077
2781.516742	588.627273
2782.864061	585.486713
2784.211154	582.493007
2785.556456	580.817483
2786.901532	582.282517
2788.246382	581.238462
2789.591005	579.367133
2790.932277	578.020280
2792.274887	579.205594
2793.617271	581.370629
2794.959431	583.949650
2796.298241	586.120979
2797.639950	586.758741
2798.978312	584.298601
2800.318011	585.755944
2801.655924	584.154545
2802.992053	585.377622
2804.327958	588.898601
2805.665201	589.023776
2807.000660	589.057343
2808.335896	590.665734
2809.669349	590.303497
2811.004140	588.513986
2812.335589	583.220979
2813.669934	579.206294
2814.999381	574.954545
2816.330165	571.907692
2817.660727	565.188112
2818.989510	566.931469
2820.319629	570.518881
2821.647970	571.727972
2822.976090	572.756643
2824.302432	573.660839
2825.630111	574.222378
2826.954457	574.095804
2828.280138	572.236364
2829.604044	572.479720
2830.927731	567.811888
2832.252753	564.007692
2833.574445	559.129371
2834.895919	559.115385
2836.217174	556.533566
2837.538210	555.537762
2838.857474	553.249650
2840.178073	552.818881
2841.496900	552.181119
2842.815509	553.411888
2844.132347	552.378322
2845.448968	550.187413
2846.765372	546.157343
2848.080007	546.858042
2849.395976	545.413287
2850.708625	546.037762
2852.022610	545.030070
2853.336377	545.975524
2854.649929	546.871329
2855.961713	543.775524
2857.271731	543.106294
2858.583084	545.027972
2859.891122	546.694406
2861.200495	551.425874
2862.509652	557.200000
2863.818594	558.379021
2865.125773	560.606294
2866.431188	564.867133
2867.737938	560.469231
2869.042925	558.390210
2870.347699	554.435664
2871.650711	548.043357
2872.956605	549.564336
2874.257643	548.898601
2875.560016	552.025874
2876.860629	554.227972
2878.162576	555.269930
2879.464310	552.241259
2880.762739	551.291608
2882.062503	550.276923
2883.360508	545.845455
2884.658302	544.627972
2885.954340	541.036364
2887.251711	545.265734
2888.547326	548.176923
2889.842730	547.287413
2891.137924	546.932168
2892.429819	544.867832
2893.724591	544.406294
2895.016066	542.746853
2896.308874	539.679720
2897.601472	541.125175
2898.890776	536.413986
2900.181412	533.694406
2901.470297	529.829371
2902.760515	534.369231
2904.047440	531.762238
2905.335699	529.764336
2906.622207	528.692308
2907.908508	527.524476
2909.194600	528.153846
2910.478944	530.605594
2911.766160	529.160140
2913.048548	531.372727
2914.332269	530.231469
2915.614244	532.035664
2916.896012	532.497902
2918.176034	536.274825
2919.458926	534.872727
2920.740073	537.693706
2922.017938	537.021678
2923.298672	534.497203
2924.576125	533.099301
2925.853372	529.823776
2927.128878	525.018881
2928.407251	525.459441
2929.680809	525.490909
2930.957235	521.966434
2932.231920	519.310490
2933.504865	515.221678
2934.779140	515.351748
2936.051676	517.183217
2937.324008	514.090909
2938.593066	513.717483
2939.864990	512.198601
2941.135176	513.291608
2942.405159	515.672727
2943.674938	517.025175
2944.942980	516.125874
2946.209287	516.397203
2947.475391	512.148252
2948.742825	510.072727
2950.008525	512.161538
2951.274022	513.227273
2952.539317	511.262238
2953.801347	511.932168
2955.064708	512.990909
2956.327866	516.634266
2957.589293	519.154545
2958.852049	517.466434
2960.113074	514.276923
2961.372367	511.632867
2962.631461	503.823776
2963.890354	503.555245
2965.149047	502.365035
2966.407540	502.288811
2967.664304	503.644056
2968.920868	504.886014
2970.175705	506.427273
2971.431871	509.320280
2972.684781	510.626573
2973.939021	511.307692
2975.193062	508.567133
2976.445377	506.300699
2977.697494	502.690909
2978.947886	499.623077
2980.201133	494.513287
2981.449603	493.144056
2982.700927	491.631469
2983.949003	488.813986
2985.196881	486.206294
2986.444562	485.218182
2987.692047	486.004196
2988.937810	487.770629
2990.183376	486.420979
2991.430270	484.952448
2992.673920	484.184615
2993.918898	481.188112
2995.160633	478.506294
2996.405218	478.581119
2997.648085	478.417483
2998.887711	481.993706
3000.130187	482.467133
3001.369424	484.037063
3002.609988	487.429371
3003.848835	491.043357
3005.087488	491.869231
3006.324425	488.374825
3007.562689	488.144755
3008.799239	485.009790
3010.035594	479.508392
3011.271756	477.016783
3012.506205	476.006993
3013.740460	475.221678
3014.974522	473.276224
3016.206872	475.080420
3017.437510	476.002098
3018.670994	477.269930
3019.902766	474.767133
3021.132828	475.886014
3022.362698	473.869231
3023.590858	472.778322
3024.820344	469.146154
3026.048122	469.284615
3027.275708	468.608392
3028.504620	468.092308
3029.728790	471.092308
3030.955803	473.044755
3032.179592	469.761538
3033.404708	470.767832
3034.628117	473.262937
3035.851337	475.746154
3037.072851	472.713287
3038.297206	471.823077
3039.516826	472.164336
3040.737771	474.723077
3041.958528	471.517483
3043.177581	472.537762
3044.397960	472.146154
3045.615122	467.272028
3046.833609	464.088811
3048.050394	463.584615
3049.266992	463.675524
3050.483401	462.787413
3051.696598	458.406294
3052.912632	457.811189
3054.125454	460.239161
3055.341113	457.709790
3056.552049	456.218182
3057.764310	458.941259
3058.976385	457.219580
3060.188273	455.874126
3061.398463	458.308392
3062.608467	460.696853
3063.818286	464.069231
3065.026408	463.429021
3066.234344	460.418881
3067.440586	463.459091
3068.648151	460.209790
3069.854023	457.064685
3071.059709	455.325874
3072.265210	454.725524
3073.469018	453.052448
3074.674150	451.356294
3075.877590	449.840559
3077.079337	448.241608
3078.280901	447.202797
3079.482281	444.455944
3080.683477	442.221678
3081.882983	444.689510
3083.082305	441.722378
3084.282951	443.453147
3085.481907	442.227972
3086.677669	444.693706
3087.876260	442.502098
3089.071657	437.772028
3090.268377	435.218182
3091.461905	433.362238
3092.658261	433.260140
3093.852931	431.327972
3095.044410	430.496503
3096.240220	429.690210
3097.431337	427.634266
3098.623776	426.607692
3099.813028	426.675524
3101.005106	430.087413
3102.195499	430.236364
3103.382707	427.967832
3104.571238	430.015385
3105.761091	430.923077
3106.947759	431.911189
3108.134248	429.398601
3109.320557	428.570629
3110.508188	422.744755
3111.692638	421.748951
3112.875407	418.676224
3114.061000	420.259441
3115.244912	421.843357
3116.427146	424.600699
3117.609201	423.811189
3118.791079	427.879021
3119.972778	430.720979
3121.152799	427.853846
3122.331144	427.744755
3123.512310	426.764336
3124.690300	425.920979
3125.868113	429.100699
3127.045749	427.777622
3128.221710	427.162238
3129.397494	429.153846
3130.574600	430.247552
3131.750031	427.637762
3132.923789	426.748252
3134.095875	425.118881
3135.269281	420.286014
3136.442512	423.051748
3137.614070	421.181818
3138.786950	422.168531
3139.956662	423.322378
3141.127695	419.992308
3142.297057	418.817483
3143.464750	419.795105
3144.635258	413.888112
3145.801107	411.068531
3146.971266	410.798601
3148.136767	409.991608
3149.302095	409.616084
3150.467249	410.339860
3151.632229	412.116084
3152.798530	411.368531
3153.960177	411.047552
3155.123145	405.893706
3156.285939	404.572727
3157.448561	402.423776
3158.609518	398.430070
3159.770302	399.057343
3160.930914	397.917483
3162.089863	397.976224
3163.248639	395.758741
3164.407244	396.758042
3165.565677	399.914685
3166.723938	397.764336
3167.880537	396.225874
3169.035475	395.180420
3170.191732	395.516084
3171.346329	395.484615
3172.500754	393.806993
3173.653520	396.555245
3174.806116	395.616783
3175.958541	398.267133
3177.110797	397.425874
3178.262883	401.464336
3179.411822	403.617483
3180.563568	403.587413
3181.713656	404.648252
3182.862088	405.725874
3184.010351	405.660140
3185.158444	403.081818
3186.306369	403.423077
3187.452639	405.093007
3188.598740	404.637762
3189.743186	404.625175
3190.887465	402.979720
3192.031576	405.051748
3193.177005	403.941259
3194.319294	403.918881
3195.461417	402.362238
3196.603372	399.400000
3197.745161	395.350350
3198.886782	391.226573
3200.025267	391.072727
3201.165070	387.300699
3202.306191	388.212587
3203.444177	384.844755
3204.580514	385.935664
3205.716685	389.944755
3206.854174	389.093706
3207.990013	394.301399
3209.127170	392.361538
3210.259714	390.492308
3211.396540	388.397203
3212.528754	387.435664
3213.662286	384.200000
3214.795652	379.281818
3215.925891	376.049650
3217.058928	374.640559
3218.188839	373.256643
3219.320067	371.772727
3220.448169	370.767133
3221.579068	368.728671
3222.708324	364.679720
3223.835935	365.972028
3224.960425	368.653846
3226.089190	371.739161
3227.214833	371.266434
3228.340313	367.458741
3229.464152	367.621678
3230.590785	371.164336
3231.712821	369.656643
3232.836173	371.232867
3233.959363	367.018881
3235.082391	363.172028
3236.203779	362.896503
3237.325006	366.201399
3238.444594	365.981119
3239.564021	369.413287
3240.681810	368.272028
3241.802392	368.044755
3242.919859	371.016084
3244.037167	374.223776
3245.154313	377.485315
3246.269824	377.288811
3247.386650	372.606993
3248.500365	373.960140
3249.616870	370.826573
3250.731741	369.881818
3251.843503	367.300699
3252.955106	369.838462
3254.068023	367.063636
3255.180782	365.640559
3256.290434	366.100699
3257.401400	369.612587
3258.512208	369.600699
3259.621385	370.953147
3260.728930	372.500699
3261.837790	375.024476
3262.946491	372.313287
3264.052090	368.662238
3265.159003	365.641958
3266.264288	362.693007
3267.370886	357.565734
3268.474384	358.266434
3269.579196	358.697203
3270.683851	360.647552
3271.785407	358.715385
3272.886808	366.557343
3273.989522	367.297902
3275.092079	369.272028
3276.191540	364.983217
3277.293785	363.516783
3278.392934	364.365734
3279.490459	364.258741
3280.587828	365.081119
3281.687980	367.070629
3282.785038	364.071329
3283.881941	362.597902
3284.978689	359.589510
3286.070879	360.952448
3287.167317	355.400000
3288.262134	353.424476
3289.356795	350.469930
3290.449835	350.754545
3291.542721	351.425874
3292.633986	350.196503
3293.726564	349.046853
3294.817521	348.767133
3295.906859	347.797902
3296.996044	349.324476
3298.086542	351.160140
3299.173955	354.467133
3300.261216	352.398601
3301.349789	352.789510
3302.438209	353.474825
3303.522082	352.381818
3304.610197	350.422378
3305.695231	347.941259
3306.778648	343.063636
3307.863378	344.807692
3308.946493	342.404895
3310.030919	345.061538
3311.112267	345.476923
3312.194927	347.338462
3313.275973	343.649650
3314.356868	345.774126
3315.436150	348.677622
3316.515281	348.716783
3317.595723	345.069231
3318.673092	342.776224
3319.751771	340.611888
3320.828840	343.979720
3321.905758	340.228671
3322.981065	341.202098
3324.056223	339.513986
3325.132692	341.612587
3326.206091	340.559441
3327.279341	341.925874
3328.353902	343.317483
3329.426853	341.669231
3330.498197	336.897902
3331.570851	335.350350
3332.640438	335.183217
3333.711336	334.388112
3334.780627	333.514685
3335.851229	333.055245
3336.920224	331.787413
3337.987613	332.746154
3339.053397	332.851748
3340.123407	333.897902
3341.190354	333.438462
3342.254239	333.487413
3343.320892	333.249650
3344.385940	330.727273
3345.449385	332.836364
3346.512684	334.991608
3347.575836	334.216084
3348.638842	335.704196
3349.701702	333.006993
3350.762960	332.010490
3351.821161	329.974126
3352.883583	330.034266
3353.942948	326.947552
3355.002168	327.220280
3356.062698	326.812587
3357.118718	329.084615
3358.177503	331.808392
3359.231780	333.706993
3360.288820	330.772028
3361.344263	336.211888
3362.401014	333.654545
3363.456168	332.959441
3364.509724	328.637063
3365.561683	327.817483
3366.616404	324.247552
3367.668076	324.859441
3368.719605	325.427972
3369.772443	327.494406
3370.822233	324.158042
3371.873331	325.108392
3372.921384	324.351748
3373.972197	328.986014
3375.019964	326.932168
3376.067589	329.995105
3377.115071	324.347552
3378.160961	324.857343
3379.208159	322.506294
3380.252315	323.413986
3381.299229	321.317483
3382.344551	318.113986
3383.386833	317.195804
3384.428973	318.860839
3385.472421	320.241958
3386.515729	321.872727
3387.557446	323.223077
3388.599022	326.241259
3389.640458	323.319580
3390.680304	325.745455
3391.718563	324.177622
3392.758129	321.830070
3393.797554	318.365035
3394.835392	316.383916
3395.871643	316.694406
3396.907755	315.181818
3397.945174	315.042657
3398.979560	314.960839
3400.015253	317.802797
3401.050807	317.765734
3402.083330	321.783217
3403.118606	323.656643
3404.150851	323.039860
3405.182958	320.578322
3406.213481	318.446853
3407.245312	318.501399
3408.277003	316.900699
3409.305668	314.304895
3410.334194	317.572727
3411.364028	317.799301
3412.393723	317.551049
3413.420393	314.969930
3414.448370	317.913287
3415.473322	317.980420
3416.501024	314.730769
3417.525703	314.383916
3418.551688	313.500000
3419.576093	316.226573
3420.600362	312.146154
3421.623052	313.732168
3422.645606	314.513986
3423.669466	311.492308
3424.690306	309.403497
3425.711011	307.601099
3426.733021	306.449700
3427.752013	306.244755
3428.770870	307.281718
3429.791032	309.856044
3430.808178	314.263187
