-118.187858	3.971703
-115.518258	4.056044
-112.851593	4.004246
-110.185680	3.817882
-107.522699	3.498526
-104.858289	3.047752
-102.196809	2.467133
-99.533899	-0.483217
-96.876097	1.813287
-94.216864	0.109790
-91.558380	0.715385
-88.902821	-1.034266
-86.245833	0.779021
-83.593942	1.712587
-80.940622	3.349650
-78.290222	1.534266
-75.638392	1.666434
-72.991653	1.490909
-70.343484	3.440559
-67.696059	0.979021
-65.051547	4.234266
-62.405607	1.719580
-59.764748	1.376923
-57.122460	-0.538462
-54.483080	-1.868531
-51.842272	-1.758741
-49.202204	-4.091608
-46.567208	-4.572028
-43.930783	-0.983916
-41.297262	-0.367832
-38.662312	3.225874
-36.032427	4.397902
-33.398950	8.959441
-30.770535	10.025175
-28.142853	10.879021
-25.513744	5.727273
-22.889691	-13.354545
-20.262049	-71.404196
-17.639460	-176.109091
-15.017602	-201.468531
-12.396476	198.650350
-9.776079	857.360140
-7.158570	1411.582517
-4.539633	1796.526573
-1.923582	2011.329371
0.691741	2051.392308
3.306337	1920.453846
5.918050	1618.191608
8.531192	1157.371329
11.139300	579.278322
13.750990	9.586014
16.357649	-309.560140
18.965736	-198.416084
21.573099	-24.349650
24.175437	0.948252
26.781353	-1.213287
29.382247	0.139860
31.984570	-0.882517
34.581874	4.269231
37.182754	4.639860
39.778620	7.906294
42.375913	9.659441
44.972487	10.479720
47.564052	11.127972
50.157045	10.663636
52.747177	6.404895
55.338737	3.290909
57.927437	0.188811
60.517564	1.320280
63.102693	1.260839
65.689249	4.225175
68.275090	3.555944
70.858078	5.625175
73.442493	4.496503
76.019778	5.793706
78.600630	3.676923
81.178633	3.013287
83.755926	-0.215385
86.334645	-0.400000
88.908383	-1.229371
91.483547	1.893706
94.055868	1.989510
96.627481	4.244755
99.196255	5.412587
101.766455	6.411888
104.333816	5.463636
106.902604	5.400000
109.468554	2.656643
112.031670	2.585315
114.598342	6.546154
117.155793	23.350350
119.718929	47.084615
122.277106	74.920280
124.838836	105.866434
127.395611	144.902797
129.953811	195.949650
132.507059	266.468531
135.059608	355.114685
137.615708	454.294406
140.166861	557.651049
142.717315	656.563636
145.267073	745.560140
147.814011	817.648951
150.360253	867.108392
152.907922	885.808392
155.454894	890.841958
157.996930	885.320280
160.538273	885.983916
163.078924	903.655944
165.620999	934.906294
168.160264	988.665734
170.696719	1060.560140
173.232484	1149.124476
175.769674	1260.751049
178.306172	1401.320979
180.839865	1593.404196
183.370755	1840.486713
185.900956	2179.355245
188.432582	2634.729371
190.961407	3229.762937
193.487433	3953.074825
196.012774	4746.049650
198.539539	5533.180420
201.063508	6206.593007
203.586791	6668.560140
206.109390	6867.386713
208.629196	6762.746154
211.148319	6388.062937
213.666759	5789.354545
216.186623	5058.147552
218.699486	4294.120280
221.215880	3583.714685
223.731592	2986.508392
226.242415	2518.743357
228.754662	2166.213986
231.264126	1903.827972
233.772912	1697.409790
236.281020	1544.234965
238.790551	1416.679720
241.295203	1323.106993
243.799178	1245.241259
246.304577	1179.048252
248.805101	1124.880420
251.309148	1123.811189
253.806225	1183.248252
256.306824	1267.409091
258.804652	1331.285315
261.301807	1362.319580
263.798289	1350.753147
266.289909	1302.613287
268.785047	1218.025175
271.277420	1100.457343
273.769122	958.716084
276.258061	809.072028
278.748423	684.100699
281.236024	625.039860
283.720865	614.246154
286.209220	617.516783
288.690636	612.109790
291.175566	603.762238
293.655651	595.061538
296.139248	586.389510
298.618002	582.232867
301.098180	577.498601
303.575605	574.962238
306.052367	570.361538
308.528466	572.734266
311.001816	577.602797
313.474504	587.132867
315.946531	594.637762
318.417897	600.869930
320.886519	603.020280
323.354481	602.369930
325.823866	596.504196
328.288428	588.937762
330.756493	577.414685
333.219739	563.134266
335.682328	542.204895
338.144259	510.932168
340.605534	520.164336
343.064075	647.827972
345.524038	885.655944
347.981269	1138.656643
350.437844	1340.710490
352.893766	1475.277622
355.346959	1534.305594
357.801573	1515.228671
360.251386	1417.135664
362.704696	1247.975524
365.153206	1021.925874
367.601066	781.495804
370.050347	617.461538
372.494835	579.627972
374.940745	608.676224
377.386006	624.590909
379.828548	627.865035
382.270442	630.583217
384.711688	630.397203
387.150219	636.832867
389.590172	652.047552
392.027411	683.311888
394.461938	713.123776
396.899953	738.428671
399.333191	758.846853
401.767851	766.436364
404.197737	759.433566
406.631109	747.562937
409.059711	733.099301
411.487672	713.523776
413.917053	691.625874
416.341669	682.211189
418.767707	683.955944
421.193104	703.122378
423.617861	723.684615
426.037860	747.209790
428.459280	773.447552
430.878003	800.439860
433.298147	837.139161
435.715596	887.988112
438.134465	946.134965
440.550641	998.913287
442.962070	1034.022378
445.376975	1045.625175
447.789190	1242.661538
450.200771	2217.079021
452.611718	4561.565734
455.019979	8028.101399
457.427607	11706.306993
459.834604	14784.769231
462.240968	16826.433566
464.644650	17636.185315
467.047702	17141.904895
469.450124	15386.794406
471.851917	12546.769231
474.251031	9020.822378
476.651565	5562.740559
479.051470	3073.444056
481.446652	1968.985315
483.845301	1732.250350
486.239230	1694.639860
488.632533	1614.031469
491.025210	1502.271329
493.417262	1396.757343
495.810733	1317.754545
498.199491	1284.771329
500.585583	1273.623776
502.973095	1265.792308
505.359983	1252.962937
507.744208	1232.323776
510.129852	1203.697902
512.512833	1153.586713
514.893154	1089.300000
517.274894	1015.581818
519.653975	928.483916
522.034475	852.372028
524.412317	803.295804
526.787504	786.967832
529.162073	775.751748
531.538061	768.259441
533.911395	761.224476
536.286148	755.713986
538.656214	746.514685
541.025665	738.727273
543.396535	732.984615
545.762723	727.376224
548.130330	713.530070
550.495291	704.540559
552.859639	693.179720
555.223375	682.419580
557.588528	670.008392
559.949008	666.175524
562.310907	661.178322
564.670166	655.497902
567.026786	649.008392
569.386851	645.579021
571.740226	638.775524
574.097045	635.719580
576.451228	630.995105
578.804804	631.202797
581.157771	626.063636
583.508107	622.552448
585.859859	620.211888
588.204935	624.716084
590.555475	625.105594
592.899342	622.746154
595.248669	622.623077
597.593349	620.390210
599.935404	616.297902
602.278875	617.501399
604.619724	615.402098
606.959971	611.960839
609.297597	601.283217
611.638658	596.808392
613.975082	592.473427
616.312922	593.738462
618.648144	590.493007
620.980751	587.901399
623.314775	587.856643
625.646184	587.967133
627.976995	589.221678
630.307208	591.990909
632.636823	588.405594
634.961816	584.842657
637.292250	580.024476
639.618062	580.769930
641.941268	577.922378
644.265889	580.367832
646.587906	576.811888
648.909328	576.967133
651.228147	574.954545
653.548382	573.906294
655.868024	575.555944
658.185065	576.580420
660.501515	570.209790
662.815366	569.042657
665.130632	567.144755
667.443302	565.599301
669.757387	562.900000
672.066872	566.864336
674.377773	567.230070
676.686081	571.127273
678.993801	570.591608
681.302936	572.690909
683.607478	579.831469
685.911434	588.853147
688.214803	593.944056
690.519587	601.644056
692.819785	609.204196
695.121398	612.410490
697.422425	615.230769
699.718870	612.276923
702.016731	604.175524
704.314008	593.741958
706.610702	581.229371
708.902820	571.382517
711.198349	564.955245
713.489305	560.605594
715.781675	555.504196
718.071469	555.112587
720.360684	557.226573
722.649318	556.253846
724.935381	561.619580
727.222857	563.249650
729.507763	564.746853
731.792090	567.249650
734.073849	567.748951
736.357023	567.781818
738.639618	567.307692
740.917659	565.909091
743.197113	565.625175
745.475992	567.804895
747.754295	567.020280
750.028049	568.823776
752.303217	571.379021
754.577811	573.123776
756.849846	571.040559
759.123293	572.064336
761.394183	570.371329
763.662517	573.864336
765.932264	577.174825
768.199457	578.281818
770.466079	583.591608
772.732132	588.307692
774.995632	591.087413
777.260546	594.726573
779.524890	599.473427
781.784705	603.967133
784.045933	608.262937
786.306593	617.993007
788.564706	624.834266
790.820275	635.908392
793.079235	645.518881
795.331696	676.604895
797.589524	743.519580
799.842832	829.381818
802.093601	913.737762
804.345782	985.843357
806.595425	1029.275524
808.846479	1040.170629
811.093022	1021.474126
813.340978	971.784615
815.586398	894.352448
817.833230	805.602797
820.079501	719.788811
822.321268	662.721678
824.566417	638.193007
826.805094	633.316783
829.047154	631.070629
831.284715	631.120280
833.523687	626.677622
835.760133	625.581119
837.997991	621.292308
840.233323	621.056643
842.466131	619.288112
844.700351	621.506294
846.932049	622.811189
849.163192	624.267133
851.393780	624.927273
853.623814	625.711189
855.853293	622.627972
858.078291	617.927972
860.306664	612.700699
862.530558	608.040559
864.755862	600.572028
866.976691	598.097902
869.200892	594.969231
871.420620	593.282517
873.641759	592.469930
875.862347	594.614685
878.080425	599.320979
880.299914	602.409790
882.514936	607.942657
884.729410	614.065734
886.943337	618.548252
889.156716	620.704895
891.369549	621.520979
893.581834	620.372028
895.791618	617.423077
898.000856	614.509091
900.209548	611.053147
902.415742	611.418881
904.623345	610.893706
906.828451	607.365734
909.033013	609.695804
911.235079	610.521678
913.438555	611.575524
915.639537	611.837762
917.839978	614.297902
920.041827	613.400000
922.237284	611.211189
924.436101	607.234266
926.630480	602.651049
928.828215	602.411189
931.021515	598.481818
933.216224	597.684615
935.408447	595.081119
937.600132	594.938462
939.791279	596.308392
941.979943	597.220979
944.168070	598.041259
946.353717	595.933566
948.542716	592.297902
950.727292	586.146853
952.911333	584.634965
955.098724	583.532168
957.277812	585.151049
959.460249	590.953846
961.642153	588.230769
963.821583	592.113986
965.998540	590.433566
968.176905	593.344755
970.356676	592.888112
972.530099	593.402098
974.706868	591.574126
976.879231	589.026573
979.053000	581.332867
981.222366	580.062937
983.395077	582.419580
985.565321	582.821678
987.735037	578.444755
989.904224	580.528671
992.069014	579.079021
994.237145	586.216783
996.400882	589.612587
998.566025	593.592308
1000.728710	591.860839
1002.890868	591.221678
1005.050570	587.088112
1007.209748	588.062937
1009.370332	586.165734
1011.528461	584.522378
1013.686066	585.162238
1015.843148	588.144755
1017.999707	589.295804
1020.151886	595.825874
1022.305471	597.570629
1024.458535	599.495105
1026.609151	596.459441
1028.761172	598.486014
1030.908820	599.531469
1033.059800	599.157343
1035.206409	597.837762
1037.352500	602.054545
1039.498071	604.358042
1041.645048	608.089510
1043.785737	609.300699
1045.929754	611.900699
1048.071331	611.704196
1050.212392	614.741958
1052.354857	615.157343
1054.491043	618.806294
1056.630555	619.946853
1058.765711	622.941958
1060.904192	625.955245
1063.038320	634.145455
1065.171933	637.900699
1067.306952	651.927972
1069.437621	685.684615
1071.569695	760.494406
1073.699340	861.520280
1075.828473	963.097203
1077.957094	1040.300699
1080.085204	1086.209790
1082.210888	1095.620280
1084.336062	1069.820979
1086.462640	1006.364336
1088.584881	918.765035
1090.708525	812.527273
1092.827836	715.981818
1094.952375	648.560140
1097.070669	624.411888
1099.190368	621.127972
1101.307648	618.829371
1103.424422	614.597902
1105.540689	611.876923
1107.654541	609.460839
1109.769796	609.243357
1111.880729	604.950350
1113.994973	603.536364
1116.104897	599.091608
1118.216225	597.804895
1120.327049	594.975524
1122.433556	594.622378
1124.543372	594.677622
1126.648874	592.381818
1128.755779	590.191608
1130.856469	590.847552
1132.962371	592.462238
1135.063964	597.726573
1137.166960	598.271329
1139.269455	602.181119
1141.365744	602.437063
1143.467239	607.018881
1145.564432	611.397902
1147.661126	622.732168
1149.757323	640.304895
1151.853021	656.747552
1153.948222	674.369930
1156.041026	685.748951
1158.135232	689.802098
1160.223247	688.669930
1162.316460	680.897203
1164.403485	667.258741
1166.493810	646.567832
1168.579846	630.642657
1170.669180	613.883916
1172.752333	604.037063
1174.836889	598.366434
1176.922845	596.371329
1179.004520	597.585315
1181.087597	594.086014
1183.168288	591.653147
1185.248487	589.653147
1187.328195	589.158042
1189.407412	586.445455
1191.484247	584.223776
1193.558701	583.159441
1195.636447	581.044056
1197.709922	579.083916
1199.784798	578.302098
1201.855407	579.392308
1203.927418	582.118881
1205.997052	585.160140
1208.068087	585.420979
1210.138634	585.883217
1212.204920	588.383217
1214.272607	590.046154
1216.337922	592.858741
1218.404637	598.351748
1220.467096	603.452448
1222.532840	607.030070
1224.594331	613.443357
1226.657221	620.406294
1228.717744	624.813287
1230.777784	627.618881
1232.837340	623.620280
1234.894531	621.425874
1236.951241	617.731469
1239.005588	613.253147
1241.063215	608.862937
1243.118480	607.327273
1245.169504	603.134266
1247.221928	599.934266
1249.273873	598.496503
1251.323458	595.783916
1253.372565	593.718182
1255.421194	590.634266
1257.469344	590.546154
1259.517016	592.953846
1261.560457	595.532168
1263.607173	596.469231
1265.651537	598.879021
1267.695423	603.311189
1269.736959	603.670629
1271.776145	602.625175
1273.818603	599.117483
1275.856839	596.602098
1277.896474	595.735664
1279.935634	594.553846
1281.970576	597.592308
1284.006916	598.544755
1286.040911	601.383916
1288.076305	603.041958
1290.107485	605.328671
1292.140064	609.542657
1294.172170	608.619580
1296.201936	607.645455
1298.233100	607.313986
1300.260056	606.958741
1302.288410	606.941259
1304.312560	610.905594
1306.339974	608.993007
1308.363187	609.209790
1310.387796	611.915385
1312.410072	613.913287
1314.433745	615.827972
1316.455085	621.171329
1318.475957	620.673427
1320.496363	623.400000
1322.512574	629.271329
1324.530184	633.302098
1326.545465	638.509091
1328.564005	643.346154
1330.578355	649.748951
1332.590380	657.320979
1334.605662	665.655245
1336.616759	672.571329
1338.629253	680.355245
1340.637564	687.245455
1342.649131	691.104196
1344.654658	695.851049
1346.663441	698.609091
1348.668046	699.923077
1350.675905	697.007692
1352.683302	694.668531
1354.684668	693.165035
1356.687431	685.671329
1358.689733	679.703497
1360.691576	668.058741
1362.692960	658.564336
1364.692029	648.246154
1366.690640	634.969930
1368.688793	627.246853
1370.686488	618.587413
1372.680019	614.533566
1374.674947	609.186713
1376.669418	606.719580
1378.663432	605.871329
1380.655139	601.762238
1382.646390	599.302797
1384.635336	592.973427
1386.625677	591.707692
1388.615563	589.590909
1390.603146	586.415385
1392.590275	585.897203
1394.575102	582.020979
1396.561323	581.235664
1398.545245	578.907692
1400.528714	577.035664
1402.511731	576.353846
1404.492450	572.317483
1406.474563	570.930769
1408.454379	568.120280
1410.433745	569.148951
1412.408971	569.201399
1414.387437	571.174825
1416.363609	570.573427
1418.339331	569.130070
1420.314604	571.716783
1422.287586	572.968531
1424.260120	575.665035
1426.232207	577.840559
1428.203845	577.679720
1430.171355	575.745455
1432.143940	570.709091
1434.108718	567.923077
1436.078569	564.028671
1438.044295	563.172727
1440.011415	562.241259
1441.976250	560.936364
1443.936967	565.512587
1445.902751	565.919580
1447.862580	570.198601
1449.823802	576.113287
1451.786417	576.969231
1453.744917	576.041259
1455.702975	572.214685
1457.660590	569.190210
1459.617764	566.795105
1461.572662	568.020979
1463.528952	569.484615
1465.482968	568.116783
1467.436544	569.108392
1469.387847	563.583916
1471.340542	566.079021
1473.290966	567.884615
1475.240951	565.200000
1477.190496	563.240559
1479.137773	563.846853
1481.082783	562.123776
1483.029184	564.046853
1484.975149	565.055944
1486.920675	565.580420
1488.863937	563.969231
1490.806762	566.336364
1492.747324	562.044056
1494.689277	565.013287
1496.628969	563.976923
1498.568225	564.407692
1500.507047	562.520280
1502.443608	564.307692
1504.381561	564.589510
1506.317256	565.879021
1508.252517	564.581818
1510.185521	565.267832
1512.118093	565.095105
1514.050233	571.641958
1515.981941	571.475524
1517.911395	572.494406
1519.842240	569.969930
1521.772654	567.864336
1523.698995	561.045455
1525.626726	563.273427
1527.552207	565.063636
1529.477259	566.477622
1531.401882	570.967133
1533.326076	572.522378
1535.248023	577.638462
1537.171359	583.561538
1539.092450	581.709091
1541.011296	583.272727
1542.931532	584.189510
1544.849524	587.616084
1546.767090	590.495105
1548.682414	597.799301
1550.599128	602.104895
1552.511787	608.723077
1554.427650	617.490210
1556.341273	619.211189
1558.252659	625.600699
1560.165433	626.513986
1562.074158	628.452448
1563.984273	639.218182
1565.893964	650.316084
1567.803231	662.549650
1569.710265	676.589510
1571.615066	693.724476
1573.521256	709.148252
1575.425214	723.078322
1577.328752	735.404196
1579.231868	736.676923
1581.132756	736.469231
1583.035031	729.284615
1584.935079	718.945455
1586.836515	706.350350
1588.733916	689.531469
1590.630899	669.718881
1592.527464	656.449650
1594.425417	648.672727
1596.317535	639.081119
1598.212846	633.149650
1600.107740	628.086014
1602.000412	622.183217
1603.892668	619.248252
1605.782704	616.723776
1607.672324	612.167133
1609.561529	612.522378
1611.450318	608.295804
1613.336891	605.426573
1615.224850	604.630769
1617.108793	606.490210
1618.994124	605.918881
1620.879040	604.300699
1622.761744	601.508392
1624.645833	597.713986
1626.525912	591.846154
1628.407377	584.542657
1630.286632	578.269231
1632.167273	573.497902
1634.042110	564.367832
1635.921929	558.166434
1637.797742	554.352448
1639.673145	552.287413
1641.549935	543.004895
1643.420927	543.475524
1645.295101	544.807692
1647.165277	545.660140
1649.038633	546.399301
1650.909786	546.002797
1652.778737	545.696503
1654.649074	545.663636
1656.515417	543.372727
1658.383146	541.848951
1660.248677	539.222378
1662.115592	532.696503
1663.978519	525.180420
1665.842831	528.439860
1667.704947	527.123077
1669.566659	525.741958
1671.429755	521.889510
1673.290657	520.158042
1675.149365	518.373427
1677.007670	514.872028
1678.867360	509.685315
1680.721283	507.518182
1682.578378	504.922378
1684.435071	504.141259
1686.287788	504.724476
1688.143676	503.234266
1689.995589	504.063636
1691.847102	503.383916
1693.698215	500.600000
1695.548926	501.542657
1697.399237	500.286014
1699.247364	497.704895
1701.096874	493.565734
1702.940636	496.306993
1704.789348	496.358042
1706.632313	498.672028
1708.478444	496.756643
1710.320614	496.940559
1712.165948	496.313986
1714.005542	499.615385
1715.846520	497.049650
1717.688881	494.872028
1719.527286	491.576224
1721.367074	489.553147
1723.204687	487.823776
1725.041904	490.896503
1726.876948	491.080420
1728.713375	492.194406
1730.547630	490.027273
1732.381490	492.146154
1734.214957	489.806294
1736.044477	491.616084
1737.877156	486.987413
1739.705891	483.829371
1741.537784	481.088811
1743.365734	476.791608
1745.193292	475.348252
1747.020458	478.806993
1748.847233	478.904196
1750.673617	481.113986
1752.496064	482.241958
1754.321665	485.984615
1756.143332	485.777622
1757.966381	485.886713
1759.787269	486.116084
1761.607767	484.309091
1763.429647	481.589510
1765.245827	480.206993
1767.065159	481.324476
1768.880564	484.966434
1770.699119	481.456643
1772.513749	483.837762
1774.327993	483.216084
1776.141849	483.622378
1777.955319	478.575524
1779.766636	475.258042
1781.579334	472.489510
1783.391645	471.633566
1785.200039	473.234965
1787.009814	475.406294
1788.815673	472.374126
1790.624679	471.548951
1792.429771	469.744056
1794.236243	469.151748
1796.042332	467.330769
1797.844511	468.637762
1799.649833	468.062937
1801.451247	471.693706
1803.254041	477.347552
1805.052929	483.665734
1806.853198	487.991608
1808.653085	487.513986
1810.450831	484.789510
1812.248196	482.566434
1814.045180	477.811888
1815.841784	473.597902
1817.636249	470.572727
1819.432093	471.369231
1821.222283	470.201399
1823.017369	473.681818
1824.806802	475.196503
1826.599372	475.063636
1828.389807	476.239860
1830.178108	475.807692
1831.969544	473.355944
1833.755334	469.639161
1835.542504	467.253147
1837.327542	466.524476
1839.115714	466.925175
1840.900000	466.167133
1842.682157	465.253846
1844.465692	465.288112
1846.247099	463.411189
1848.029885	462.969231
1849.808791	462.348951
1851.589075	462.855944
1853.367233	463.025175
1855.146770	463.402797
1856.924182	464.946154
1858.699470	466.272028
1860.476137	465.430070
1862.250681	463.895105
1864.026602	460.572727
1865.796904	460.607692
1867.570332	461.588811
1869.341641	461.254545
1871.112580	459.661538
1872.884895	458.420280
1874.651598	459.941958
1876.421425	461.509790
1878.187389	463.495804
1879.956477	462.397902
1881.721703	460.301399
1883.486561	461.776923
1885.252795	460.311189
1887.015171	462.761538
1888.777180	463.228671
1890.538822	461.839161
1892.300096	457.697902
1894.061003	454.547552
1895.821544	449.048252
1897.579975	451.476224
1899.338041	452.951748
1901.093998	451.555944
1902.851333	450.580420
1904.608301	451.955245
1906.363164	450.078322
1908.115921	449.790909
1909.868315	447.597902
1911.622084	444.509790
1913.373750	442.148951
1915.123314	441.821678
1916.874254	440.163636
1918.624830	446.418182
1920.371568	449.593007
1922.119681	451.528671
1923.865695	449.437762
1925.613085	450.134266
1927.358376	448.388811
1929.101570	447.849650
1930.846140	446.848252
1932.588613	447.046154
1934.330726	448.497203
1936.072479	446.977273
1937.813873	444.552448
1939.553173	442.984965
1941.292114	443.900000
1943.030696	445.815035
1944.767186	444.802098
1946.503319	446.114336
1948.240826	445.886014
1949.974512	446.708741
1951.709571	444.622378
1953.442543	446.228322
1955.175158	444.918182
1956.907416	441.209441
1958.639318	438.469231
1960.369134	437.145455
1962.096866	438.406993
1963.825971	437.360839
1965.554722	438.886713
1967.281389	441.536364
1969.007702	442.821678
1970.735388	443.128671
1972.457538	439.299301
1974.182789	444.655944
1975.904234	445.931469
1977.628778	446.451049
1979.351243	447.986014
1981.069904	446.541958
1982.791664	447.277622
1984.509622	445.681119
1986.228954	449.693706
1987.944485	449.418182
1989.664838	447.224476
1991.381391	445.248252
1993.094149	441.953846
1994.810002	443.866434
1996.523782	441.221678
1998.237213	439.960140
1999.948573	442.021678
2001.661306	441.171329
2003.370247	442.634965
2005.082282	446.252448
2006.788807	441.037063
2008.498425	443.071329
2010.205975	444.747552
2011.913178	445.437063
2013.618315	446.227972
2015.323105	445.312587
2017.029267	445.033566
2018.731647	443.588112
2020.435399	440.285315
2022.137087	440.700699
2023.838431	439.181119
2025.539429	438.670629
2027.238367	431.341958
2028.938675	437.530769
2030.635209	435.579021
2032.333114	433.781818
2034.028961	434.251748
2035.727892	433.291608
2037.421338	434.468531
2039.116156	432.949650
2040.810630	432.809091
2042.501336	440.306294
2044.195126	441.365035
2045.885149	443.615385
2047.576543	440.751049
2049.265884	442.551049
2050.956595	440.781818
2052.643544	438.123077
2054.330152	435.086014
2056.018131	432.244056
2057.702350	429.747552
2059.387939	429.398601
2061.073189	426.728671
2062.756391	427.361538
2064.440962	425.413287
2066.120071	423.523077
2067.803965	421.105594
2069.482399	424.148951
2071.163909	424.884615
2072.841669	424.004895
2074.519091	425.685315
2076.197884	424.443357
2077.874633	423.981818
2079.549341	426.011189
2081.225418	420.579021
2082.899455	418.965734
2084.573156	419.400000
2086.246522	420.018182
2087.917850	417.913287
2089.588843	420.622378
2091.259502	419.525175
2092.929826	420.700000
2094.599817	422.326573
2096.267772	420.259441
2097.935394	420.743357
2099.600982	422.015385
2101.267938	419.886014
2102.932861	422.427972
2104.597451	427.527273
2106.260010	429.076923
2107.923937	427.797902
2109.585834	431.548252
2111.247399	430.983916
2112.908634	434.670629
2114.567839	437.203497
2116.226715	438.151049
2117.885260	440.353846
2119.543476	441.062238
2121.197968	440.748252
2122.855525	439.618182
2124.512753	434.922378
2126.166259	432.822378
2127.821133	431.813287
2129.472289	432.465035
2131.126506	429.884615
2132.777007	428.843357
2134.428874	429.830769
2136.075333	429.294406
2137.726547	427.215385
2139.374047	425.782517
2141.022914	424.883916
2142.669763	423.118182
2144.316285	419.863636
2145.962482	422.436364
2147.604971	420.548951
2149.250518	416.928671
2150.892358	412.788112
2152.537255	413.045455
2154.178447	413.839860
2155.819315	414.253147
2157.459860	410.949650
2159.098392	411.741259
2160.738290	412.464336
2162.374488	415.990210
2164.012052	416.719580
2165.649293	416.271329
2167.284525	412.379720
2168.919436	412.245455
2170.554025	411.164336
2172.188292	415.036364
2173.818867	416.966434
2175.452492	416.094406
2177.082426	411.148951
2178.713725	410.088811
2180.343020	407.995804
2181.971994	409.793007
2183.600650	409.520280
2185.228986	406.227273
2186.855319	403.753147
2188.481334	404.795804
2190.105348	404.251049
2191.730726	406.950350
2193.354105	406.364336
2194.978847	406.237063
2196.599909	403.587413
2198.220654	403.436364
2199.842764	400.424476
2201.462876	400.696503
2203.080991	398.378322
2204.698791	396.836364
2206.316276	395.585315
2207.933445	395.835664
2209.550299	395.526573
2211.166838	395.216783
2212.781383	394.055245
2214.393936	394.603497
2216.007853	392.737762
2217.619779	393.603497
2219.233068	393.196503
2220.844367	393.382517
2222.453676	393.376923
2224.064349	397.158042
2225.673033	397.353846
2227.281405	398.290909
2228.887789	395.758741
2230.495537	397.166434
2232.101298	396.986713
2233.706748	396.702797
2235.310214	398.072727
2236.915042	398.598601
2238.517886	396.509790
2240.118747	395.277622
2241.720971	394.895804
2243.321212	397.313287
2244.922816	394.474825
2246.520768	394.230070
2248.120082	390.208392
2249.717416	391.801399
2251.314442	391.926573
2252.912829	391.120280
2254.507568	392.784615
2256.100331	395.496503
2257.694455	394.721678
2259.289941	394.684615
2260.881783	393.613287
2262.473318	398.122378
2264.066214	396.312587
2265.653801	396.725874
2267.246085	394.634266
2268.833061	393.388811
2270.423066	391.655944
2272.007766	389.189510
2273.597160	388.569231
2275.181251	387.379720
2276.766704	383.111189
2278.350187	378.627273
2279.936697	376.160839
2281.519573	377.811189
2283.102145	377.054545
2284.684414	378.509790
2286.263054	380.916084
2287.844717	384.097902
2289.422752	385.032168
2291.003810	384.035664
2292.581242	384.408392
2294.156710	379.926573
2295.735199	376.467832
2297.310065	373.821678
2298.884630	371.060140
2300.458895	369.018881
2302.032859	365.883916
2303.606523	364.972727
2305.179886	364.183217
2306.749631	366.625175
2308.319077	364.613986
2309.891542	364.990909
2311.458731	365.100699
2313.028939	362.164336
2314.595532	367.515385
2316.163485	369.141958
2317.729483	369.660839
2319.295182	372.167133
2320.860585	373.053147
2322.424034	376.545455
2323.988841	378.677622
2325.550041	380.533566
2327.114255	381.507692
2328.673208	381.904196
2330.235174	379.172028
2331.795190	376.169930
2333.354910	376.746154
2334.912681	370.054545
2336.470158	365.067832
2338.027339	367.548951
2339.582574	367.996503
2341.137514	369.344056
2342.692161	367.006294
2344.246514	368.258042
2345.800573	367.906294
2347.354338	366.512587
2348.906160	363.951049
2350.456038	362.564336
2352.008924	359.474126
2353.556568	359.051748
2355.107219	356.893007
2356.654280	362.842657
2358.202698	361.602797
2359.750824	361.227273
2361.295363	361.756643
2362.841259	365.548252
2364.385216	364.265035
2365.930531	366.962937
2367.472261	366.139860
2369.015348	366.261538
2370.556500	364.723077
2372.097362	365.188811
2373.637935	360.839860
2375.178219	359.483217
2376.718214	355.146853
2378.254630	354.577622
2379.794048	356.300699
2381.329889	355.022378
2382.867086	353.526573
2384.400709	355.326573
2385.937331	353.202098
2387.472022	352.713287
2389.004784	352.587413
2390.537260	352.508392
2392.067807	350.843357
2393.601352	349.878322
2395.129686	349.881818
2396.659376	350.758042
2398.188781	352.854545
2399.717900	354.996503
2401.246735	356.173427
2402.770365	359.834266
2404.298630	358.865035
2405.821692	357.990210
2407.349388	356.900000
2408.870245	356.680420
2410.395735	354.317483
2411.917664	352.460839
2413.440949	349.111189
2414.962313	351.695105
2416.481757	352.641259
2418.002556	354.743357
2419.521436	355.886014
2421.040034	358.176923
2422.556715	359.558741
2424.074750	360.166434
2425.592504	358.755245
2427.106707	361.172028
2428.620629	359.475524
2430.134272	358.062937
2431.649268	354.281119
2433.160716	352.165035
2434.673519	346.153846
2436.184409	344.877622
2437.695019	342.523077
2439.203718	341.320280
2440.715404	343.139860
2442.223546	343.690909
2443.731409	343.769231
2445.238995	347.602797
2446.743040	347.584615
2448.250071	350.240559
2449.755193	348.110490
2451.260038	345.801399
2452.762976	342.997902
2454.265637	340.855944
2455.768022	337.567832
2457.268502	338.417483
2458.770335	338.056643
2460.270264	337.876224
2461.769917	335.879720
2463.269295	337.254545
2464.766769	336.976224
2466.262343	339.513287
2467.760896	339.082517
2469.255920	338.922378
2470.752298	337.145455
2472.245149	336.681119
2473.739352	336.025874
2475.233282	339.854545
2476.723689	338.131469
2478.217072	336.148252
2479.708558	334.387413
2481.198147	332.141259
2482.687464	332.461538
2484.174886	336.429371
2485.665283	338.695804
2487.152161	338.953846
2488.640391	336.836364
2490.125105	335.552448
2491.609548	331.564336
2493.095343	331.567133
2494.579245	329.216084
2496.064499	324.736364
2497.544619	322.838462
2499.027711	319.426573
2500.508913	319.430769
2501.989846	323.039860
2503.468890	324.236364
2504.947666	322.441958
2506.426172	320.615385
2507.904411	320.749650
2509.382381	318.384615
2510.856847	321.055245
2512.334281	321.464336
2513.808212	321.088112
2515.283494	324.268531
2516.758508	324.528671
2518.230021	322.965734
2519.702885	325.237762
2521.173865	324.615385
2522.646196	324.313986
2524.113414	321.842657
2525.583597	322.308392
2527.051900	318.684615
2528.519938	318.040559
2529.987711	315.725874
2531.455219	315.649650
2532.922462	316.774126
2534.386213	313.475524
2535.851315	312.937063
2537.314538	313.869930
2538.779112	313.632867
2540.240196	315.572028
2541.702630	313.372028
2543.164801	316.616084
2544.623486	320.524476
2546.086743	325.804196
2547.544903	328.630070
2549.004412	332.788811
2550.458828	334.088811
2551.917813	333.833566
2553.374927	335.348252
2554.830170	334.535664
2556.285152	331.272028
2557.738264	326.251049
2559.192725	317.609790
2560.645317	314.320979
2562.097649	315.065035
2563.548113	313.872727
2565.001533	313.065035
2566.449871	314.483916
2567.901165	313.076224
2569.350592	314.624476
2570.796548	317.694406
2572.245458	317.650350
2573.690897	315.139860
2575.137685	314.121678
2576.582609	313.142657
2578.027276	318.541259
2579.473290	321.861538
2580.915837	323.188811
2582.359732	323.898601
2583.800162	324.340559
2585.241940	325.180420
2586.681857	326.693007
2588.123122	323.253846
2589.560926	319.663636
2591.001679	314.482517
2592.437369	316.976224
2593.876009	314.900699
2595.312792	315.857343
2596.747718	313.458741
2598.185593	312.467832
2599.618410	309.441259
2601.052573	307.590210
2602.484883	308.228671
2603.918539	309.658042
2605.350342	308.603497
2606.781892	311.918182
2608.213188	309.623776
2609.642633	312.344056
2611.071825	313.904895
2612.499166	316.276923
2613.927854	317.579720
2615.356289	318.418881
2616.781277	318.264336
2618.207612	317.714685
2619.632098	315.834965
2621.057930	313.788112
2622.480318	311.600699
2623.904052	308.452448
2625.325940	302.070629
2626.747577	301.991608
2628.167369	304.426573
2629.588507	303.602098
2631.009395	305.444056
2632.426845	308.462937
2633.847234	311.907692
2635.264186	318.535664
2636.680890	309.360140
2638.097345	322.205594
2639.513552	330.993706
2640.929510	336.672028
2642.343628	338.055245
2643.757499	343.458741
2645.169530	343.365734
2646.582906	343.856643
2647.992852	339.725874
2649.405733	332.260839
2650.815187	326.607692
2652.224394	322.458042
2653.631765	309.972727
2655.042070	324.602098
2656.450539	328.348252
2657.857173	332.274825
2659.263562	337.483217
2660.668117	343.594406
2662.074016	347.120979
2663.478082	352.062937
2664.881904	348.169930
2666.285481	347.655245
2667.687226	348.825874
2669.090315	347.236364
2670.489987	347.203497
2671.891001	348.967832
2673.288600	349.592308
2674.689129	350.011888
2676.086243	352.514685
2677.484700	353.215385
2678.881329	356.365035
2680.277716	357.556643
2681.673862	355.040559
2683.068181	359.420280
2684.463843	358.479720
2685.856095	357.415385
2687.249691	358.716783
2688.641462	355.447552
2690.034575	354.033566
2691.425865	352.236364
2692.815332	349.658741
2694.204560	348.376923
2695.593547	348.188112
2696.983877	348.860140
2698.369222	349.523776
2699.757491	350.053846
2701.143940	344.481119
2702.530150	342.670629
2703.916122	340.382517
2705.298695	340.051748
2706.682609	337.868531
2708.066286	336.263636
2709.449725	332.789510
2710.829768	330.518881
2712.211153	330.813986
2713.590722	334.691608
2714.971633	333.945455
2716.350729	333.058741
2717.728010	328.725874
2719.106633	327.095105
2720.483443	324.212587
2721.860017	325.073427
2723.236355	321.552448
2724.610881	320.224476
2725.986748	314.379720
2727.359228	310.654545
2728.734625	308.542657
2730.105060	306.342657
2731.476837	302.114685
2732.848380	300.685315
2734.218114	297.735664
2735.589188	296.956643
2736.958455	295.746154
2738.327488	295.282517
2739.694714	292.811888
2741.061708	293.241958
2742.428469	291.139161
2743.794997	291.591608
2745.159720	290.128671
2746.524212	289.241958
2747.888471	288.789510
2749.252499	290.497902
2750.616294	291.381818
2751.976716	289.888811
2753.340049	290.569231
2754.698439	289.329371
2756.059739	286.946853
2757.417668	286.872727
2758.778507	283.592308
2760.137545	280.302797
2761.493215	273.082517
2762.851793	276.974825
2764.207005	280.783217
2765.561987	284.401399
2766.915172	281.653846
2768.271264	280.153846
2769.623992	279.606294
2770.976491	277.137762
2772.328762	273.697203
2773.682372	268.557343
2775.032620	263.132867
2776.381075	261.297203
2777.732434	259.066434
2779.080434	265.482517
2780.429773	266.039161
2781.777319	267.798601
2783.124638	264.046154
2784.471731	262.327972
2785.817033	258.811888
2787.162109	255.874126
2788.506959	255.366434
2789.851582	252.298601
2791.192854	252.588811
2792.535464	255.609091
2793.877848	255.849650
2795.220008	258.419580
2796.558818	258.623077
2797.900527	260.944056
2799.238889	259.715385
2800.578588	257.862937
2801.916501	256.610490
2803.252630	257.597203
2804.588536	256.086014
2805.925778	255.549650
2807.261237	256.816783
2808.596473	256.793007
2809.929927	260.053846
2811.264717	261.981119
2812.596166	262.388811
2813.930511	263.996503
2815.259958	263.611888
2816.590742	262.055944
2817.921304	263.948951
2819.250087	261.669930
2820.580207	257.942657
2821.908547	257.641259
2823.236667	255.721678
2824.563010	253.883916
2825.890688	256.517483
2827.215034	254.118182
2828.540715	254.102797
2829.864621	255.520979
2831.188308	254.056643
2832.513330	252.809091
2833.835023	255.116783
2835.156496	251.881818
2836.477751	251.144056
2837.798787	251.639860
2839.118051	251.203497
2840.438650	248.644056
2841.757477	245.676923
2843.076086	243.909091
2844.392925	241.804196
2845.709546	241.454545
2847.025949	238.148252
2848.340584	237.709790
2849.656553	239.226573
2850.969202	241.120280
2852.283187	243.711888
2853.596955	246.324476
2854.910506	247.947552
2856.222290	247.561538
2857.532309	247.188112
2858.843661	249.595105
2860.151699	247.264336
2861.461072	247.304895
2862.770229	244.390210
2864.079171	243.591608
2865.386350	242.498601
2866.691765	242.320280
2867.998515	241.839161
2869.303502	241.533566
2870.608276	243.913986
2871.911288	244.223077
2873.217182	244.610490
2874.518220	244.679720
2875.820593	247.668531
2877.121206	248.967133
2878.423153	246.426573
2879.724887	245.847552
2881.023317	243.867832
2882.323080	244.174825
2883.621085	243.316783
2884.918879	242.534965
2886.214917	243.644056
2887.512288	242.994406
2888.807903	241.999301
2890.103307	240.725175
2891.398501	243.214685
2892.690396	242.276923
2893.985168	241.927972
2895.276643	242.274126
2896.569452	240.233566
2897.862049	241.390210
2899.151353	238.688811
2900.441989	237.344755
2901.730874	234.488112
2903.021092	234.404895
2904.308018	233.383916
2905.596276	230.542657
2906.882784	233.055944
2908.169085	235.397203
2909.455177	238.690909
2910.739521	239.172028
2912.026737	242.477622
2913.309126	245.665734
2914.592846	244.818881
2915.874821	245.737762
2917.156589	243.137063
2918.436611	246.664336
2919.719503	244.972727
2921.000650	242.372727
2922.278515	245.376224
2923.559249	243.060839
2924.836702	239.688112
2926.113950	236.339161
2927.389455	236.207692
2928.667828	236.420280
2929.941386	235.577622
2931.217812	233.871329
2932.492497	231.713287
2933.765442	234.293706
2935.039717	233.095804
2936.312253	233.560140
2937.584585	233.156643
2938.853644	232.146853
2940.125567	228.369930
2941.395753	227.545455
2942.665736	226.645455
2943.935515	226.619580
2945.203557	223.882517
2946.469864	221.217483
2947.735968	224.281119
2949.003402	226.272028
2950.269102	226.137063
2951.534599	228.739860
2952.799894	228.832867
2954.061924	231.295804
2955.325285	231.539860
2956.588444	233.825874
2957.849870	231.139161
2959.112626	227.711189
2960.373651	224.251049
2961.632945	224.583217
2962.892038	222.693007
2964.150931	221.617483
2965.409624	219.230769
2966.668117	222.839860
2967.924881	222.647552
2969.181445	223.289510
2970.436282	225.241259
2971.692448	227.007692
2972.945358	225.234965
2974.199598	224.170629
2975.453639	220.640559
2976.705954	220.002098
2977.958071	213.437063
2979.208463	212.524476
2980.461710	209.952448
2981.710180	213.754545
2982.961504	211.426573
2984.209580	211.394406
2985.457458	211.920280
2986.705139	214.084615
2987.952624	215.981818
2989.198387	216.588112
2990.443953	212.331469
2991.690848	213.240559
2992.934497	210.752448
2994.179475	210.215385
2995.421210	210.144755
2996.665796	209.741259
2997.908662	212.012587
2999.148288	216.879021
3000.390765	217.478322
3001.630001	220.444056
3002.870565	218.032867
3004.109412	216.472028
3005.348065	213.315385
3006.585002	213.345455
3007.823266	208.796503
3009.059816	206.075524
3010.296171	203.475524
3011.532333	201.183217
3012.766782	203.455245
3014.001037	204.224476
3015.235099	202.348252
3016.467449	202.027273
3017.698087	198.016084
3018.931571	200.630769
3020.163343	200.665035
3021.393405	202.472727
3022.623275	201.569930
3023.851435	201.514685
3025.080921	202.369231
3026.308699	203.058741
3027.536285	202.006993
3028.765197	202.318182
3029.989367	201.169231
3031.216380	200.554545
3032.440170	199.836364
3033.665285	200.048252
3034.888694	198.834965
3036.111914	201.515385
3037.333428	198.422378
3038.557783	198.841259
3039.777403	199.239860
3040.998348	200.604895
3042.219105	201.436364
3043.438158	203.674126
3044.658537	202.509091
3045.875699	202.738462
3047.094186	202.436364
3048.310972	202.106993
3049.527569	200.122378
3050.743979	200.248252
3051.957175	196.988811
3053.173209	197.515385
3054.386031	194.984615
3055.601690	196.252448
3056.812626	194.837762
3058.024887	195.347552
3059.236962	193.548951
3060.448850	194.968531
3061.659040	193.148951
3062.869045	192.694406
3064.078863	191.571329
3065.286985	192.287413
3066.494921	192.457343
3067.701163	193.609091
3068.908728	190.048252
3070.114600	187.799301
3071.320286	186.618881
3072.525787	188.149650
3073.729596	189.232168
3074.934728	186.965734
3076.138167	184.059441
3077.339914	185.708392
3078.541478	186.378322
3079.742858	187.798601
3080.944054	187.051049
3082.143560	186.381119
3083.342882	183.670629
3084.543528	184.351748
3085.742485	184.507692
3086.938246	184.223077
3088.136837	184.710490
3089.332234	183.355245
3090.528954	184.612587
3091.722482	184.348252
3092.918839	181.722378
3094.113508	181.976224
3095.304987	181.537063
3096.500797	182.786713
3097.691914	182.079720
3098.884353	181.361538
3100.073605	180.560140
3101.265683	179.184615
3102.456076	181.560140
3103.643284	182.252448
3104.831815	181.282517
3106.021668	178.150350
3107.208336	173.555245
3108.394825	175.278322
3109.581134	176.715385
3110.768765	177.355245
3111.953215	175.736364
3113.135984	177.205594
3114.321577	180.206294
3115.505489	178.468531
3116.687723	179.694406
3117.869779	180.868531
3119.051656	179.867832
3120.233355	178.886713
3121.413376	176.857343
3122.591721	178.892308
3123.772887	176.039161
3124.950877	176.616084
3126.128690	173.489510
3127.306326	174.369231
3128.482287	172.921678
3129.658072	172.847552
3130.835177	174.110490
3132.010608	176.374825
3133.184366	175.894406
3134.356452	178.118881
3135.529858	177.710490
3136.703089	177.116084
3137.874647	174.870629
3139.047527	178.276224
3140.217239	173.687413
3141.388272	173.863636
3142.557634	174.396503
3143.725327	178.024476
3144.895835	176.793706
3146.061684	177.589510
3147.231843	176.116084
3148.397344	175.463636
3149.562672	172.440559
3150.727826	172.872028
3151.892806	171.190210
3153.059107	174.267133
3154.220754	170.693007
3155.383722	171.148252
3156.546516	172.183217
3157.709138	167.917483
3158.870095	164.320979
3160.030879	161.766434
3161.191491	159.194406
3162.350440	157.872028
3163.509216	157.217483
3164.667821	159.381119
3165.826254	158.916783
3166.984515	162.204196
3168.141114	161.227972
3169.296052	164.974825
3170.452309	165.295105
3171.606906	162.341259
3172.761331	162.287413
3173.914097	160.223776
3175.066693	160.564336
3176.219118	159.417483
3177.371374	159.094406
3178.523460	159.816783
3179.672399	158.391608
3180.824145	157.962238
3181.974234	160.426573
3183.122665	163.045455
3184.270928	161.673427
3185.419021	160.225175
3186.566946	159.700699
3187.713216	159.000000
3188.859317	157.581119
3190.003763	158.983916
3191.148042	160.833566
3192.292153	163.616084
3193.437582	162.560140
3194.579872	163.708392
3195.721994	163.401399
3196.863950	163.836364
3198.005738	161.498601
3199.147359	158.790210
3200.285844	158.765734
3201.425647	158.338462
3202.566768	158.480420
3203.704754	160.765734
3204.841091	161.042657
3205.977262	163.252448
3207.114751	162.692308
3208.250591	161.701399
3209.387747	160.339161
3210.520291	160.246154
3211.657117	155.537762
3212.789331	154.813287
3213.922863	155.546154
3215.056229	158.153147
3216.186468	160.118881
3217.319505	160.113287
3218.449416	162.144056
3219.580644	164.653846
3220.708746	163.820280
3221.839645	163.308392
3222.968901	163.953846
3224.096512	162.630769
3225.221002	158.765734
3226.349767	155.146154
3227.475410	153.947552
3228.600890	155.355245
3229.724729	153.975524
3230.851362	154.236364
3231.973398	153.458042
3233.096750	151.707692
3234.219940	150.212587
3235.342968	149.275524
3236.464356	147.818182
3237.585583	147.545455
3238.705171	142.879021
3239.824598	142.879720
3240.942387	148.003497
3242.062969	151.568531
3243.180436	153.116783
3244.297744	155.610490
3245.414890	154.912587
3246.530401	157.346154
3247.647227	156.218881
3248.760942	155.244056
3249.877448	151.871329
3250.992318	153.158741
3252.104080	151.498601
3253.215683	154.470629
3254.328600	154.016783
3255.441359	155.883217
3256.551011	156.662238
3257.661978	155.508392
3258.772786	152.646154
3259.881962	149.270629
3260.989507	151.946853
3262.098367	154.938462
3263.207068	155.312587
3264.312667	159.904895
3265.419581	158.374126
3266.524865	158.125874
3267.631463	156.855245
3268.734961	157.844755
3269.839773	155.156643
3270.944428	150.565035
3272.045984	146.766434
3273.147385	142.158042
3274.250099	146.851049
3275.352656	147.661538
3276.452118	149.169231
3277.554362	151.140559
3278.653512	150.094406
3279.751036	149.696503
3280.848405	148.195804
3281.948557	145.139161
3283.045615	145.160140
3284.142518	144.629371
3285.239267	144.849650
3286.331456	143.200000
3287.427895	143.892308
3288.522711	143.356643
3289.617372	142.719580
3290.710412	145.417483
3291.803298	145.505594
3292.894563	142.876224
3293.987141	143.285315
3295.078098	143.474825
3296.167437	145.751049
3297.256621	146.198601
3298.347119	146.820280
3299.434532	146.174825
3300.521793	145.271329
3301.610366	145.534266
3302.698786	145.557343
3303.782659	147.198601
3304.870774	141.641259
3305.955808	137.752448
3307.039226	135.720979
3308.123955	133.344056
3309.207070	132.893706
3310.291496	131.560140
3311.372844	129.686713
3312.455504	130.767133
3313.536550	132.127972
3314.617445	135.755944
3315.696727	137.906993
3316.775858	140.274126
3317.856300	137.803497
3318.933669	137.531469
3320.012349	132.585315
3321.089417	133.702098
3322.166335	135.297902
3323.241642	133.956643
3324.316800	134.696503
3325.393270	135.305594
3326.466668	134.432867
3327.539918	136.044755
3328.614479	133.779720
3329.687430	135.708392
3330.758774	133.122378
3331.831428	130.933566
3332.901015	128.275524
3333.971913	129.281119
3335.041204	131.300699
3336.111806	129.681818
3337.180801	133.152448
3338.248190	135.160140
3339.313974	132.172028
3340.383984	134.016084
3341.450931	132.860140
3342.514816	136.258042
3343.581469	132.603497
3344.646517	131.266434
3345.709963	129.165035
3346.773261	126.957343
3347.836414	126.267133
3348.899420	123.876224
3349.962279	125.971329
3351.023537	126.760839
3352.081738	122.602797
3353.144160	126.786014
3354.203525	125.410490
3355.262745	126.611189
3356.323275	125.652448
3357.379295	126.039860
3358.438080	126.762937
3359.492357	127.596503
3360.549397	126.406993
3361.604840	127.025874
3362.661591	127.606294
3363.716745	128.251049
3364.770301	127.176923
3365.822260	128.301399
3366.876981	126.558042
3367.928653	126.866434
3368.980182	125.038462
3370.033020	125.444755
3371.082810	125.996503
3372.133908	124.453846
3373.181961	123.335664
3374.232774	124.429371
3375.280541	122.639860
3376.328166	122.534965
3377.375649	123.274825
3378.421538	123.765035
3379.468736	124.554545
3380.512892	124.562238
3381.559806	125.414685
3382.605128	125.854545
3383.647410	127.259441
3384.689550	126.439161
3385.732998	124.041958
3386.776306	123.495804
3387.818023	118.911888
3388.859599	116.234965
3389.901035	115.606294
3390.940881	114.928671
3391.979140	115.510490
3393.018706	115.855944
3394.058131	116.846154
3395.095970	118.152448
3396.132221	121.885315
3397.168332	120.336364
3398.205751	118.202797
3399.240137	120.950350
3400.275830	118.199301
3401.311384	117.458042
3402.343907	118.074126
3403.379183	117.495804
3404.411428	117.550350
3405.443535	116.922378
3406.474058	116.190909
3407.505889	116.431469
3408.537580	118.117483
3409.566245	118.823776
3410.594771	121.204196
3411.624605	125.283916
3412.654300	123.511888
3413.680970	126.250350
3414.708947	126.997203
3415.733899	125.353147
3416.761601	124.752448
3417.786280	120.860140
3418.812265	116.653147
3419.836670	117.353147
3420.860939	117.222378
3421.883629	117.585315
3422.906183	117.917483
3423.930043	118.024476
3424.950883	116.445455
3425.971588	117.328771
3426.993598	117.926124
3428.012590	117.860240
3429.031447	116.753846
3430.051609	114.229670
3431.068755	109.910440
