-118.448435	6.800000
-115.778835	7.700000
-113.112170	3.300000
-110.446257	-2.700000
-107.783276	20.700000
-105.118866	-4.900000
-102.457386	-5.900000
-99.794476	5.500000
-97.136674	6.300000
-94.477441	-3.500000
-91.818958	0.900000
-89.163398	-2.000000
-86.506410	-10.700000
-83.854519	-19.600000
-81.201199	6.600000
-78.550799	12.400000
-75.898969	12.300000
-73.252230	4.000000
-70.604061	-8.300000
-67.956636	2.200000
-65.312124	-1.600000
-62.666184	-9.000000
-60.025325	3.600000
-57.383037	16.400000
-54.743657	5.900000
-52.102849	6.800000
-49.462781	2.200000
-46.827785	-3.500000
-44.191360	3.000000
-41.557839	-1.500000
-38.922889	15.400000
-36.293004	-4.900000
-33.659527	-6.800000
-31.031112	14.600000
-28.403430	15.800000
-25.774321	15.000000
-23.150268	-2.600000
-20.522626	2.400000
-17.900037	13.900000
-15.278180	15.100000
-12.657053	47.700000
-10.036656	43.800000
-7.419147	196.200000
-4.800210	577.600000
-2.184159	1470.000000
0.431164	1840.900000
3.045760	1138.900000
5.657473	155.300000
8.270615	9.600000
10.878723	0.900000
13.490413	18.200000
16.097072	3.200000
18.705159	9.100000
21.312522	4.000000
23.914860	4.700000
26.520776	3.500000
29.121670	-8.900000
31.723992	8.900000
34.321297	8.000000
36.922177	-4.300000
39.518043	10.900000
42.115336	-13.800000
44.711910	5.500000
47.303475	9.600000
49.896468	2.500000
52.486600	0.600000
55.078160	17.200000
57.666860	-15.600000
60.256987	9.500000
62.842116	-5.400000
65.428671	19.700000
68.014513	9.500000
70.597501	-17.900000
73.181915	-6.700000
75.759201	7.800000
78.340053	-1.100000
80.918056	16.100000
83.495349	9.300000
86.074068	5.100000
88.647806	11.100000
91.222970	6.900000
93.795291	-2.700000
96.366904	17.200000
98.935677	8.500000
101.505877	6.400000
104.073239	-9.600000
106.642026	3.900000
109.207977	6.600000
111.771093	19.200000
114.337765	2.400000
116.895216	7.700000
119.458352	9.700000
122.016529	16.700000
124.578259	15.300000
127.135034	21.500000
129.693234	21.900000
132.246482	59.500000
134.799031	93.100000
137.355131	114.200000
139.906284	147.000000
142.456738	184.000000
145.006496	206.900000
147.553434	235.800000
150.099676	238.300000
152.647344	282.100000
155.194317	272.700000
157.736353	277.300000
160.277696	272.700000
162.818346	280.800000
165.360422	285.900000
167.899687	271.800000
170.436142	251.400000
172.971907	278.300000
175.509097	269.400000
178.045595	266.500000
180.579288	272.700000
183.110178	275.200000
185.640379	260.900000
188.172005	250.800000
190.700830	245.700000
193.226856	273.100000
195.752197	236.400000
198.278962	273.300000
200.802930	273.600000
203.326214	280.400000
205.848813	275.800000
208.368619	261.000000
210.887742	272.800000
213.406182	277.200000
215.926046	261.300000
218.438909	261.900000
220.955303	263.700000
223.471015	275.100000
225.981838	282.300000
228.494085	263.200000
231.003549	262.300000
233.512335	282.300000
236.020443	276.500000
238.529974	265.800000
241.034625	269.900000
243.538601	248.700000
246.044000	244.800000
248.544524	267.600000
251.048571	250.300000
253.545648	275.200000
256.046247	256.800000
258.544075	286.400000
261.041230	294.600000
263.537712	283.800000
266.029331	303.700000
268.524470	313.000000
271.016843	322.800000
273.508545	318.500000
275.997483	325.400000
278.487846	343.800000
280.975447	380.500000
283.460288	416.100000
285.948643	469.300000
288.430059	582.800000
290.914989	778.000000
293.395074	1151.900000
295.878671	1643.700000
298.357425	2073.400000
300.837603	1905.100000
303.315028	1358.300000
305.791790	841.700000
308.267889	570.200000
310.741239	440.500000
313.213927	369.900000
315.685954	379.500000
318.157320	349.600000
320.625942	340.600000
323.093904	354.200000
325.563289	321.300000
328.027850	326.400000
330.495916	316.300000
332.959162	298.000000
335.421750	308.700000
337.883682	308.100000
340.344957	303.400000
342.803498	300.700000
345.263461	292.400000
347.720691	296.800000
350.177267	290.000000
352.633189	297.600000
355.086382	284.100000
357.540996	318.800000
359.990809	290.000000
362.444119	309.300000
364.892629	284.700000
367.340489	277.000000
369.789770	314.200000
372.234258	281.100000
374.680168	280.800000
377.125429	276.900000
379.567970	287.600000
382.009864	307.400000
384.451111	287.800000
386.889642	278.500000
389.329595	267.000000
391.766834	299.000000
394.201361	267.700000
396.639376	294.000000
399.072614	266.600000
401.507274	282.400000
403.937160	285.000000
406.370532	285.600000
408.799134	278.600000
411.227095	281.600000
413.656476	295.900000
416.081092	285.800000
418.507130	283.800000
420.932527	302.000000
423.357284	292.800000
425.777283	295.400000
428.198703	282.500000
430.617426	282.900000
433.037570	296.600000
435.455019	265.800000
437.873888	279.800000
440.290064	293.100000
442.701493	289.700000
445.116398	299.800000
447.528613	294.700000
449.940194	313.800000
452.351141	296.900000
454.759402	303.900000
457.167030	283.500000
459.574027	295.400000
461.980391	276.300000
464.384073	278.800000
466.787125	308.800000
469.189547	296.800000
471.591340	290.300000
473.990454	300.300000
476.390988	315.900000
478.790893	297.200000
481.186075	294.400000
483.584724	303.500000
485.978653	297.900000
488.371956	288.900000
490.764633	275.600000
493.156685	282.900000
495.550156	296.400000
497.938914	249.400000
500.325006	277.700000
502.712518	280.900000
505.099406	287.000000
507.483631	254.000000
509.869275	269.800000
512.252256	270.300000
514.632577	256.100000
517.014317	253.700000
519.393398	224.700000
521.773898	271.900000
524.151740	240.200000
526.526927	268.500000
528.901496	264.200000
531.277484	272.100000
533.650818	249.400000
536.025570	266.000000
538.395637	268.200000
540.765088	280.500000
543.135957	268.600000
545.502146	273.000000
547.869753	247.400000
550.234714	276.400000
552.599062	276.100000
554.962798	267.700000
557.327951	273.300000
559.688431	282.700000
562.050330	279.200000
564.409589	294.300000
566.766209	279.400000
569.126274	290.300000
571.479649	286.700000
573.836468	282.400000
576.190651	253.200000
578.544227	269.600000
580.897194	267.000000
583.247530	277.100000
585.599282	260.600000
587.944358	286.600000
590.294898	256.400000
592.638765	253.500000
594.988092	258.900000
597.332772	269.200000
599.674826	276.600000
602.018298	261.000000
604.359147	235.400000
606.699394	257.900000
609.037020	236.400000
611.378081	273.400000
613.714504	242.000000
616.052345	223.600000
618.387567	253.400000
620.720174	243.300000
623.054197	259.900000
625.385607	238.200000
627.716418	230.000000
630.046631	228.900000
632.376246	243.100000
634.701239	218.300000
637.031673	230.300000
639.357485	250.400000
641.680691	254.400000
644.005312	243.500000
646.327329	239.400000
648.648751	235.000000
650.967570	251.200000
653.287805	228.300000
655.607447	255.100000
657.924488	268.300000
660.240937	210.300000
662.554788	264.200000
664.870055	233.400000
667.182725	241.000000
669.496810	248.700000
671.806295	254.900000
674.117196	263.800000
676.425504	263.600000
678.733224	246.600000
681.042359	236.400000
683.346901	228.600000
685.650856	285.100000
687.954226	254.500000
690.259010	246.100000
692.559208	252.200000
694.860820	245.400000
697.161848	237.900000
699.458293	250.000000
701.756154	245.400000
704.053431	242.300000
706.350125	260.400000
708.642243	257.900000
710.937772	251.900000
713.228728	249.300000
715.521098	255.800000
717.810892	267.900000
720.100107	245.000000
722.388741	257.300000
724.674804	265.900000
726.962280	254.900000
729.247186	259.200000
731.531513	256.000000
733.813272	248.500000
736.096445	222.100000
738.379041	248.000000
740.657082	246.500000
742.936536	260.400000
745.215415	249.100000
747.493718	250.700000
749.767472	249.800000
752.042640	262.300000
754.317234	279.600000
756.589268	246.100000
758.862716	247.700000
761.133606	260.100000
763.401940	258.900000
765.671687	248.000000
767.938880	236.400000
770.205502	268.600000
772.471555	254.900000
774.735055	275.300000
776.999969	254.500000
779.264313	251.600000
781.524128	260.100000
783.785356	270.300000
786.046015	278.500000
788.304129	257.900000
790.559698	248.000000
792.818658	257.200000
795.071119	254.900000
797.328947	260.500000
799.582255	279.800000
801.833024	262.100000
804.085205	285.700000
806.334848	250.200000
808.585902	284.400000
810.832445	263.800000
813.080400	260.800000
815.325821	251.800000
817.572653	256.300000
819.818924	249.800000
822.060691	229.900000
824.305840	275.400000
826.544517	259.500000
828.786577	257.000000
831.024138	264.800000
833.263110	264.700000
835.499556	252.700000
837.737413	265.500000
839.972745	263.500000
842.205554	273.400000
844.439774	267.000000
846.671472	253.000000
848.902615	278.600000
851.133203	260.100000
853.363236	240.800000
855.592716	256.300000
857.817714	281.100000
860.046087	284.400000
862.269981	257.800000
864.495285	253.700000
866.716114	274.900000
868.940315	274.500000
871.160043	257.900000
873.381182	261.200000
875.601770	286.300000
877.819848	270.000000
880.039337	285.000000
882.254359	251.100000
884.468833	273.100000
886.682760	272.600000
888.896139	286.200000
891.108971	288.200000
893.321257	282.100000
895.531040	272.800000
897.740278	262.200000
899.948971	276.400000
902.155165	257.600000
904.362768	278.200000
906.567874	277.600000
908.772436	266.700000
910.974502	266.900000
913.177978	257.300000
915.378960	291.500000
917.579401	286.200000
919.781249	268.800000
921.976707	292.600000
924.175524	277.200000
926.369902	275.000000
928.567638	280.400000
930.760938	260.500000
932.955647	287.100000
935.147870	257.700000
937.339555	280.100000
939.530702	276.200000
941.719366	278.100000
943.907493	293.700000
946.093140	277.600000
948.282139	286.000000
950.466715	290.600000
952.650756	292.700000
954.838147	282.200000
957.017234	290.800000
959.199672	305.900000
961.381576	261.600000
963.561006	283.200000
965.737963	289.800000
967.916327	285.500000
970.096099	286.400000
972.269522	297.600000
974.446291	282.700000
976.618653	307.800000
978.792423	270.200000
980.961789	310.300000
983.134500	299.000000
985.304744	296.600000
987.474460	291.400000
989.643647	299.800000
991.808437	288.500000
993.976568	313.200000
996.140305	317.600000
998.305448	326.500000
1000.468133	303.400000
1002.630291	304.600000
1004.789993	289.100000
1006.949171	313.000000
1009.109755	287.300000
1011.267884	310.400000
1013.425489	309.000000
1015.582571	307.300000
1017.739130	289.500000
1019.891309	311.400000
1022.044894	283.300000
1024.197958	314.000000
1026.348574	315.100000
1028.500595	310.200000
1030.648243	303.700000
1032.799223	317.600000
1034.945832	313.400000
1037.091923	327.400000
1039.237494	311.600000
1041.384471	319.800000
1043.525159	316.700000
1045.669177	322.600000
1047.810754	302.900000
1049.951815	313.800000
1052.094280	307.500000
1054.230466	320.200000
1056.369978	340.800000
1058.505134	305.300000
1060.643615	326.300000
1062.777742	323.000000
1064.911356	314.200000
1067.046375	332.400000
1069.177044	305.900000
1071.309118	330.500000
1073.438763	295.200000
1075.567896	332.100000
1077.696517	317.200000
1079.824627	327.700000
1081.950311	324.500000
1084.075485	326.500000
1086.202063	313.500000
1088.324304	330.800000
1090.447948	309.800000
1092.567259	327.200000
1094.691798	320.400000
1096.810092	297.100000
1098.929791	318.800000
1101.047071	324.700000
1103.163845	309.900000
1105.280112	309.800000
1107.393964	319.600000
1109.509219	320.000000
1111.620152	304.200000
1113.734396	318.100000
1115.844320	312.600000
1117.955648	339.700000
1120.066471	304.100000
1122.172979	322.800000
1124.282795	297.400000
1126.388297	329.500000
1128.495202	317.300000
1130.595892	313.500000
1132.701794	330.100000
1134.803387	329.100000
1136.906383	328.800000
1139.008878	313.700000
1141.105166	317.500000
1143.206662	306.700000
1145.303855	298.300000
1147.400549	312.500000
1149.496745	300.500000
1151.592444	297.600000
1153.687645	303.600000
1155.780449	324.100000
1157.874655	310.100000
1159.962670	322.100000
1162.055883	302.300000
1164.142908	317.500000
1166.233232	308.900000
1168.319269	321.000000
1170.408603	302.200000
1172.491756	296.000000
1174.576311	298.600000
1176.662268	308.100000
1178.743943	319.500000
1180.827020	295.000000
1182.907711	313.400000
1184.987910	302.600000
1187.067618	313.100000
1189.146835	334.500000
1191.223670	293.500000
1193.298124	323.200000
1195.375870	323.500000
1197.449345	305.300000
1199.524221	320.400000
1201.594830	323.200000
1203.666841	315.600000
1205.736475	330.300000
1207.807510	303.300000
1209.878057	314.800000
1211.944343	314.300000
1214.012030	326.300000
1216.077345	302.400000
1218.144060	330.900000
1220.206519	304.900000
1222.272263	312.900000
1224.333754	328.600000
1226.396644	324.200000
1228.457167	302.400000
1230.517206	331.500000
1232.576763	319.200000
1234.633954	330.900000
1236.690664	324.200000
1238.745011	320.500000
1240.802638	316.900000
1242.857903	327.200000
1244.908927	333.300000
1246.961351	339.900000
1249.013295	331.600000
1251.062881	313.100000
1253.111988	313.000000
1255.160617	326.400000
1257.208767	317.700000
1259.256439	336.000000
1261.299880	296.700000
1263.346596	328.800000
1265.390959	314.300000
1267.434846	325.700000
1269.476382	318.400000
1271.515567	322.100000
1273.558026	323.600000
1275.596262	328.300000
1277.635897	357.700000
1279.675057	322.900000
1281.709998	333.800000
1283.746339	325.900000
1285.780334	333.700000
1287.815728	355.200000
1289.846908	300.500000
1291.879487	329.800000
1293.911593	331.300000
1295.941359	320.600000
1297.972523	330.400000
1299.999479	336.000000
1302.027833	347.300000
1304.051983	344.000000
1306.079397	331.000000
1308.102609	318.500000
1310.127219	318.200000
1312.149495	335.800000
1314.173168	328.900000
1316.194508	316.400000
1318.215380	324.400000
1320.235786	342.100000
1322.251997	326.300000
1324.269606	336.300000
1326.284888	318.200000
1328.303427	331.800000
1330.317778	341.700000
1332.329803	340.000000
1334.345085	346.100000
1336.356182	330.700000
1338.368676	298.600000
1340.376987	334.500000
1342.388554	319.300000
1344.394081	322.300000
1346.402864	350.800000
1348.407469	325.400000
1350.415328	330.100000
1352.422725	344.400000
1354.424091	327.500000
1356.426854	351.600000
1358.429156	334.300000
1360.430999	328.800000
1362.432382	320.300000
1364.431452	319.400000
1366.430063	325.800000
1368.428216	347.100000
1370.425911	315.800000
1372.419442	339.900000
1374.414370	326.500000
1376.408841	322.000000
1378.402855	331.600000
1380.394561	338.800000
1382.385813	317.900000
1384.374759	338.800000
1386.365100	326.300000
1388.354986	334.500000
1390.342569	315.600000
1392.329697	337.300000
1394.314525	328.500000
1396.300746	339.600000
1398.284668	335.600000
1400.268137	353.900000
1402.251154	336.800000
1404.231872	327.900000
1406.213986	339.200000
1408.193802	329.500000
1410.173168	327.300000
1412.148394	324.600000
1414.126860	330.100000
1416.103031	361.900000
1418.078754	344.900000
1420.054027	353.000000
1422.027009	342.000000
1423.999543	320.300000
1425.971630	315.000000
1427.943268	346.200000
1429.910778	327.800000
1431.883363	312.400000
1433.848141	327.100000
1435.817991	325.200000
1437.783718	351.100000
1439.750837	335.800000
1441.715673	334.800000
1443.676390	341.800000
1445.642174	341.900000
1447.602003	331.500000
1449.563225	336.600000
1451.525840	361.300000
1453.484340	369.500000
1455.442398	372.800000
1457.400013	339.700000
1459.357187	328.400000
1461.312085	326.800000
1463.268375	357.900000
1465.222391	338.000000
1467.175967	351.000000
1469.127270	337.500000
1471.079965	333.200000
1473.030389	324.000000
1474.980373	334.400000
1476.929919	341.600000
1478.877196	355.600000
1480.822206	326.800000
1482.768607	354.300000
1484.714572	352.900000
1486.660098	353.700000
1488.603360	351.000000
1490.546185	339.300000
1492.486747	352.700000
1494.428700	334.200000
1496.368392	351.500000
1498.307648	334.800000
1500.246469	338.500000
1502.183031	358.500000
1504.120984	337.900000
1506.056679	358.000000
1507.991939	361.900000
1509.924944	334.800000
1511.857516	349.500000
1513.789656	320.600000
1515.721364	338.100000
1517.650818	347.700000
1519.581663	342.900000
1521.512077	340.800000
1523.438417	337.700000
1525.366149	349.700000
1527.291630	355.600000
1529.216682	357.900000
1531.141305	331.800000
1533.065499	347.000000
1534.987446	343.300000
1536.910782	341.800000
1538.831873	326.300000
1540.750719	359.500000
1542.670955	341.200000
1544.588947	353.200000
1546.506513	343.200000
1548.421837	358.700000
1550.338551	342.300000
1552.251210	338.100000
1554.167073	344.600000
1556.080696	356.700000
1557.992082	324.200000
1559.904856	343.200000
1561.813581	343.600000
1563.723696	349.700000
1565.633387	349.900000
1567.542654	353.000000
1569.449688	360.500000
1571.354489	342.400000
1573.260679	355.600000
1575.164637	349.800000
1577.068175	344.300000
1578.971291	351.800000
1580.872179	341.400000
1582.774454	348.000000
1584.674502	335.300000
1586.575937	352.300000
1588.473339	317.800000
1590.370322	346.300000
1592.266887	324.400000
1594.164840	349.500000
1596.056958	333.400000
1597.952269	343.400000
1599.847163	342.400000
1601.739835	347.600000
1603.632091	350.600000
1605.522126	363.300000
1607.411747	362.000000
1609.300951	344.800000
1611.189741	346.100000
1613.076314	339.100000
1614.964273	363.900000
1616.848216	353.300000
1618.733547	331.000000
1620.618463	371.600000
1622.501166	342.700000
1624.385256	342.300000
1626.265335	343.400000
1628.146800	355.300000
1630.026055	341.300000
1631.906696	358.400000
1633.781533	344.000000
1635.661352	343.300000
1637.537165	357.600000
1639.412568	368.400000
1641.289358	351.800000
1643.160350	339.800000
1645.034524	349.900000
1646.904700	355.100000
1648.778056	365.100000
1650.649209	349.000000
1652.518160	348.900000
1654.388497	344.700000
1656.254840	353.400000
1658.122569	351.200000
1659.988100	330.200000
1661.855015	320.100000
1663.717942	333.700000
1665.582254	323.100000
1667.444370	335.500000
1669.306082	344.200000
1671.169178	334.900000
1673.030080	332.000000
1674.888788	334.000000
1676.747093	321.600000
1678.606783	333.700000
1680.460706	350.400000
1682.317801	335.200000
1684.174494	343.200000
1686.027211	345.400000
1687.883098	341.900000
1689.735012	318.400000
1691.586525	345.500000
1693.437637	327.500000
1695.288349	333.200000
1697.138660	328.100000
1698.986787	335.300000
1700.836297	337.400000
1702.680059	351.900000
1704.528770	316.000000
1706.371736	345.700000
1708.217867	332.100000
1710.060037	331.100000
1711.905371	318.700000
1713.744965	334.900000
1715.585943	316.100000
1717.428304	326.300000
1719.266709	345.800000
1721.106497	334.000000
1722.944110	316.100000
1724.781327	317.100000
1726.616371	337.900000
1728.452798	331.700000
1730.287053	363.300000
1732.120913	336.500000
1733.954380	328.100000
1735.783900	323.400000
1737.616579	351.500000
1739.445314	361.000000
1741.277207	322.100000
1743.105157	327.600000
1744.932715	319.800000
1746.759881	328.900000
1748.586656	320.900000
1750.413040	357.300000
1752.235487	315.300000
1754.061088	339.600000
1755.882755	313.900000
1757.705804	337.600000
1759.526692	327.200000
1761.347190	321.900000
1763.169070	320.500000
1764.985250	331.300000
1766.804582	327.800000
1768.619987	321.000000
1770.438542	329.700000
1772.253172	339.200000
1774.067416	349.700000
1775.881272	327.300000
1777.694742	320.500000
1779.506059	348.300000
1781.318757	342.600000
1783.131068	333.900000
1784.939462	311.300000
1786.749237	356.200000
1788.555096	324.800000
1790.364101	340.500000
1792.169193	354.300000
1793.975666	350.300000
1795.781755	320.100000
1797.583934	341.300000
1799.389256	331.900000
1801.190670	338.400000
1802.993464	328.000000
1804.792352	344.500000
1806.592621	339.200000
1808.392508	334.300000
1810.190254	355.700000
1811.987618	360.000000
1813.784603	329.200000
1815.581207	357.400000
1817.375672	328.000000
1819.171516	326.400000
1820.961706	317.800000
1822.756792	323.600000
1824.546225	323.500000
1826.338795	338.200000
1828.129230	322.000000
1829.917531	323.400000
1831.708967	309.000000
1833.494757	329.500000
1835.281927	327.300000
1837.066965	325.200000
1838.855137	325.900000
1840.639423	334.500000
1842.421580	316.400000
1844.205115	343.200000
1845.986522	328.500000
1847.769308	347.100000
1849.548214	335.500000
1851.328498	339.600000
1853.106656	332.200000
1854.886193	347.300000
1856.663605	329.700000
1858.438893	332.000000
1860.215560	333.300000
1861.990103	340.600000
1863.766025	328.600000
1865.536326	338.200000
1867.309755	311.300000
1869.081064	340.500000
1870.852003	337.300000
1872.624318	342.900000
1874.391020	340.200000
1876.160848	334.200000
1877.926812	318.500000
1879.695900	333.400000
1881.461126	326.900000
1883.225983	329.900000
1884.992218	340.100000
1886.754594	322.500000
1888.516603	318.200000
1890.278244	331.900000
1892.039519	314.400000
1893.800426	342.000000
1895.560967	311.200000
1897.319398	340.800000
1899.077464	301.300000
1900.833421	328.700000
1902.590756	317.700000
1904.347724	343.300000
1906.102587	316.400000
1907.855344	310.500000
1909.607738	329.000000
1911.361507	335.400000
1913.113173	308.600000
1914.862737	312.300000
1916.613677	311.500000
1918.364253	336.000000
1920.110990	330.000000
1921.859104	346.800000
1923.605118	318.200000
1925.352508	345.000000
1927.097799	320.200000
1928.840993	330.000000
1930.585563	309.600000
1932.328036	326.200000
1934.070149	322.000000
1935.811902	326.200000
1937.553296	312.200000
1939.292596	305.500000
1941.031536	315.400000
1942.770119	338.800000
1944.506609	317.600000
1946.242742	324.200000
1947.980249	330.800000
1949.713934	330.800000
1951.448994	324.400000
1953.181966	322.500000
1954.914581	338.400000
1956.646839	304.600000
1958.378741	337.400000
1960.108557	328.500000
1961.836289	324.900000
1963.565394	330.400000
1965.294145	324.100000
1967.020812	339.600000
1968.747125	318.300000
1970.474811	333.600000
1972.196961	323.500000
1973.922212	311.400000
1975.643657	333.100000
1977.368201	317.300000
1979.090666	304.700000
1980.809327	334.800000
1982.531087	336.400000
1984.249045	331.400000
1985.968376	339.100000
1987.683908	347.400000
1989.404261	304.900000
1991.120814	301.900000
1992.833571	322.500000
1994.549425	365.600000
1996.263205	315.600000
1997.976636	326.500000
1999.687996	347.000000
2001.400729	331.200000
2003.109670	320.900000
2004.821705	332.100000
2006.528230	330.000000
2008.237848	324.900000
2009.945398	315.800000
2011.652601	343.900000
2013.357738	344.000000
2015.062528	327.400000
2016.768690	344.600000
2018.471070	343.100000
2020.174822	324.800000
2021.876510	328.700000
2023.577854	307.000000
2025.278852	316.200000
2026.977790	326.400000
2028.678098	333.000000
2030.374632	308.400000
2032.072537	332.300000
2033.768383	309.200000
2035.467315	350.800000
2037.160761	315.900000
2038.855579	325.000000
2040.550053	341.900000
2042.240759	333.300000
2043.934549	329.500000
2045.624572	339.800000
2047.315966	339.400000
2049.005307	326.300000
2050.696018	318.600000
2052.382966	342.000000
2054.069575	330.000000
2055.757554	311.700000
2057.441773	313.900000
2059.127362	326.100000
2060.812612	328.600000
2062.495814	338.400000
2064.180385	326.400000
2065.859494	313.800000
2067.543388	334.700000
2069.221822	329.300000
2070.903332	297.300000
2072.581092	318.800000
2074.258514	323.300000
2075.937306	327.800000
2077.614056	329.600000
2079.288764	331.400000
2080.964841	331.200000
2082.638878	327.100000
2084.312579	329.600000
2085.985945	337.000000
2087.657273	333.700000
2089.328266	317.400000
2090.998925	306.200000
2092.669249	329.900000
2094.339240	337.400000
2096.007195	351.100000
2097.674817	314.600000
2099.340404	310.900000
2101.007361	309.600000
2102.672283	319.400000
2104.336874	339.600000
2105.999433	356.900000
2107.663360	324.200000
2109.325257	311.900000
2110.986822	317.700000
2112.648056	331.100000
2114.307262	318.900000
2115.966137	329.500000
2117.624683	328.900000
2119.282899	332.500000
2120.937391	321.100000
2122.594948	335.400000
2124.252176	330.500000
2125.905682	326.000000
2127.560556	302.700000
2129.211712	336.000000
2130.865929	318.300000
2132.516430	322.300000
2134.168297	324.800000
2135.814756	332.700000
2137.465970	343.600000
2139.113470	334.200000
2140.762337	326.000000
2142.409186	331.500000
2144.055708	314.100000
2145.701905	337.900000
2147.344394	330.100000
2148.989941	323.500000
2150.631781	343.500000
2152.276678	343.800000
2153.917870	317.900000
2155.558738	320.200000
2157.199282	318.900000
2158.837814	334.300000
2160.477712	329.700000
2162.113910	346.700000
2163.751475	335.200000
2165.388716	314.500000
2167.023948	309.000000
2168.658859	322.800000
2170.293448	327.300000
2171.927715	319.600000
2173.558289	346.800000
2175.191915	318.800000
2176.821849	306.200000
2178.453148	301.700000
2180.082442	326.600000
2181.711417	300.700000
2183.340073	313.100000
2184.968409	332.600000
2186.594742	330.900000
2188.220757	320.100000
2189.844771	320.500000
2191.470149	330.100000
2193.093528	328.000000
2194.718270	307.000000
2196.339332	304.000000
2197.960077	313.400000
2199.582187	335.400000
2201.202299	307.000000
2202.820414	322.000000
2204.438214	325.400000
2206.055699	311.900000
2207.672868	315.000000
2209.289722	338.500000
2210.906261	307.100000
2212.520806	322.300000
2214.133359	304.500000
2215.747276	300.900000
2217.359202	309.700000
2218.972491	308.500000
2220.583790	319.000000
2222.193099	330.900000
2223.803772	313.400000
2225.412456	318.000000
2227.020828	296.600000
2228.627212	292.400000
2230.234960	323.500000
2231.840721	276.400000
2233.446171	329.000000
2235.049636	305.300000
2236.654464	306.200000
2238.257309	311.500000
2239.858170	317.600000
2241.460393	308.400000
2243.060635	329.200000
2244.662239	300.600000
2246.260191	309.000000
2247.859505	325.000000
2249.456839	337.600000
2251.053864	329.300000
2252.652252	304.800000
2254.246991	301.500000
2255.839753	316.300000
2257.433878	309.300000
2259.029364	332.900000
2260.621206	317.300000
2262.212741	331.300000
2263.805637	301.300000
2265.393224	325.300000
2266.985508	303.900000
2268.572484	340.200000
2270.162489	315.100000
2271.747189	312.000000
2273.336583	316.800000
2274.920674	316.500000
2276.506127	294.100000
2278.089610	302.300000
2279.676120	296.300000
2281.258996	314.400000
2282.841568	318.100000
2284.423837	307.600000
2286.002477	288.800000
2287.584140	302.600000
2289.162175	290.200000
2290.743233	302.000000
2292.320665	298.600000
2293.896132	295.200000
2295.474622	282.700000
2297.049488	307.200000
2298.624053	314.900000
2300.198318	314.600000
2301.772282	306.900000
2303.345946	311.900000
2304.919309	300.100000
2306.489054	291.500000
2308.058500	283.900000
2309.630965	302.200000
2311.198154	291.600000
2312.768362	307.300000
2314.334955	301.100000
2315.902908	304.700000
2317.468905	299.900000
2319.034605	309.300000
2320.600008	285.500000
2322.163456	321.700000
2323.728264	301.500000
2325.289464	303.400000
2326.853678	299.700000
2328.412631	337.200000
2329.974597	313.800000
2331.534613	312.800000
2333.094333	301.000000
2334.652104	318.900000
2336.209580	302.600000
2337.766762	303.000000
2339.321997	330.600000
2340.876937	302.600000
2342.431584	291.100000
2343.985937	309.100000
2345.539996	312.400000
2347.093761	306.800000
2348.645583	292.000000
2350.195461	317.300000
2351.748347	289.900000
2353.295991	295.000000
2354.846642	299.300000
2356.393702	300.400000
2357.942121	308.700000
2359.490247	289.300000
2361.034785	285.700000
2362.580681	296.700000
2364.124639	313.700000
2365.669954	307.900000
2367.211684	296.700000
2368.754771	305.900000
2370.295923	293.900000
2371.836785	298.200000
2373.377358	281.200000
2374.917641	299.400000
2376.457636	289.000000
2377.994053	307.700000
2379.533471	309.300000
2381.069312	297.100000
2382.606509	292.400000
2384.140131	296.900000
2385.676754	301.800000
2387.211445	316.000000
2388.744207	302.500000
2390.276682	292.900000
2391.807230	305.000000
2393.340775	317.800000
2394.869109	289.800000
2396.398799	307.000000
2397.928204	307.300000
2399.457323	303.200000
2400.986158	293.700000
2402.509787	305.600000
2404.038053	310.300000
2405.561115	293.900000
2407.088811	315.800000
2408.609668	303.500000
2410.135158	315.100000
2411.657087	304.100000
2413.180372	301.600000
2414.701736	304.700000
2416.221180	288.400000
2417.741979	314.800000
2419.260859	289.400000
2420.779457	292.200000
2422.296138	303.700000
2423.814173	312.100000
2425.331927	309.500000
2426.846130	303.900000
2428.360052	307.000000
2429.873694	291.000000
2431.388691	280.800000
2432.900139	300.400000
2434.412942	309.000000
2435.923832	309.300000
2437.434442	311.600000
2438.943141	297.800000
2440.454827	270.100000
2441.962968	291.400000
2443.470832	291.900000
2444.978418	296.700000
2446.482463	283.000000
2447.989494	313.400000
2449.494616	302.000000
2450.999461	293.000000
2452.502399	281.400000
2454.005060	309.800000
2455.507445	286.200000
2457.007925	290.100000
2458.509758	279.000000
2460.009687	289.000000
2461.509340	280.000000
2463.008717	282.300000
2464.506192	275.400000
2466.001765	271.800000
2467.500319	292.300000
2468.995343	283.500000
2470.491721	266.700000
2471.984571	278.400000
2473.478775	288.500000
2474.972705	309.000000
2476.463112	253.800000
2477.956495	292.200000
2479.447981	264.500000
2480.937570	306.700000
2482.426887	283.800000
2483.914309	275.200000
2485.404706	274.700000
2486.891584	282.000000
2488.379814	301.900000
2489.864528	284.500000
2491.348971	296.700000
2492.834766	270.200000
2494.318668	266.800000
2495.803922	295.300000
2497.284042	271.900000
2498.767134	268.000000
2500.248336	291.900000
2501.729269	266.100000
2503.208313	279.000000
2504.687088	306.700000
2506.165595	262.700000
2507.643834	276.500000
2509.121804	261.900000
2510.596270	286.700000
2512.073704	291.000000
2513.547635	270.500000
2515.022916	274.100000
2516.497931	303.100000
2517.969444	257.700000
2519.442307	279.000000
2520.913288	285.800000
2522.385619	287.000000
2523.852837	277.400000
2525.323020	299.500000
2526.791323	280.600000
2528.259361	284.000000
2529.727134	245.800000
2531.194642	269.400000
2532.661885	292.700000
2534.125636	273.400000
2535.590737	278.700000
2537.053961	283.400000
2538.518535	274.900000
2539.979619	271.100000
2541.442053	260.700000
2542.904224	274.800000
2544.362909	270.800000
2545.826166	298.400000
2547.284326	284.700000
2548.743835	283.900000
2550.198251	312.700000
2551.657236	298.100000
2553.114350	273.800000
2554.569593	254.300000
2556.024575	280.500000
2557.477687	292.900000
2558.932148	296.700000
2560.384740	274.000000
2561.837072	270.600000
2563.287536	283.000000
2564.740956	262.200000
2566.189294	290.000000
2567.640588	277.000000
2569.090015	283.700000
2570.535970	285.200000
2571.984881	286.200000
2573.430320	279.400000
2574.877108	294.900000
2576.322032	286.000000
2577.766699	290.700000
2579.212713	281.200000
2580.655260	280.300000
2582.099155	257.400000
2583.539585	293.600000
2584.981362	262.600000
2586.421280	289.000000
2587.862545	259.900000
2589.300349	283.500000
2590.741102	279.700000
2592.176792	277.300000
2593.615432	269.600000
2595.052215	270.300000
2596.487141	266.300000
2597.925016	273.800000
2599.357832	262.900000
2600.791996	259.500000
2602.224306	283.500000
2603.657962	265.600000
2605.089765	252.800000
2606.521315	260.100000
2607.952611	275.300000
2609.382055	284.700000
2610.811248	281.600000
2612.238589	279.300000
2613.667277	288.200000
2615.095712	272.800000
2616.520700	248.400000
2617.947035	283.600000
2619.371521	257.000000
2620.797353	277.900000
2622.219741	279.400000
2623.643475	282.400000
2625.065362	272.400000
2626.487000	281.200000
2627.906792	255.700000
2629.327930	264.800000
2630.748818	283.500000
2632.166268	274.600000
2633.586657	272.800000
2635.003609	273.700000
2636.420313	267.000000
2637.836768	256.800000
2639.252975	270.400000
2640.668933	271.900000
2642.083051	272.000000
2643.496922	274.000000
2644.908953	257.600000
2646.322329	280.400000
2647.732275	284.600000
2649.145156	286.600000
2650.554610	269.900000
2651.963817	251.900000
2653.371187	280.500000
2654.781493	275.000000
2656.189962	261.600000
2657.596596	272.200000
2659.002985	264.200000
2660.407540	265.000000
2661.813439	282.400000
2663.217505	267.300000
2664.621326	255.300000
2666.024904	271.000000
2667.426649	257.700000
2668.829738	253.400000
2670.229409	262.000000
2671.630424	274.900000
2673.028023	258.100000
2674.428552	277.000000
2675.825666	273.000000
2677.224123	276.000000
2678.620752	260.300000
2680.017139	271.000000
2681.413285	258.400000
2682.807604	270.700000
2684.203266	258.600000
2685.595518	269.100000
2686.989114	254.000000
2688.380885	270.700000
2689.773998	273.500000
2691.165288	281.000000
2692.554755	266.700000
2693.943982	265.300000
2695.332970	253.000000
2696.723300	265.200000
2698.108645	236.900000
2699.496914	253.700000
2700.883363	255.700000
2702.269573	276.400000
2703.655545	281.000000
2705.038117	275.200000
2706.422032	277.400000
2707.805709	272.100000
2709.189148	259.400000
2710.569191	275.000000
2711.950576	261.900000
2713.330145	275.400000
2714.711056	254.100000
2716.090151	285.300000
2717.467433	264.000000
2718.846056	282.100000
2720.222866	261.900000
2721.599440	274.000000
2722.975778	257.500000
2724.350304	264.200000
2725.726171	264.700000
2727.098651	278.300000
2728.474047	270.500000
2729.844483	254.700000
2731.216260	247.000000
2732.587802	264.500000
2733.957536	249.800000
2735.328611	251.300000
2736.697877	266.700000
2738.066911	273.100000
2739.434137	277.100000
2740.801131	266.800000
2742.167892	262.300000
2743.534420	240.000000
2744.899143	254.200000
2746.263635	257.400000
2747.627894	235.100000
2748.991921	258.000000
2750.355717	278.500000
2751.716139	271.200000
2753.079472	257.300000
2754.437862	252.100000
2755.799162	258.000000
2757.157091	271.000000
2758.517930	241.400000
2759.876968	243.200000
2761.232638	262.400000
2762.591216	248.400000
2763.946428	232.400000
2765.301410	261.100000
2766.654595	260.500000
2768.010687	257.500000
2769.363415	255.100000
2770.715914	240.500000
2772.068185	237.300000
2773.421795	256.700000
2774.772043	233.700000
2776.120498	269.500000
2777.471857	246.000000
2778.819857	272.400000
2780.169196	243.400000
2781.516742	242.700000
2782.864061	253.200000
2784.211154	246.800000
2785.556456	256.100000
2786.901532	241.500000
2788.246382	235.200000
2789.591005	226.800000
2790.932277	225.700000
2792.274887	261.000000
2793.617271	248.700000
2794.959431	237.500000
2796.298241	265.400000
2797.639950	257.300000
2798.978312	235.900000
2800.318011	254.400000
2801.655924	234.500000
2802.992053	238.400000
2804.327958	236.700000
2805.665201	241.600000
2807.000660	244.400000
2808.335896	230.700000
2809.669349	252.600000
2811.004140	241.100000
2812.335589	252.500000
2813.669934	265.200000
2814.999381	233.500000
2816.330165	241.700000
2817.660727	237.700000
2818.989510	250.900000
2820.319629	237.100000
2821.647970	244.400000
2822.976090	226.400000
2824.302432	262.000000
2825.630111	247.500000
2826.954457	238.800000
2828.280138	231.900000
2829.604044	246.400000
2830.927731	237.700000
2832.252753	227.300000
2833.574445	245.600000
2834.895919	241.300000
2836.217174	245.500000
2837.538210	258.000000
2838.857474	239.100000
2840.178073	225.500000
2841.496900	227.300000
2842.815509	230.000000
2844.132347	211.700000
2845.448968	230.600000
2846.765372	242.800000
2848.080007	225.000000
2849.395976	222.500000
2850.708625	251.100000
2852.022610	227.200000
2853.336377	227.300000
2854.649929	219.600000
2855.961713	218.200000
2857.271731	212.600000
2858.583084	239.700000
2859.891122	231.800000
2861.200495	242.800000
2862.509652	216.300000
2863.818594	251.800000
2865.125773	248.700000
2866.431188	242.200000
2867.737938	212.500000
2869.042925	234.000000
2870.347699	241.600000
2871.650711	238.500000
2872.956605	254.700000
2874.257643	195.300000
2875.560016	230.900000
2876.860629	244.100000
2878.162576	222.600000
2879.464310	244.500000
2880.762739	230.700000
2882.062503	239.400000
2883.360508	230.400000
2884.658302	245.600000
2885.954340	216.000000
2887.251711	224.100000
2888.547326	234.100000
2889.842730	231.000000
2891.137924	226.300000
2892.429819	228.400000
2893.724591	233.200000
2895.016066	234.500000
2896.308874	226.200000
2897.601472	252.900000
2898.890776	200.900000
2900.181412	235.000000
2901.470297	219.800000
2902.760515	226.700000
2904.047440	223.700000
2905.335699	233.200000
2906.622207	217.400000
2907.908508	235.000000
2909.194600	231.100000
2910.478944	228.200000
2911.766160	206.400000
2913.048548	232.100000
2914.332269	230.300000
2915.614244	246.700000
2916.896012	239.600000
2918.176034	240.000000
2919.458926	222.300000
2920.740073	233.100000
2922.017938	218.100000
2923.298672	213.000000
2924.576125	231.100000
2925.853372	229.900000
2927.128878	221.900000
2928.407251	225.600000
2929.680809	227.400000
2930.957235	242.800000
2932.231920	225.400000
2933.504865	225.400000
2934.779140	222.000000
2936.051676	233.900000
2937.324008	233.400000
2938.593066	247.600000
2939.864990	223.900000
2941.135176	233.400000
2942.405159	214.000000
2943.674938	223.700000
2944.942980	211.800000
2946.209287	216.500000
2947.475391	219.900000
2948.742825	224.300000
2950.008525	209.400000
2951.274022	241.300000
2952.539317	229.700000
2953.801347	227.800000
2955.064708	217.200000
2956.327866	198.300000
2957.589293	209.200000
2958.852049	215.900000
2960.113074	228.300000
2961.372367	212.400000
2962.631461	212.100000
2963.890354	222.300000
2965.149047	197.900000
2966.407540	246.600000
2967.664304	225.100000
2968.920868	231.400000
2970.175705	203.500000
2971.431871	213.400000
2972.684781	212.100000
2973.939021	212.100000
2975.193062	215.100000
2976.445377	222.900000
2977.697494	239.400000
2978.947886	216.600000
2980.201133	205.500000
2981.449603	216.000000
2982.700927	215.000000
2983.949003	220.600000
2985.196881	222.700000
2986.444562	220.100000
2987.692047	210.900000
2988.937810	243.600000
2990.183376	216.900000
2991.430270	208.600000
2992.673920	215.000000
2993.918898	215.900000
2995.160633	221.100000
2996.405218	220.900000
2997.648085	230.400000
2998.887711	225.900000
3000.130187	223.400000
3001.369424	221.600000
3002.609988	202.600000
3003.848835	237.400000
3005.087488	180.400000
3006.324425	207.100000
3007.562689	215.700000
3008.799239	212.400000
3010.035594	221.500000
3011.271756	214.700000
3012.506205	202.200000
3013.740460	230.500000
3014.974522	204.800000
3016.206872	208.700000
3017.437510	198.100000
3018.670994	219.500000
3019.902766	201.500000
3021.132828	214.200000
3022.362698	207.200000
3023.590858	232.300000
3024.820344	217.400000
3026.048122	204.800000
3027.275708	213.400000
3028.504620	220.600000
3029.728790	207.400000
3030.955803	219.400000
3032.179592	221.500000
3033.404708	213.900000
3034.628117	213.400000
3035.851337	202.600000
3037.072851	208.500000
3038.297206	203.200000
3039.516826	201.700000
3040.737771	221.600000
3041.958528	195.400000
3043.177581	204.700000
3044.397960	221.300000
3045.615122	209.700000
3046.833609	208.900000
3048.050394	211.700000
3049.266992	195.800000
3050.483401	201.800000
3051.696598	205.300000
3052.912632	210.000000
3054.125454	211.400000
3055.341113	208.400000
3056.552049	209.900000
3057.764310	195.200000
3058.976385	200.000000
3060.188273	201.500000
3061.398463	217.300000
3062.608467	189.900000
3063.818286	198.500000
3065.026408	222.000000
3066.234344	216.600000
3067.440586	201.300000
3068.648151	194.300000
3069.854023	207.250000
3071.059709	220.200000
3072.265210	210.500000
3073.469018	185.500000
3074.674150	180.000000
3075.877590	192.400000
3077.079337	202.300000
3078.280901	186.100000
3079.482281	198.800000
3080.683477	181.300000
3081.882983	208.300000
3083.082305	200.800000
3084.282951	211.200000
3085.481907	186.500000
3086.677669	218.200000
3087.876260	185.800000
3089.071657	207.700000
3090.268377	197.100000
3091.461905	190.300000
3092.658261	169.200000
3093.852931	197.400000
3095.044410	207.600000
3096.240220	221.000000
3097.431337	189.800000
3098.623776	196.600000
3099.813028	175.800000
3101.005106	210.600000
3102.195499	201.600000
3103.382707	213.800000
3104.571238	198.200000
3105.761091	195.000000
3106.947759	214.900000
3108.134248	215.000000
3109.320557	188.700000
3110.508188	215.300000
3111.692638	193.500000
3112.875407	188.000000
3114.061000	191.700000
3115.244912	195.200000
3116.427146	192.000000
3117.609201	200.100000
3118.791079	183.200000
3119.972778	187.500000
3121.152799	197.000000
3122.331144	192.200000
3123.512310	182.900000
3124.690300	206.200000
3125.868113	164.700000
3127.045749	176.400000
3128.221710	194.900000
3129.397494	185.800000
3130.574600	184.700000
3131.750031	198.000000
3132.923789	180.200000
3134.095875	190.000000
3135.269281	192.200000
3136.442512	187.000000
3137.614070	183.600000
3138.786950	192.500000
3139.956662	183.700000
3141.127695	189.900000
3142.297057	184.900000
3143.464750	200.800000
3144.635258	197.900000
3145.801107	201.900000
3146.971266	205.200000
3148.136767	175.800000
3149.302095	199.500000
3150.467249	187.800000
3151.632229	196.600000
3152.798530	212.300000
3153.960177	202.600000
3155.123145	194.500000
3156.285939	189.800000
3157.448561	183.900000
3158.609518	166.300000
3159.770302	199.100000
3160.930914	183.700000
3162.089863	182.600000
3163.248639	187.100000
3164.407244	178.300000
3165.565677	184.400000
3166.723938	198.100000
3167.880537	152.700000
3169.035475	181.500000
3170.191732	170.100000
3171.346329	191.800000
3172.500754	176.100000
3173.653520	193.100000
3174.806116	174.100000
3175.958541	192.800000
3177.110797	165.500000
3178.262883	170.800000
3179.411822	193.700000
3180.563568	169.500000
3181.713656	193.000000
3182.862088	173.500000
3184.010351	166.300000
3185.158444	187.100000
3186.306369	187.300000
3187.452639	177.500000
3188.598740	172.500000
3189.743186	185.400000
3190.887465	165.900000
3192.031576	195.800000
3193.177005	180.100000
3194.319294	183.100000
3195.461417	181.300000
3196.603372	191.900000
3197.745161	194.900000
3198.886782	186.200000
3200.025267	164.200000
3201.165070	201.300000
3202.306191	185.500000
3203.444177	178.100000
3204.580514	188.400000
3205.716685	197.200000
3206.854174	169.500000
3207.990013	193.400000
3209.127170	166.700000
3210.259714	174.100000
3211.396540	187.500000
3212.528754	181.600000
3213.662286	198.900000
3214.795652	178.900000
3215.925891	185.300000
3217.058928	178.100000
3218.188839	167.000000
3219.320067	164.800000
3220.448169	181.800000
3221.579068	170.400000
3222.708324	169.500000
3223.835935	164.100000
3224.960425	164.000000
3226.089190	186.000000
3227.214833	192.800000
3228.340313	181.300000
3229.464152	184.600000
3230.590785	178.100000
3231.712821	185.300000
3232.836173	147.400000
3233.959363	181.200000
3235.082391	173.800000
3236.203779	166.200000
3237.325006	180.100000
3238.444594	181.500000
3239.564021	153.600000
3240.681810	180.800000
3241.802392	170.200000
3242.919859	142.800000
3244.037167	185.900000
3245.154313	148.000000
3246.269824	164.200000
3247.386650	165.400000
3248.500365	162.300000
3249.616870	166.900000
3250.731741	162.100000
3251.843503	158.800000
3252.955106	175.300000
3254.068023	158.500000
3255.180782	172.300000
3256.290434	176.900000
3257.401400	185.600000
3258.512208	154.400000
3259.621385	170.900000
3260.728930	162.300000
3261.837790	184.500000
3262.946491	181.600000
3264.052090	167.000000
3265.159003	179.600000
3266.264288	163.700000
3267.370886	163.300000
3268.474384	174.900000
3269.579196	160.300000
3270.683851	174.200000
3271.785407	160.000000
3272.886808	179.300000
3273.989522	172.800000
3275.092079	150.100000
3276.191540	158.000000
3277.293785	185.800000
3278.392934	160.700000
3279.490459	165.100000
3280.587828	170.500000
3281.687980	153.500000
3282.785038	148.000000
3283.881941	158.000000
3284.978689	172.200000
3286.070879	178.500000
3287.167317	154.800000
3288.262134	160.700000
3289.356795	177.000000
3290.449835	175.300000
3291.542721	170.200000
3292.633986	166.700000
3293.726564	158.100000
3294.817521	184.900000
3295.906859	152.600000
3296.996044	160.800000
3298.086542	157.700000
3299.173955	173.100000
3300.261216	162.200000
3301.349789	157.800000
3302.438209	167.100000
3303.522082	150.900000
3304.610197	143.600000
3305.695231	157.000000
3306.778648	173.200000
3307.863378	175.100000
3308.946493	162.200000
3310.030919	171.500000
3311.112267	160.100000
3312.194927	171.100000
3313.275973	156.000000
3314.356868	164.500000
3315.436150	179.200000
3316.515281	175.300000
3317.595723	161.300000
3318.673092	170.300000
3319.751771	176.200000
3320.828840	174.300000
3321.905758	146.500000
3322.981065	152.700000
3324.056223	145.700000
3325.132692	170.300000
3326.206091	163.700000
3327.279341	164.100000
3328.353902	163.700000
3329.426853	159.500000
3330.498197	160.400000
3331.570851	167.300000
3332.640438	180.700000
3333.711336	167.100000
3334.780627	151.700000
3335.851229	145.900000
3336.920224	161.400000
3337.987613	159.200000
3339.053397	147.800000
3340.123407	165.500000
3341.190354	161.300000
3342.254239	153.500000
3343.320892	158.600000
3344.385940	164.200000
3345.449385	178.500000
3346.512684	161.700000
3347.575836	140.700000
3348.638842	159.600000
3349.701702	170.100000
3350.762960	176.000000
3351.821161	156.500000
3352.883583	155.000000
3353.942948	150.800000
3355.002168	165.400000
3356.062698	156.900000
3357.118718	146.900000
3358.177503	140.300000
3359.231780	143.800000
3360.288820	141.600000
3361.344263	130.900000
3362.401014	145.400000
3363.456168	164.100000
3364.509724	158.400000
3365.561683	155.900000
3366.616404	151.200000
3367.668076	153.300000
3368.719605	138.900000
3369.772443	154.500000
3370.822233	177.000000
3371.873331	155.700000
3372.921384	149.900000
3373.972197	188.300000
3375.019964	150.600000
3376.067589	164.500000
3377.115071	161.300000
3378.160961	159.700000
3379.208159	163.000000
3380.252315	159.900000
3381.299229	156.200000
3382.344551	148.100000
3383.386833	161.000000
3384.428973	164.400000
3385.472421	150.900000
3386.515729	151.900000
3387.557446	135.400000
3388.599022	149.500000
3389.640458	126.200000
3390.680304	143.300000
3391.718563	150.900000
3392.758129	152.300000
3393.797554	156.200000
3394.835392	151.200000
3395.871643	143.700000
3396.907755	141.100000
3397.945174	145.000000
3398.979560	169.200000
3400.015253	155.300000
3401.050807	153.300000
3402.083330	157.600000
3403.118606	136.800000
3404.150851	151.800000
3405.182958	151.500000
3406.213481	131.800000
3407.245312	154.400000
3408.277003	141.100000
3409.305668	153.700000
3410.334194	153.700000
3411.364028	130.800000
3412.393723	146.600000
3413.420393	150.500000
3414.448370	142.100000
3415.473322	143.500000
3416.501024	158.600000
3417.525703	143.100000
3418.551688	136.900000
3419.576093	155.300000
3420.600362	127.500000
3421.623052	154.700000
3422.645606	160.100000
3423.669466	143.900000
3424.690306	133.900000
3425.711011	143.500000
3426.733021	140.600000
3427.752013	137.700000
3428.770870	132.900000
3429.791032	116.000000
3430.808178	148.900000
