-118.448435	13.079945
-115.778835	14.946154
-113.112170	16.604745
-110.446257	18.136663
-107.783276	19.622852
-105.118866	21.144256
-102.457386	22.781818
-99.794476	25.493706
-97.136674	29.093706
-94.477441	31.848951
-91.818958	33.865035
-89.163398	36.039161
-86.506410	36.097203
-83.854519	34.034266
-81.201199	36.359441
-78.550799	38.521678
-75.898969	38.713986
-73.252230	38.040559
-70.604061	38.555944
-67.956636	40.461538
-65.312124	40.394406
-62.666184	39.488112
-60.025325	37.829371
-57.383037	36.353147
-54.743657	33.278322
-52.102849	31.374825
-49.462781	31.953846
-46.827785	32.967832
-44.191360	35.990909
-41.557839	43.104196
-38.922889	51.544056
-36.293004	57.867832
-33.659527	62.489510
-31.031112	66.993706
-28.403430	65.935664
-25.774321	49.832867
-23.150268	-71.940559
-20.522626	-487.973427
-17.900037	-1260.540559
-15.278180	-2723.523776
-12.657053	313.425175
-10.036656	7288.339860
-7.419147	13353.653846
-4.800210	17701.306294
-2.184159	20294.073427
0.431164	21128.391608
3.045760	20202.027273
5.657473	17541.360140
8.270615	13206.427972
10.878723	7507.561538
13.490413	1388.579021
16.097072	-3347.692308
18.705159	-2602.679021
21.312522	-283.249650
23.914860	74.623776
26.520776	80.769231
29.121670	76.967832
31.723992	73.938462
34.321297	68.501399
36.922177	65.260839
39.518043	59.937762
42.115336	57.869231
44.711910	56.150350
47.303475	54.120280
49.896468	50.695804
52.486600	47.237063
55.078160	46.422378
57.666860	39.841958
60.256987	36.523077
62.842116	33.571329
65.428671	34.044056
68.014513	36.439860
70.597501	36.506294
73.181915	37.989510
75.759201	39.674825
78.340053	40.709091
80.918056	41.884615
83.495349	46.363636
86.074068	48.563636
88.647806	47.586713
91.222970	48.404196
93.795291	47.213986
96.366904	46.523077
98.935677	46.904196
101.505877	43.460839
104.073239	42.633566
106.642026	44.712587
109.207977	44.348951
111.771093	48.232867
114.337765	55.078322
116.895216	66.065734
119.458352	78.006993
122.016529	105.686713
124.578259	150.404196
127.135034	226.405594
129.693234	344.897203
132.246482	497.279021
134.799031	690.757343
137.355131	905.739161
139.906284	1128.372028
142.456738	1346.045455
145.006496	1552.203497
147.553434	1721.974126
150.099676	1849.971329
152.647344	1932.135664
155.194317	1975.703497
157.736353	1989.352448
160.277696	1991.816084
162.818346	1982.981119
165.360422	1975.779720
167.899687	1964.611189
170.436142	1957.502098
172.971907	1953.406993
175.509097	1963.693706
178.045595	1967.870629
180.579288	1979.225874
183.110178	1981.858042
185.640379	1989.029371
188.172005	1993.450350
190.700830	2003.236364
193.226856	2016.955944
195.752197	2027.408392
198.278962	2040.217483
200.802930	2047.941958
203.326214	2053.875524
205.848813	2060.130769
208.368619	2068.317483
210.887742	2073.193007
213.406182	2076.868531
215.926046	2081.485315
218.438909	2084.111888
220.955303	2089.149650
223.471015	2092.903497
225.981838	2095.139860
228.494085	2101.131469
231.003549	2099.182517
233.512335	2100.355245
236.020443	2105.953846
238.529974	2120.899301
241.034625	2123.651748
243.538601	2128.458741
246.044000	2137.239161
248.544524	2155.840559
251.048571	2228.360140
253.545648	2402.539860
256.046247	2662.634266
258.544075	2938.491608
261.041230	3162.614685
263.537712	3317.830769
266.029331	3382.327972
268.524470	3347.352448
271.016843	3221.298601
273.508545	3022.849650
275.997483	2787.465035
278.487846	2560.381119
280.975447	2405.771329
283.460288	2347.906993
285.948643	2343.702098
288.430059	2344.098601
290.914989	2326.379720
293.395074	2298.400000
295.878671	2263.999301
298.357425	2221.037063
300.837603	2184.677622
303.315028	2153.750350
305.791790	2149.202797
308.267889	2160.932168
310.741239	2194.604196
313.213927	2228.283217
315.685954	2265.365035
318.157320	2297.457343
320.625942	2320.234266
323.093904	2332.765035
325.563289	2340.615385
328.027850	2327.603497
330.495916	2309.012587
332.959162	2285.034266
335.421750	2273.686014
337.883682	2263.354545
340.344957	2266.400000
342.803498	2267.269231
345.263461	2268.976923
347.720691	2268.090210
350.177267	2269.534965
352.633189	2267.265035
355.086382	2264.657343
357.540996	2257.220280
359.990809	2253.439161
362.444119	2252.273427
364.892629	2249.541259
367.340489	2245.970629
369.789770	2239.967832
372.234258	2235.027273
374.680168	2230.195105
377.125429	2231.280420
379.567970	2230.090210
382.009864	2225.719580
384.451111	2217.695804
386.889642	2217.986014
389.329595	2221.810490
391.766834	2229.808392
394.201361	2226.672727
396.639376	2232.214685
399.072614	2235.223077
401.507274	2239.200000
403.937160	2245.681818
406.370532	2253.981119
408.799134	2254.516084
411.227095	2255.635664
413.656476	2259.103497
416.081092	2273.518881
418.507130	2279.362238
420.932527	2286.051049
423.357284	2284.135664
425.777283	2296.492308
428.198703	2304.864336
430.617426	2313.429371
433.037570	2315.385315
435.455019	2318.825874
437.873888	2324.006294
440.290064	2331.690909
442.701493	2337.016084
445.116398	2345.237762
447.528613	2342.544755
449.940194	2343.513986
452.351141	2342.966434
454.759402	2346.238462
457.167030	2339.722378
459.574027	2334.565734
461.980391	2327.315385
464.384073	2330.835664
466.787125	2334.574825
469.189547	2337.140559
471.591340	2338.404196
473.990454	2340.815385
476.390988	2338.906993
478.790893	2337.186713
481.186075	2344.344056
483.584724	2348.210490
485.978653	2345.545455
488.371956	2350.804196
490.764633	2349.765035
493.156685	2351.406993
495.550156	2343.491608
497.938914	2341.952448
500.325006	2333.062937
502.712518	2318.341958
505.099406	2304.779720
507.483631	2289.112587
509.869275	2281.831469
512.252256	2263.486713
514.632577	2250.097203
517.014317	2244.248252
519.393398	2231.239161
521.773898	2231.129371
524.151740	2231.037762
526.526927	2236.734965
528.901496	2236.421678
531.277484	2240.275524
533.650818	2241.048252
536.025570	2238.123776
538.395637	2231.770629
540.765088	2222.347552
543.135957	2222.198601
545.502146	2221.344755
547.869753	2220.864336
550.234714	2226.242657
552.599062	2234.715385
554.962798	2237.000699
557.327951	2238.551049
559.688431	2244.654545
562.050330	2243.595105
564.409589	2239.921678
566.766209	2237.656643
569.126274	2234.382517
571.479649	2230.376923
573.836468	2222.046853
576.190651	2217.018182
578.544227	2210.351049
580.897194	2205.677622
583.247530	2198.465035
585.599282	2193.720979
587.944358	2197.371329
590.294898	2196.003497
592.638765	2197.200699
594.988092	2203.703497
597.332772	2209.239161
599.674826	2212.731469
602.018298	2213.346853
604.359147	2214.867832
606.699394	2214.050350
609.037020	2213.675524
611.378081	2214.630769
613.714504	2220.288811
616.052345	2225.691608
618.387567	2227.128671
620.720174	2223.516783
623.054197	2219.819580
625.385607	2221.691608
627.716418	2218.232168
630.046631	2214.279720
632.376246	2217.063636
634.701239	2220.124476
637.031673	2225.622378
639.357485	2238.630070
641.680691	2250.327972
644.005312	2252.592308
646.327329	2254.072727
648.648751	2255.507692
650.967570	2255.888112
653.287805	2258.856643
655.607447	2259.586014
657.924488	2257.574126
660.240937	2261.775524
662.554788	2268.920280
664.870055	2274.358042
667.182725	2275.268531
669.496810	2268.458042
671.806295	2260.337762
674.117196	2255.506294
676.425504	2257.956643
678.733224	2253.903497
681.042359	2255.469231
683.346901	2260.309790
685.650856	2256.765734
687.954226	2257.660839
690.259010	2260.354545
692.559208	2254.109091
694.860820	2245.409790
697.161848	2241.093706
699.458293	2229.962238
701.756154	2226.759441
704.053431	2227.941259
706.350125	2226.978322
708.642243	2231.015385
710.937772	2232.501399
713.228728	2231.459441
715.521098	2230.843357
717.810892	2228.927273
720.100107	2230.516084
722.388741	2235.560839
724.674804	2234.123776
726.962280	2231.096503
729.247186	2238.351049
731.531513	2247.346853
733.813272	2250.254545
736.096445	2253.476923
738.379041	2257.086014
740.657082	2259.651049
742.936536	2257.657343
745.215415	2259.244755
747.493718	2265.229371
749.767472	2272.284615
752.042640	2265.477622
754.317234	2262.576923
756.589268	2262.595804
758.862716	2264.493007
761.133606	2267.099301
763.401940	2265.481818
765.671687	2268.697203
767.938880	2267.626573
770.205502	2269.759441
772.471555	2277.354545
774.735055	2288.255944
776.999969	2299.588112
779.264313	2293.960140
781.524128	2292.881119
783.785356	2297.013287
786.046015	2299.774126
788.304129	2303.229371
790.559698	2296.886713
792.818658	2297.891608
795.071119	2286.479720
797.328947	2275.986014
799.582255	2267.637762
801.833024	2266.626573
804.085205	2264.534266
806.334848	2254.865734
808.585902	2256.148951
810.832445	2256.314685
813.080400	2261.850350
815.325821	2262.183916
817.572653	2265.286014
819.818924	2266.468531
822.060691	2260.455245
824.305840	2256.477622
826.544517	2257.520280
828.786577	2253.656643
831.024138	2248.327972
833.263110	2243.862238
835.499556	2241.425874
837.737413	2237.127972
839.972745	2238.590210
842.205554	2235.088811
844.439774	2233.800699
846.671472	2230.024476
848.902615	2233.023776
851.133203	2235.235664
853.363236	2239.286014
855.592716	2238.148951
857.817714	2237.307692
860.046087	2237.269231
862.269981	2235.281818
864.495285	2232.203497
866.716114	2235.240559
868.940315	2238.308392
871.160043	2234.746154
873.381182	2236.753147
875.601770	2240.920979
877.819848	2248.209091
880.039337	2252.183916
882.254359	2255.744056
884.468833	2259.260839
886.682760	2262.469231
888.896139	2265.314685
891.108971	2267.926573
893.321257	2273.354545
895.531040	2272.988811
897.740278	2271.211189
899.948971	2274.568531
902.155165	2269.406294
904.362768	2266.569231
906.567874	2260.833566
908.772436	2263.491608
910.974502	2264.294406
913.177978	2260.429371
915.378960	2260.593007
917.579401	2260.127972
919.781249	2258.281818
921.976707	2257.678322
924.175524	2258.100000
926.369902	2265.351748
928.567638	2262.016084
930.760938	2263.895105
932.955647	2266.595105
935.147870	2267.951748
937.339555	2266.607692
939.530702	2265.367133
941.719366	2271.743357
943.907493	2271.890210
946.093140	2276.507692
948.282139	2283.548951
950.466715	2288.724476
952.650756	2293.690210
954.838147	2295.409790
957.017234	2299.954545
959.199672	2304.495105
961.381576	2307.327972
963.561006	2315.106294
965.737963	2322.555944
967.916327	2332.590210
970.096099	2334.543357
972.269522	2342.908392
974.446291	2349.551748
976.618653	2350.226573
978.792423	2351.253147
980.961789	2357.593706
983.134500	2356.330769
985.304744	2359.061538
987.474460	2357.414685
989.643647	2361.218881
991.808437	2364.560140
993.976568	2366.702098
996.140305	2364.382517
998.305448	2368.344056
1000.468133	2374.373427
1002.630291	2375.109091
1004.789993	2384.352448
1006.949171	2390.983217
1009.109755	2390.962238
1011.267884	2392.986014
1013.425489	2390.604196
1015.582571	2388.998601
1017.739130	2387.127273
1019.891309	2379.712587
1022.044894	2371.636364
1024.197958	2369.716084
1026.348574	2371.625175
1028.500595	2378.558741
1030.648243	2390.200000
1032.799223	2400.718182
1034.945832	2406.417483
1037.091923	2411.041259
1039.237494	2413.211189
1041.384471	2415.015385
1043.525159	2414.034266
1045.669177	2412.380420
1047.810754	2413.011888
1049.951815	2418.660140
1052.094280	2420.764336
1054.230466	2426.396503
1056.369978	2431.500000
1058.505134	2428.642657
1060.643615	2428.182517
1062.777742	2427.379720
1064.911356	2425.175524
1067.046375	2421.850350
1069.177044	2416.655245
1071.309118	2417.445455
1073.438763	2418.055944
1075.567896	2412.474126
1077.696517	2406.105594
1079.824627	2401.605594
1081.950311	2403.595105
1084.075485	2395.254545
1086.202063	2393.660140
1088.324304	2391.809790
1090.447948	2389.920979
1092.567259	2386.681818
1094.691798	2381.907692
1096.810092	2391.695105
1098.929791	2394.953846
1101.047071	2392.937762
1103.163845	2395.675524
1105.280112	2394.860839
1107.393964	2394.737762
1109.509219	2389.376923
1111.620152	2379.098601
1113.734396	2376.853147
1115.844320	2372.386713
1117.955648	2364.845455
1120.066471	2358.818881
1122.172979	2363.197203
1124.282795	2357.754545
1126.388297	2356.572727
1128.495202	2350.061538
1130.595892	2347.949650
1132.701794	2340.613287
1134.803387	2344.579021
1136.906383	2334.681119
1139.008878	2330.784615
1141.105166	2330.730769
1143.206662	2332.145455
1145.303855	2329.822378
1147.400549	2329.769231
1149.496745	2332.288811
1151.592444	2330.907692
1153.687645	2329.280420
1155.780449	2332.654545
1157.874655	2334.732168
1159.962670	2339.907692
1162.055883	2333.111189
1164.142908	2333.992308
1166.233232	2335.132867
1168.319269	2337.290909
1170.408603	2336.915385
1172.491756	2333.578322
1174.576311	2329.841259
1176.662268	2320.637762
1178.743943	2318.796503
1180.827020	2318.676224
1182.907711	2322.962937
1184.987910	2322.351049
1187.067618	2319.170629
1189.146835	2315.853846
1191.223670	2314.895804
1193.298124	2318.651748
1195.375870	2326.202797
1197.449345	2323.737762
1199.524221	2329.605594
1201.594830	2332.862937
1203.666841	2340.490909
1205.736475	2344.537063
1207.807510	2344.934266
1209.878057	2342.879021
1211.944343	2335.544755
1214.012030	2329.183217
1216.077345	2329.354545
1218.144060	2324.637762
1220.206519	2323.436364
1222.272263	2314.173427
1224.333754	2316.330769
1226.396644	2321.862238
1228.457167	2323.131469
1230.517206	2321.023776
1232.576763	2323.962238
1234.633954	2329.346154
1236.690664	2327.107692
1238.745011	2331.291608
1240.802638	2334.111888
1242.857903	2331.628671
1244.908927	2331.027273
1246.961351	2327.679021
1249.013295	2327.531469
1251.062881	2333.940559
1253.111988	2325.733566
1255.160617	2324.141259
1257.208767	2324.257343
1259.256439	2324.470629
1261.299880	2321.058042
1263.346596	2318.191608
1265.390959	2312.411888
1267.434846	2310.857343
1269.476382	2313.145455
1271.515567	2311.144056
1273.558026	2308.118182
1275.596262	2314.058741
1277.635897	2313.237762
1279.675057	2316.878322
1281.709998	2319.081818
1283.746339	2323.702098
1285.780334	2323.429371
1287.815728	2318.825175
1289.846908	2318.368531
1291.879487	2319.871329
1293.911593	2319.958042
1295.941359	2315.862238
1297.972523	2312.579720
1299.999479	2313.431469
1302.027833	2309.531469
1304.051983	2305.192308
1306.079397	2302.033566
1308.102609	2302.109790
1310.127219	2297.895804
1312.149495	2302.869930
1314.173168	2307.845455
1316.194508	2311.611189
1318.215380	2311.065734
1320.235786	2308.390909
1322.251997	2300.646853
1324.269606	2299.786014
1326.284888	2298.626573
1328.303427	2295.304196
1330.317778	2293.739161
1332.329803	2292.468531
1334.345085	2291.953846
1336.356182	2301.592308
1338.368676	2302.941958
1340.376987	2298.585315
1342.388554	2290.374825
1344.394081	2282.381818
1346.402864	2270.469930
1348.407469	2270.755944
1350.415328	2268.967832
1352.422725	2264.786014
1354.424091	2269.402098
1356.426854	2272.954545
1358.429156	2279.362937
1360.430999	2285.023776
1362.432382	2289.134965
1364.431452	2287.803497
1366.430063	2285.960839
1368.428216	2284.943357
1370.425911	2284.118881
1372.419442	2291.217483
1374.414370	2292.608392
1376.408841	2290.213287
1378.402855	2291.496503
1380.394561	2285.684615
1382.385813	2278.079720
1384.374759	2274.369231
1386.365100	2270.124476
1388.354986	2265.818182
1390.342569	2258.969231
1392.329697	2259.738462
1394.314525	2265.739161
1396.300746	2275.722378
1398.284668	2280.922378
1400.268137	2285.366434
1402.251154	2289.166434
1404.231872	2290.696503
1406.213986	2290.620280
1408.193802	2292.327972
1410.173168	2293.976923
1412.148394	2291.039860
1414.126860	2288.334266
1416.103031	2284.516084
1418.078754	2285.801399
1420.054027	2283.734266
1422.027009	2282.604196
1423.999543	2281.110490
1425.971630	2279.386014
1427.943268	2287.687413
1429.910778	2294.539860
1431.883363	2296.186713
1433.848141	2302.027273
1435.817991	2302.967133
1437.783718	2311.285315
1439.750837	2311.853147
1441.715673	2317.262937
1443.676390	2313.854545
1445.642174	2310.904895
1447.602003	2311.662937
1449.563225	2312.131469
1451.525840	2320.717483
1453.484340	2320.749650
1455.442398	2316.032867
1457.400013	2318.502098
1459.357187	2316.186014
1461.312085	2324.990210
1463.268375	2326.021678
1465.222391	2321.045455
1467.175967	2314.144755
1469.127270	2309.765734
1471.079965	2306.434965
1473.030389	2302.255245
1474.980373	2298.890909
1476.929919	2297.551748
1478.877196	2295.636364
1480.822206	2298.016783
1482.768607	2300.969231
1484.714572	2309.402797
1486.660098	2305.957343
1488.603360	2301.421678
1490.546185	2296.474825
1492.486747	2292.880420
1494.428700	2288.427273
1496.368392	2289.767133
1498.307648	2289.148252
1500.246469	2292.327972
1502.183031	2283.613287
1504.120984	2284.755245
1506.056679	2285.657343
1507.991939	2284.639161
1509.924944	2280.657343
1511.857516	2278.108392
1513.789656	2271.086713
1515.721364	2273.051049
1517.650818	2277.323077
1519.581663	2280.881119
1521.512077	2284.190210
1523.438417	2284.069231
1525.366149	2278.699301
1527.291630	2283.139161
1529.216682	2284.931469
1531.141305	2284.959441
1533.065499	2284.900699
1534.987446	2280.906993
1536.910782	2286.828671
1538.831873	2291.241259
1540.750719	2292.306294
1542.670955	2292.017483
1544.588947	2289.286014
1546.506513	2288.729371
1548.421837	2293.844755
1550.338551	2302.776224
1552.251210	2306.498601
1554.167073	2306.152448
1556.080696	2305.232867
1557.992082	2297.260140
1559.904856	2298.278322
1561.813581	2294.195105
1563.723696	2292.137063
1565.633387	2296.167832
1567.542654	2294.811888
1569.449688	2292.662937
1571.354489	2301.406993
1573.260679	2309.803497
1575.164637	2310.667133
1577.068175	2312.467133
1578.971291	2311.739860
1580.872179	2300.939860
1582.774454	2295.510490
1584.674502	2294.109790
1586.575937	2289.367133
1588.473339	2287.776224
1590.370322	2281.121678
1592.266887	2275.384615
1594.164840	2282.537762
1596.056958	2281.876224
1597.952269	2279.355245
1599.847163	2281.714685
1601.739835	2283.263636
1603.632091	2279.951748
1605.522126	2284.946154
1607.411747	2282.795105
1609.300951	2278.361538
1611.189741	2285.597902
1613.076314	2292.618881
1614.964273	2296.772727
1616.848216	2297.376923
1618.733547	2291.658042
1620.618463	2289.664336
1622.501166	2293.498601
1624.385256	2295.585315
1626.265335	2300.946853
1628.146800	2298.812587
1630.026055	2298.153147
1631.906696	2294.987413
1633.781533	2301.289510
1635.661352	2301.506294
1637.537165	2299.169231
1639.412568	2293.109790
1641.289358	2292.953846
1643.160350	2297.127972
1645.034524	2304.469930
1646.904700	2305.166434
1648.778056	2305.929371
1650.649209	2300.799301
1652.518160	2297.639860
1654.388497	2291.635664
1656.254840	2291.353147
1658.122569	2287.844056
1659.988100	2282.272028
1661.855015	2278.956643
1663.717942	2275.520979
1665.582254	2277.127972
1667.444370	2275.775524
1669.306082	2273.653147
1671.169178	2267.825874
1673.030080	2266.705594
1674.888788	2260.358741
1676.747093	2263.534266
1678.606783	2259.574126
1680.460706	2254.226573
1682.317801	2251.024476
1684.174494	2246.535664
1686.027211	2236.034965
1687.883098	2235.087413
1689.735012	2236.821678
1691.586525	2237.204196
1693.437637	2235.846154
1695.288349	2239.621678
1697.138660	2240.999301
1698.986787	2245.911189
1700.836297	2242.909790
1702.680059	2241.453147
1704.528770	2238.593706
1706.371736	2233.974126
1708.217867	2227.241958
1710.060037	2231.236364
1711.905371	2233.831469
1713.744965	2232.558741
1715.585943	2230.377622
1717.428304	2231.257343
1719.266709	2228.796503
1721.106497	2233.565035
1722.944110	2231.155245
1724.781327	2232.700699
1726.616371	2234.606294
1728.452798	2231.778322
1730.287053	2231.302098
1732.120913	2235.006294
1733.954380	2233.124476
1735.783900	2232.505594
1737.616579	2226.518881
1739.445314	2225.089510
1741.277207	2221.974126
1743.105157	2224.830769
1744.932715	2222.953147
1746.759881	2228.720979
1748.586656	2228.888811
1750.413040	2221.469930
1752.235487	2221.112587
1754.061088	2220.481119
1755.882755	2218.395105
1757.705804	2212.346853
1759.526692	2211.108392
1761.347190	2206.597902
1763.169070	2204.574126
1764.985250	2207.406993
1766.804582	2211.269930
1768.619987	2214.041958
1770.438542	2216.080420
1772.253172	2214.094406
1774.067416	2219.219580
1775.881272	2219.535664
1777.694742	2220.523077
1779.506059	2218.730769
1781.318757	2219.126573
1783.131068	2211.284615
1784.939462	2212.285315
1786.749237	2215.295804
1788.555096	2215.082517
1790.364101	2215.369231
1792.169193	2215.491608
1793.975666	2212.801399
1795.781755	2217.836364
1797.583934	2216.400000
1799.389256	2224.251748
1801.190670	2221.416084
1802.993464	2217.521678
1804.792352	2218.830769
1806.592621	2216.455944
1808.392508	2215.379021
1810.190254	2213.668531
1811.987618	2217.251748
1813.784603	2210.927972
1815.581207	2210.734266
1817.375672	2211.467133
1819.171516	2205.981818
1820.961706	2204.406993
1822.756792	2195.885315
1824.546225	2190.520280
1826.338795	2197.125175
1828.129230	2195.730070
1829.917531	2197.000699
1831.708967	2201.146154
1833.494757	2205.259441
1835.281927	2205.007692
1837.066965	2206.604196
1838.855137	2207.098601
1840.639423	2205.932867
1842.421580	2205.021678
1844.205115	2197.969930
1845.986522	2197.903497
1847.769308	2203.509790
1849.548214	2202.074825
1851.328498	2199.185315
1853.106656	2200.720280
1854.886193	2198.336364
1856.663605	2199.279021
1858.438893	2199.622378
1860.215560	2207.174126
1861.990103	2214.346154
1863.766025	2214.911189
1865.536326	2209.030769
1867.309755	2213.851049
1869.081064	2212.539860
1870.852003	2216.037063
1872.624318	2220.744056
1874.391020	2221.729371
1876.160848	2221.990210
1877.926812	2226.302797
1879.695900	2222.356643
1881.461126	2225.932867
1883.225983	2228.792308
1884.992218	2221.334965
1886.754594	2215.761538
1888.516603	2213.199301
1890.278244	2208.806993
1892.039519	2211.724476
1893.800426	2210.909790
1895.560967	2210.228671
1897.319398	2209.838462
1899.077464	2209.593706
1900.833421	2207.076224
1902.590756	2213.728671
1904.347724	2216.454545
1906.102587	2217.239860
1907.855344	2220.595804
1909.607738	2220.643357
1911.361507	2221.206993
1913.113173	2222.549650
1914.862737	2219.419580
1916.613677	2219.567832
1918.364253	2214.717483
1920.110990	2215.336364
1921.859104	2217.642657
1923.605118	2217.426573
1925.352508	2215.372028
1927.097799	2219.667832
1928.840993	2218.813986
1930.585563	2219.711888
1932.328036	2220.167133
1934.070149	2218.338462
1935.811902	2215.279021
1937.553296	2214.992308
1939.292596	2214.776224
1941.031536	2221.423776
1942.770119	2221.481818
1944.506609	2222.693007
1946.242742	2229.744056
1947.980249	2235.638462
1949.713934	2239.323776
1951.448994	2246.712587
1953.181966	2246.657343
1954.914581	2246.870629
1956.646839	2246.744056
1958.378741	2245.570629
1960.108557	2248.218182
1961.836289	2253.141958
1963.565394	2249.816783
1965.294145	2247.645455
1967.020812	2245.930769
1968.747125	2243.526573
1970.474811	2245.673427
1972.196961	2249.339161
1973.922212	2251.841259
1975.643657	2252.865035
1977.368201	2254.195804
1979.090666	2256.596503
1980.809327	2261.868531
1982.531087	2262.413287
1984.249045	2258.008392
1985.968376	2256.137063
1987.683908	2254.826573
1989.404261	2254.579720
1991.120814	2257.902797
1992.833571	2264.626573
1994.549425	2272.077622
1996.263205	2273.584615
1997.976636	2278.627972
1999.687996	2282.225874
2001.400729	2284.104196
2003.109670	2283.383217
2004.821705	2286.474825
2006.528230	2290.548252
2008.237848	2287.452448
2009.945398	2279.038462
2011.652601	2276.845455
2013.357738	2276.704196
2015.062528	2281.907692
2016.768690	2285.151748
2018.471070	2281.202797
2020.174822	2279.594406
2021.876510	2277.910490
2023.577854	2279.397902
2025.278852	2279.734266
2026.977790	2286.041958
2028.678098	2284.128671
2030.374632	2280.588112
2032.072537	2280.469231
2033.768383	2276.255944
2035.467315	2285.957343
2037.160761	2291.614685
2038.855579	2284.360839
2040.550053	2287.090210
2042.240759	2287.374126
2043.934549	2286.868531
2045.624572	2282.153846
2047.315966	2285.287413
2049.005307	2278.583217
2050.696018	2265.358741
2052.382966	2261.797203
2054.069575	2256.318182
2055.757554	2263.292308
2057.441773	2260.986713
2059.127362	2259.423776
2060.812612	2263.620979
2062.495814	2257.077622
2064.180385	2256.988112
2065.859494	2255.246154
2067.543388	2253.902098
2069.221822	2252.644755
2070.903332	2250.926573
2072.581092	2254.813287
2074.258514	2260.529371
2075.937306	2266.448252
2077.614056	2267.990909
2079.288764	2269.488811
2080.964841	2268.519580
2082.638878	2266.868531
2084.312579	2268.088811
2085.985945	2263.388112
2087.657273	2259.914685
2089.328266	2259.279720
2090.998925	2259.928671
2092.669249	2257.829371
2094.339240	2262.176224
2096.007195	2264.862937
2097.674817	2266.143357
2099.340404	2273.088811
2101.007361	2281.994406
2102.672283	2288.016084
2104.336874	2284.544056
2105.999433	2286.931469
2107.663360	2289.839161
2109.325257	2293.373427
2110.986822	2298.233566
2112.648056	2294.912587
2114.307262	2289.778322
2115.966137	2286.376923
2117.624683	2287.962937
2119.282899	2291.560839
2120.937391	2288.644056
2122.594948	2282.486014
2124.252176	2278.688811
2125.905682	2282.404196
2127.560556	2284.219580
2129.211712	2282.620280
2130.865929	2277.792308
2132.516430	2272.108392
2134.168297	2266.310490
2135.814756	2261.812587
2137.465970	2266.381119
2139.113470	2271.011888
2140.762337	2272.009790
2142.409186	2276.032867
2144.055708	2282.320280
2145.701905	2285.818881
2147.344394	2280.425874
2148.989941	2274.085315
2150.631781	2266.587413
2152.276678	2266.184615
2153.917870	2260.778322
2155.558738	2257.811189
2157.199282	2263.586713
2158.837814	2266.694406
2160.477712	2269.924476
2162.113910	2275.030769
2163.751475	2273.386014
2165.388716	2273.929371
2167.023948	2265.925874
2168.658859	2264.622378
2170.293448	2263.822378
2171.927715	2265.756643
2173.558289	2262.898601
2175.191915	2266.205594
2176.821849	2267.543357
2178.453148	2267.383916
2180.082442	2267.307692
2181.711417	2263.447552
2183.340073	2261.480420
2184.968409	2256.939161
2186.594742	2246.890909
2188.220757	2240.012587
2189.844771	2230.686713
2191.470149	2222.736364
2193.093528	2217.000000
2194.718270	2216.183916
2196.339332	2211.434266
2197.960077	2214.899301
2199.582187	2211.758042
2201.202299	2216.833566
2202.820414	2218.736364
2204.438214	2217.119580
2206.055699	2217.236364
2207.672868	2212.168531
2209.289722	2209.794406
2210.906261	2209.844056
2212.520806	2213.489510
2214.133359	2211.920979
2215.747276	2214.211888
2217.359202	2220.109091
2218.972491	2222.551748
2220.583790	2223.149650
2222.193099	2220.662238
2223.803772	2221.188811
2225.412456	2220.335664
2227.020828	2218.116084
2228.627212	2216.709790
2230.234960	2217.525874
2231.840721	2219.017483
2233.446171	2215.067832
2235.049636	2217.689510
2236.654464	2219.067133
2238.257309	2223.436364
2239.858170	2219.723077
2241.460393	2219.736364
2243.060635	2219.597902
2244.662239	2217.636364
2246.260191	2212.506294
2247.859505	2211.274126
2249.456839	2212.679720
2251.053864	2213.793706
2252.652252	2214.520979
2254.246991	2218.038462
2255.839753	2224.240559
2257.433878	2228.053147
2259.029364	2229.370629
2260.621206	2226.004895
2262.212741	2226.397203
2263.805637	2226.774825
2265.393224	2225.706993
2266.985508	2225.780420
2268.572484	2224.280420
2270.162489	2224.234266
2271.747189	2224.762238
2273.336583	2226.254545
2274.920674	2225.786713
2276.506127	2214.671329
2278.089610	2209.570629
2279.676120	2200.378322
2281.258996	2201.229371
2282.841568	2200.997902
2284.423837	2198.279021
2286.002477	2193.884615
2287.584140	2194.882517
2289.162175	2195.125175
2290.743233	2199.198601
2292.320665	2200.179720
2293.896132	2197.054545
2295.474622	2194.392308
2297.049488	2193.230070
2298.624053	2190.525874
2300.198318	2192.540559
2301.772282	2189.100699
2303.345946	2184.430769
2304.919309	2178.809091
2306.489054	2174.927972
2308.058500	2172.675524
2309.630965	2168.698601
2311.198154	2165.144755
2312.768362	2165.465035
2314.334955	2161.704196
2315.902908	2155.957343
2317.468905	2159.031469
2319.034605	2161.723776
2320.600008	2168.746154
2322.163456	2183.063636
2323.728264	2196.341259
2325.289464	2201.232867
2326.853678	2211.676224
2328.412631	2210.525175
2329.974597	2210.572727
2331.534613	2209.267133
2333.094333	2192.820979
2334.652104	2184.110490
2336.209580	2175.694406
2337.766762	2171.773427
2339.321997	2173.164336
2340.876937	2176.585315
2342.431584	2172.733566
2343.985937	2162.185315
2345.539996	2164.606294
2347.093761	2161.871329
2348.645583	2160.355944
2350.195461	2160.983916
2351.748347	2154.874825
2353.295991	2156.084615
2354.846642	2154.982517
2356.393702	2158.431469
2357.942121	2159.858741
2359.490247	2159.767133
2361.034785	2157.568531
2362.580681	2157.102098
2364.124639	2161.125175
2365.669954	2161.060140
2367.211684	2157.699301
2368.754771	2157.889510
2370.295923	2154.713287
2371.836785	2153.753147
2373.377358	2150.440559
2374.917641	2145.365734
2376.457636	2143.030769
2377.994053	2142.386713
2379.533471	2141.922378
2381.069312	2139.411189
2382.606509	2137.771329
2384.140131	2128.390909
2385.676754	2128.629371
2387.211445	2131.708392
2388.744207	2130.294406
2390.276682	2133.255245
2391.807230	2135.131469
2393.340775	2138.252448
2394.869109	2137.683217
2396.398799	2140.101399
2397.928204	2140.588112
2399.457323	2139.900699
2400.986158	2133.193706
2402.509787	2123.763636
2404.038053	2126.716783
2405.561115	2127.953846
2407.088811	2126.729371
2408.609668	2132.650350
2410.135158	2136.478322
2411.657087	2138.125874
2413.180372	2135.723776
2414.701736	2138.048252
2416.221180	2140.512587
2417.741979	2138.392308
2419.260859	2133.943357
2420.779457	2129.094406
2422.296138	2132.100000
2423.814173	2133.827972
2425.331927	2134.499301
2426.846130	2136.995105
2428.360052	2139.065035
2429.873694	2136.872727
2431.388691	2134.688811
2432.900139	2131.434965
2434.412942	2130.376923
2435.923832	2123.997203
2437.434442	2118.194406
2438.943141	2110.429371
2440.454827	2113.546853
2441.962968	2111.005594
2443.470832	2108.886014
2444.978418	2109.990210
2446.482463	2111.969231
2447.989494	2104.766434
2449.494616	2101.158042
2450.999461	2093.913986
2452.502399	2091.020280
2454.005060	2083.228671
2455.507445	2077.814685
2457.007925	2072.195804
2458.509758	2071.125874
2460.009687	2065.076224
2461.509340	2060.095105
2463.008717	2058.483217
2464.506192	2058.087413
2466.001765	2050.958042
2467.500319	2050.953846
2468.995343	2045.309091
2470.491721	2045.816084
2471.984571	2042.668531
2473.478775	2047.084615
2474.972705	2052.853846
2476.463112	2058.223776
2477.956495	2054.133566
2479.447981	2055.870629
2480.937570	2057.616783
2482.426887	2059.778322
2483.914309	2057.981818
2485.404706	2056.088112
2486.891584	2052.966434
2488.379814	2048.203497
2489.864528	2043.413986
2491.348971	2053.532867
2492.834766	2058.431469
2494.318668	2056.519580
2495.803922	2056.468531
2497.284042	2053.216084
2498.767134	2044.109790
2500.248336	2038.441958
2501.729269	2035.331469
2503.208313	2035.830769
2504.687088	2032.888811
2506.165595	2032.341259
2507.643834	2035.161538
2509.121804	2045.016084
2510.596270	2045.344755
2512.073704	2048.646853
2513.547635	2054.698601
2515.022916	2051.083217
2516.497931	2048.434965
2517.969444	2046.183916
2519.442307	2048.086713
2520.913288	2049.909091
2522.385619	2047.681818
2523.852837	2052.813287
2525.323020	2051.680420
2526.791323	2048.461538
2528.259361	2049.533566
2529.727134	2054.609091
2531.194642	2059.536364
2532.661885	2063.477622
2534.125636	2062.267133
2535.590737	2058.314685
2537.053961	2055.791608
2538.518535	2051.993706
2539.979619	2057.488112
2541.442053	2059.444056
2542.904224	2058.320280
2544.362909	2056.617483
2545.826166	2062.790909
2547.284326	2064.188112
2548.743835	2064.513287
2550.198251	2065.123776
2551.657236	2062.643357
2553.114350	2059.941958
2554.569593	2056.553147
2556.024575	2054.827972
2557.477687	2060.369231
2558.932148	2065.218182
2560.384740	2066.743357
2561.837072	2062.876224
2563.287536	2062.756643
2564.740956	2059.249650
2566.189294	2059.847552
2567.640588	2061.489510
2569.090015	2060.600000
2570.535970	2060.611189
2571.984881	2064.901399
2573.430320	2060.686713
2574.877108	2063.794406
2576.322032	2072.208392
2577.766699	2069.909790
2579.212713	2064.545455
2580.655260	2062.869930
2582.099155	2056.592308
2583.539585	2054.774825
2584.981362	2053.820979
2586.421280	2048.720979
2587.862545	2048.716783
2589.300349	2049.689510
2590.741102	2041.560839
2592.176792	2045.100699
2593.615432	2045.883916
2595.052215	2047.023077
2596.487141	2050.423077
2597.925016	2051.895105
2599.357832	2047.669231
2600.791996	2042.783217
2602.224306	2041.775524
2603.657962	2035.261538
2605.089765	2031.100000
2606.521315	2026.666434
2607.952611	2019.278322
2609.382055	2014.918881
2610.811248	2010.651049
2612.238589	2015.585315
2613.667277	2018.613287
2615.095712	2017.790909
2616.520700	2022.823077
2617.947035	2022.512587
2619.371521	2028.524476
2620.797353	2027.300000
2622.219741	2026.558042
2623.643475	2025.039161
2625.065362	2020.042657
2626.487000	2021.918881
2627.906792	2021.639161
2629.327930	2022.886014
2630.748818	2023.225874
2632.166268	2029.413986
2633.586657	2036.356643
2635.003609	2036.001399
2636.420313	2040.411189
2637.836768	2034.827273
2639.252975	2032.558741
2640.668933	2029.006993
2642.083051	2024.431469
2643.496922	2024.600000
2644.908953	2018.717483
2646.322329	2015.488811
2647.732275	2017.488811
2649.145156	2015.665035
2650.554610	2014.558042
2651.963817	2013.371329
2653.371187	2016.289510
2654.781493	2015.774126
2656.189962	2019.746154
2657.596596	2023.290210
2659.002985	2020.898601
2660.407540	2022.610490
2661.813439	2026.100699
2663.217505	2027.133566
2664.621326	2028.850350
2666.024904	2022.083916
2667.426649	2022.410490
2668.829738	2020.669930
2670.229409	2024.015385
2671.630424	2026.586713
2673.028023	2029.630070
2674.428552	2033.120280
2675.825666	2031.358741
2677.224123	2034.193706
2678.620752	2036.060140
2680.017139	2031.790210
2681.413285	2026.516084
2682.807604	2020.481818
2684.203266	2013.676923
2685.595518	2009.461538
2686.989114	2006.407692
2688.380885	2003.320280
2689.773998	1998.220280
2691.165288	1997.362937
2692.554755	1994.044755
2693.943982	1990.224476
2695.332970	1988.183217
2696.723300	1976.990909
2698.108645	1976.462238
2699.496914	1975.322378
2700.883363	1973.255245
2702.269573	1973.343357
2703.655545	1974.626573
2705.038117	1970.493007
2706.422032	1972.088811
2707.805709	1974.476224
2709.189148	1974.716783
2710.569191	1969.837762
2711.950576	1969.450350
2713.330145	1965.022378
2714.711056	1969.162937
2716.090151	1972.006294
2717.467433	1976.834266
2718.846056	1980.736364
2720.222866	1985.134266
2721.599440	1988.217483
2722.975778	1990.779720
2724.350304	1997.676224
2725.726171	1996.924476
2727.098651	1992.058741
2728.474047	1995.565734
2729.844483	1992.902098
2731.216260	1988.848252
2732.587802	1989.775524
2733.957536	1987.145455
2735.328611	1989.504196
2736.697877	1985.010490
2738.066911	1981.253147
2739.434137	1976.259441
2740.801131	1983.151049
2742.167892	1981.220979
2743.534420	1979.565035
2744.899143	1984.398601
2746.263635	1978.612587
2747.627894	1979.935664
2748.991921	1979.767133
2750.355717	1981.300699
2751.716139	1981.736364
2753.079472	1973.786713
2754.437862	1969.227972
2755.799162	1964.867133
2757.157091	1963.395804
2758.517930	1958.996503
2759.876968	1949.060839
2761.232638	1949.018182
2762.591216	1943.618881
2763.946428	1945.886014
2765.301410	1951.947552
2766.654595	1954.737762
2768.010687	1954.246853
2769.363415	1956.220280
2770.715914	1955.997203
2772.068185	1958.195105
2773.421795	1958.107692
2774.772043	1957.663636
2776.120498	1957.327972
2777.471857	1963.146154
2778.819857	1960.725874
2780.169196	1958.213287
2781.516742	1955.746853
2782.864061	1947.119580
2784.211154	1938.069231
2785.556456	1930.832168
2786.901532	1925.868531
2788.246382	1921.302098
2789.591005	1916.725874
2790.932277	1918.677622
2792.274887	1919.403497
2793.617271	1922.052448
2794.959431	1921.225175
2796.298241	1924.204895
2797.639950	1929.849650
2798.978312	1933.495804
2800.318011	1935.858741
2801.655924	1942.462238
2802.992053	1943.050350
2804.327958	1941.251748
2805.665201	1948.039860
2807.000660	1952.665734
2808.335896	1952.055944
2809.669349	1953.286014
2811.004140	1951.879720
2812.335589	1956.839161
2813.669934	1957.625874
2814.999381	1953.669231
2816.330165	1952.079720
2817.660727	1946.381818
2818.989510	1935.016084
2820.319629	1930.551049
2821.647970	1930.553846
2822.976090	1921.320280
2824.302432	1915.367832
2825.630111	1910.269231
2826.954457	1904.196503
2828.280138	1907.099301
2829.604044	1901.619580
2830.927731	1901.072028
2832.252753	1897.868531
2833.574445	1893.414685
2834.895919	1893.123776
2836.217174	1887.809091
2837.538210	1883.800699
2838.857474	1872.820280
2840.178073	1864.301399
2841.496900	1856.832867
2842.815509	1852.048252
2844.132347	1855.969231
2845.448968	1855.332168
2846.765372	1857.876923
2848.080007	1858.140559
2849.395976	1858.168531
2850.708625	1857.669231
2852.022610	1850.920280
2853.336377	1853.360140
2854.649929	1851.323077
2855.961713	1850.001399
2857.271731	1855.291608
2858.583084	1862.033566
2859.891122	1871.035664
2861.200495	1879.230070
2862.509652	1889.233566
2863.818594	1894.164336
2865.125773	1897.065734
2866.431188	1898.941958
2867.737938	1900.504196
2869.042925	1908.835664
2870.347699	1908.291608
2871.650711	1906.283217
2872.956605	1906.279720
2874.257643	1902.094406
2875.560016	1897.552448
2876.860629	1895.179021
2878.162576	1892.495804
2879.464310	1887.191608
2880.762739	1879.356643
2882.062503	1873.656643
2883.360508	1867.858741
2884.658302	1868.399301
2885.954340	1862.013287
2887.251711	1859.153147
2888.547326	1858.813986
2889.842730	1857.990909
2891.137924	1858.534965
2892.429819	1858.569930
2893.724591	1856.458741
2895.016066	1852.774825
2896.308874	1846.416084
2897.601472	1846.352448
2898.890776	1849.210490
2900.181412	1850.785315
2901.470297	1849.510490
2902.760515	1850.665035
2904.047440	1851.057343
2905.335699	1853.550350
2906.622207	1854.645455
2907.908508	1854.706993
2909.194600	1847.452448
2910.478944	1841.645455
2911.766160	1842.874825
2913.048548	1846.413986
2914.332269	1854.234266
2915.614244	1855.531469
2916.896012	1861.058741
2918.176034	1862.581119
2919.458926	1872.374126
2920.740073	1866.372028
2922.017938	1859.735664
2923.298672	1852.234965
2924.576125	1839.705594
2925.853372	1833.095804
2927.128878	1829.134266
2928.407251	1825.792308
2929.680809	1825.958741
2930.957235	1821.737762
2932.231920	1824.398601
2933.504865	1823.893706
2934.779140	1830.880420
2936.051676	1825.278322
2937.324008	1828.610490
2938.593066	1830.267832
2939.864990	1825.884615
2941.135176	1823.896503
2942.405159	1821.880420
2943.674938	1821.320280
2944.942980	1816.976923
2946.209287	1814.755944
2947.475391	1811.697902
2948.742825	1808.132168
2950.008525	1804.455944
2951.274022	1806.337063
2952.539317	1806.082517
2953.801347	1801.763636
2955.064708	1796.463636
2956.327866	1794.248252
2957.589293	1795.304196
2958.852049	1793.927273
2960.113074	1792.453147
2961.372367	1795.830769
2962.631461	1793.224476
2963.890354	1793.309790
2965.149047	1791.809790
2966.407540	1795.470629
2967.664304	1802.860140
2968.920868	1806.749650
2970.175705	1808.263636
2971.431871	1811.521678
2972.684781	1810.661538
2973.939021	1808.887413
2975.193062	1806.344755
2976.445377	1804.866434
2977.697494	1807.486713
2978.947886	1806.645455
2980.201133	1804.429371
2981.449603	1802.681818
2982.700927	1811.290909
2983.949003	1811.839161
2985.196881	1811.896503
2986.444562	1810.367832
2987.692047	1806.552448
2988.937810	1808.983217
2990.183376	1808.085315
2991.430270	1811.537063
2992.673920	1816.562937
2993.918898	1815.431469
2995.160633	1816.581818
2996.405218	1820.905594
2997.648085	1829.086014
2998.887711	1829.031469
3000.130187	1831.981119
3001.369424	1830.164336
3002.609988	1834.135664
3003.848835	1834.539860
3005.087488	1833.137063
3006.324425	1834.872028
3007.562689	1831.025175
3008.799239	1829.648951
3010.035594	1825.306294
3011.271756	1823.702797
3012.506205	1819.390210
3013.740460	1812.434266
3014.974522	1810.964336
3016.206872	1809.595105
3017.437510	1809.086014
3018.670994	1809.162937
3019.902766	1810.282517
3021.132828	1813.255944
3022.362698	1813.807692
3023.590858	1816.406294
3024.820344	1813.860839
3026.048122	1813.836364
3027.275708	1812.979720
3028.504620	1814.895804
3029.728790	1820.067133
3030.955803	1819.022378
3032.179592	1814.318881
3033.404708	1811.391608
3034.628117	1808.178322
3035.851337	1803.985315
3037.072851	1798.348252
3038.297206	1796.446154
3039.516826	1791.680420
3040.737771	1790.013986
3041.958528	1790.653846
3043.177581	1791.706294
3044.397960	1792.720979
3045.615122	1784.757343
3046.833609	1783.717483
3048.050394	1785.148252
3049.266992	1785.269231
3050.483401	1782.938462
3051.696598	1781.911888
3052.912632	1784.855944
3054.125454	1782.430070
3055.341113	1785.021678
3056.552049	1782.389510
3057.764310	1775.276923
3058.976385	1773.627972
3060.188273	1770.178322
3061.398463	1771.534266
3062.608467	1772.782867
3063.818286	1773.284615
3065.026408	1772.199650
3066.234344	1771.893007
3067.440586	1776.618531
3068.648151	1773.131469
3069.854023	1778.550699
3071.059709	1777.619580
3072.265210	1773.970979
3073.469018	1775.513986
3074.674150	1772.844406
3075.877590	1770.100000
3077.079337	1773.538811
3078.280901	1769.734965
3079.482281	1761.559441
3080.683477	1757.325874
3081.882983	1755.544056
3083.082305	1745.423776
3084.282951	1746.783217
3085.481907	1742.756643
3086.677669	1742.804895
3087.876260	1739.750350
3089.071657	1738.032867
3090.268377	1738.941958
3091.461905	1747.453846
3092.658261	1750.595804
3093.852931	1754.571329
3095.044410	1756.761538
3096.240220	1760.381818
3097.431337	1761.313287
3098.623776	1762.816783
3099.813028	1762.179021
3101.005106	1760.543357
3102.195499	1753.590909
3103.382707	1755.122378
3104.571238	1754.012587
3105.761091	1759.345455
3106.947759	1761.405594
3108.134248	1761.429371
3109.320557	1755.674825
3110.508188	1760.221678
3111.692638	1755.716783
3112.875407	1753.225175
3114.061000	1753.555245
3115.244912	1749.753846
3116.427146	1749.544755
3117.609201	1752.786713
3118.791079	1753.960839
3119.972778	1749.845455
3121.152799	1747.974126
3122.331144	1748.430070
3123.512310	1742.815385
3124.690300	1743.334266
3125.868113	1740.255245
3127.045749	1740.939860
3128.221710	1738.668531
3129.397494	1734.551049
3130.574600	1730.956643
3131.750031	1728.074126
3132.923789	1726.079720
3134.095875	1719.656643
3135.269281	1723.320280
3136.442512	1725.634965
3137.614070	1726.558042
3138.786950	1732.299301
3139.956662	1743.827972
3141.127695	1749.163636
3142.297057	1755.678322
3143.464750	1760.092308
3144.635258	1761.140559
3145.801107	1764.708392
3146.971266	1765.567133
3148.136767	1771.977622
3149.302095	1776.875524
3150.467249	1779.633566
3151.632229	1777.554545
3152.798530	1773.793706
3153.960177	1771.083217
3155.123145	1767.644755
3156.285939	1762.715385
3157.448561	1753.915385
3158.609518	1745.923776
3159.770302	1738.853147
3160.930914	1735.996503
3162.089863	1741.052448
3163.248639	1742.033566
3164.407244	1743.553147
3165.565677	1739.965734
3166.723938	1738.534965
3167.880537	1742.378322
3169.035475	1744.602098
3170.191732	1743.054545
3171.346329	1740.043357
3172.500754	1735.689510
3173.653520	1731.734266
3174.806116	1739.853147
3175.958541	1746.146853
3177.110797	1752.148252
3178.262883	1754.530070
3179.411822	1755.542657
3180.563568	1752.906294
3181.713656	1750.283217
3182.862088	1744.637063
3184.010351	1736.902098
3185.158444	1734.416783
3186.306369	1730.663636
3187.452639	1731.736364
3188.598740	1738.870629
3189.743186	1739.544755
3190.887465	1742.730769
3192.031576	1739.223776
3193.177005	1733.656643
3194.319294	1726.592308
3195.461417	1720.980420
3196.603372	1718.735664
3197.745161	1717.686713
3198.886782	1721.218881
3200.025267	1721.481818
3201.165070	1728.743357
3202.306191	1732.186713
3203.444177	1730.421678
3204.580514	1734.209091
3205.716685	1726.346154
3206.854174	1715.441958
3207.990013	1710.886713
3209.127170	1703.813287
3210.259714	1700.570629
3211.396540	1698.211888
3212.528754	1697.641958
3213.662286	1698.134266
3214.795652	1695.134965
3215.925891	1692.802098
3217.058928	1691.588811
3218.188839	1689.397902
3219.320067	1679.618881
3220.448169	1672.902797
3221.579068	1676.644755
3222.708324	1679.689510
3223.835935	1689.013986
3224.960425	1691.201399
3226.089190	1700.450350
3227.214833	1701.305594
3228.340313	1705.388112
3229.464152	1713.165734
3230.590785	1717.800699
3231.712821	1713.050350
3232.836173	1710.798601
3233.959363	1707.277622
3235.082391	1706.400699
3236.203779	1702.090909
3237.325006	1697.850350
3238.444594	1689.641259
3239.564021	1692.508392
3240.681810	1686.420979
3241.802392	1689.698601
3242.919859	1688.060839
3244.037167	1689.649650
3245.154313	1694.855944
3246.269824	1702.464336
3247.386650	1712.125874
3248.500365	1719.520280
3249.616870	1724.472028
3250.731741	1729.891608
3251.843503	1736.304895
3252.955106	1740.370629
3254.068023	1735.075524
3255.180782	1727.795105
3256.290434	1721.805594
3257.401400	1720.630769
3258.512208	1720.616084
3259.621385	1721.299301
3260.728930	1728.046853
3261.837790	1732.619580
3262.946491	1736.527972
3264.052090	1740.843357
3265.159003	1747.065035
3266.264288	1750.694406
3267.370886	1752.125175
3268.474384	1750.130070
3269.579196	1747.981818
3270.683851	1748.461538
3271.785407	1747.381818
3272.886808	1748.690210
3273.989522	1748.170629
3275.092079	1747.928671
3276.191540	1746.637063
3277.293785	1741.974825
3278.392934	1739.665734
3279.490459	1737.875524
3280.587828	1729.922378
3281.687980	1721.694406
3282.785038	1712.955944
3283.881941	1713.720979
3284.978689	1710.068531
3286.070879	1707.986014
3287.167317	1702.862937
3288.262134	1696.181818
3289.356795	1695.039161
3290.449835	1692.660839
3291.542721	1693.240559
3292.633986	1689.423776
3293.726564	1686.907692
3294.817521	1686.246154
3295.906859	1687.202098
3296.996044	1689.777622
3298.086542	1688.122378
3299.173955	1688.469231
3300.261216	1686.569930
3301.349789	1683.397902
3302.438209	1686.211888
3303.522082	1686.510490
3304.610197	1690.179021
3305.695231	1692.511888
3306.778648	1700.187413
3307.863378	1699.204895
3308.946493	1701.109091
3310.030919	1699.408392
3311.112267	1698.029371
3312.194927	1698.901399
3313.275973	1697.708392
3314.356868	1699.481119
3315.436150	1704.736364
3316.515281	1712.860839
3317.595723	1718.932867
3318.673092	1724.839860
3319.751771	1732.865734
3320.828840	1734.357343
3321.905758	1731.191608
3322.981065	1732.481818
3324.056223	1731.837762
3325.132692	1733.571329
3326.206091	1731.435664
3327.279341	1736.662937
3328.353902	1744.240559
3329.426853	1744.109091
3330.498197	1746.360140
3331.570851	1751.380420
3332.640438	1753.111189
3333.711336	1749.069231
3334.780627	1744.379021
3335.851229	1750.134266
3336.920224	1749.006993
3337.987613	1749.583916
3339.053397	1745.568531
3340.123407	1747.911189
3341.190354	1747.663636
3342.254239	1745.947552
3343.320892	1753.942657
3344.385940	1752.820979
3345.449385	1752.415385
3346.512684	1752.841958
3347.575836	1755.906294
3348.638842	1758.258741
3349.701702	1751.920979
3350.762960	1747.326573
3351.821161	1743.615385
3352.883583	1746.479720
3353.942948	1749.841958
3355.002168	1750.947552
3356.062698	1752.601399
3357.118718	1751.865035
3358.177503	1756.091608
3359.231780	1758.109091
3360.288820	1757.313287
3361.344263	1756.605594
3362.401014	1749.751049
3363.456168	1746.681119
3364.509724	1744.890210
3365.561683	1745.934965
3366.616404	1747.577622
3367.668076	1739.324476
3368.719605	1732.281119
3369.772443	1725.901399
3370.822233	1725.986713
3371.873331	1721.134965
3372.921384	1716.069930
3373.972197	1718.131469
3375.019964	1713.028671
3376.067589	1712.819580
3377.115071	1713.683916
3378.160961	1716.023776
3379.208159	1717.741958
3380.252315	1717.619580
3381.299229	1718.462238
3382.344551	1723.887413
3383.386833	1730.441958
3384.428973	1729.562238
3385.472421	1732.518182
3386.515729	1735.568531
3387.557446	1729.653147
3388.599022	1726.485315
3389.640458	1722.313986
3390.680304	1719.082517
3391.718563	1716.310490
3392.758129	1711.283916
3393.797554	1705.890909
3394.835392	1706.718881
3395.871643	1703.306294
3396.907755	1699.710490
3397.945174	1701.361538
3398.979560	1702.595105
3400.015253	1698.090210
3401.050807	1697.299301
3402.083330	1699.840559
3403.118606	1699.449650
3404.150851	1697.141259
3405.182958	1697.362937
3406.213481	1701.803497
3407.245312	1708.402797
3408.277003	1710.094406
3409.305668	1712.302098
3410.334194	1717.325175
3411.364028	1719.956643
3412.393723	1721.644056
3413.420393	1722.246853
3414.448370	1728.181119
3415.473322	1731.916084
3416.501024	1739.776923
3417.525703	1747.456643
3418.551688	1757.058042
3419.576093	1767.051049
3420.600362	1772.142657
3421.623052	1776.692308
3422.645606	1776.344056
3423.669466	1774.612587
3424.690306	1771.521678
3425.711011	1766.913586
3426.733021	1762.876149
3427.752013	1760.425974
3428.770870	1760.579670
3429.791032	1764.353846
3430.808178	1772.765110
