-117.384298	15.450000
-114.714698	12.360440
-112.048033	11.092507
-109.382120	11.215784
-106.719139	12.299850
-104.054729	13.914286
-101.393249	15.628671
-98.730339	16.909091
-96.072537	15.876923
-93.413304	13.035664
-90.754821	12.693706
-88.099261	12.188811
-85.442273	12.927273
-82.790382	12.718881
-80.137062	11.743357
-77.486662	12.679720
-74.834832	16.053846
-72.188093	17.368531
-69.539924	16.318182
-66.892499	14.966434
-64.247987	12.013986
-61.602047	14.616783
-58.961188	17.572727
-56.318900	17.276923
-53.679520	20.934266
-51.038712	29.628671
-48.398644	32.387413
-45.763648	36.179021
-43.127224	44.224476
-40.493702	47.125874
-37.858752	48.972028
-35.228867	50.114685
-32.595390	54.416783
-29.966975	62.054545
-27.339293	61.427273
-24.710184	36.239161
-22.086131	-109.336364
-19.458489	-803.897902
-16.835900	-2294.646853
-14.214043	-2625.123077
-11.592916	1405.038462
-8.972519	9751.504196
-6.355010	17352.070629
-3.736073	22762.241259
-1.120022	25931.165734
1.495301	26852.910490
4.109897	25520.089510
6.721610	21966.022378
9.334752	16273.450350
11.942860	8821.325874
14.554550	1186.370629
17.161209	-3380.383217
19.769296	-3083.665734
22.376659	-568.893007
24.978997	73.190210
27.584913	80.299301
30.185807	70.817483
32.788129	64.013986
35.385434	51.021678
37.986314	41.776923
40.582180	33.410490
43.179473	30.259441
45.776047	25.637063
48.367612	22.226573
50.960605	21.658042
53.550737	20.944056
56.142297	20.300699
58.730997	18.757343
61.321124	16.297203
63.906253	18.681818
66.492808	19.579021
69.078650	18.890909
71.661638	21.275524
74.246052	23.299301
76.823338	22.131469
79.404190	21.941958
81.982193	22.356643
84.559486	21.577622
87.138205	21.232168
89.711943	20.979021
92.287107	24.480420
94.859428	30.181818
97.431041	33.390909
99.999814	36.892308
102.570014	37.846154
105.137376	36.413287
107.706163	33.958042
110.272114	33.343357
112.835230	31.668531
115.401902	29.051748
117.959353	28.242657
120.522489	34.262238
123.080666	46.760140
125.642396	74.996503
128.199170	120.186713
130.757371	192.278322
133.310619	279.205594
135.863168	392.246853
138.419268	518.390210
140.970421	650.537063
143.520875	776.246853
146.070632	891.454545
148.617571	981.034266
151.163813	1041.233566
153.711481	1072.227273
156.258453	1085.964336
158.800490	1084.973427
161.341833	1077.167832
163.882483	1059.076923
166.424559	1044.459441
168.963823	1027.782517
171.500279	1016.738462
174.036043	1009.380420
176.573233	1008.098601
179.109732	999.465035
181.643425	992.507692
184.174315	987.665734
186.704516	985.165734
189.236142	986.659441
191.764967	986.437762
194.290993	983.427972
196.816333	984.662937
199.343099	983.109091
201.867067	986.156643
204.390351	991.637063
206.912950	999.006294
209.432756	1000.930769
211.951879	1011.804196
214.470319	1024.542657
216.990183	1043.525175
219.503046	1071.346154
222.019440	1093.897203
224.535152	1124.046853
227.045974	1157.441958
229.558222	1182.045455
232.067686	1207.479720
234.576472	1228.343357
237.084580	1240.903497
239.594111	1244.616084
242.098762	1245.290909
244.602738	1248.879021
247.108137	1256.591608
249.608661	1259.199301
252.112708	1259.709790
254.609785	1268.384615
257.110384	1274.871329
259.608212	1277.287413
262.105367	1287.386713
264.601849	1297.670629
267.093468	1312.740559
269.588607	1323.951748
272.080980	1335.397203
274.572682	1356.732168
277.061620	1377.309790
279.551983	1394.303497
282.039583	1413.748951
284.524425	1434.274126
287.012780	1452.920979
289.494196	1476.086014
291.979126	1516.954545
294.459211	1564.490210
296.942808	1616.740559
299.421562	1654.627273
301.901740	1677.133566
304.379165	1689.602098
306.855927	1690.237762
309.332026	1687.674126
311.805376	1691.347552
314.278064	1691.710490
316.750091	1680.007692
319.221457	1668.424476
321.690079	1661.770629
324.158041	1643.805594
326.627425	1614.241259
329.091987	1572.216783
331.560053	1521.030769
334.023299	1470.577622
336.485887	1425.639161
338.947819	1397.621678
341.409094	1388.686014
343.867635	1381.541259
346.327598	1369.203497
348.784828	1364.988811
351.241404	1362.620979
353.697326	1350.496503
356.150519	1342.972028
358.605133	1330.918881
361.054946	1319.646853
363.508255	1309.554545
365.956766	1296.104895
368.404626	1290.808392
370.853907	1280.927972
373.298395	1270.981818
375.744305	1257.099301
378.189566	1250.512587
380.632107	1247.660140
383.074001	1237.152448
385.515248	1232.247552
387.953779	1220.835664
390.393732	1215.994406
392.830971	1212.985315
395.265498	1208.192308
397.703513	1206.843357
400.136751	1197.644755
402.571411	1192.116783
405.001297	1188.959441
407.434669	1191.611888
409.863271	1195.055944
412.291232	1196.994406
414.720613	1198.125175
417.145229	1203.807692
419.571267	1211.469930
421.996664	1214.469231
424.421421	1219.813986
426.841420	1226.071329
429.262840	1226.290909
431.681563	1222.793007
434.101707	1217.625175
436.519156	1206.306294
438.938025	1191.284615
441.354201	1175.649650
443.765630	1155.492308
446.180535	1140.399301
448.592750	1118.474126
451.004331	1097.406993
453.415278	1086.961538
455.823539	1074.760839
458.231167	1065.902098
460.638164	1058.193706
463.044528	1055.693007
465.448210	1058.310490
467.851262	1070.020979
470.253684	1081.737762
472.655477	1100.577622
475.054591	1116.159441
477.455125	1139.512587
479.855030	1170.797203
482.250212	1208.407692
484.648861	1245.341259
487.042790	1285.850350
489.436093	1328.977622
491.828770	1369.251049
494.220822	1409.428671
496.614292	1438.311888
499.003051	1387.419580
501.389143	1121.389510
503.776654	576.476923
506.163543	893.117483
508.547768	4332.689510
510.933412	11678.727273
513.316393	20940.344056
515.696714	29152.660839
518.078454	34976.832168
520.457535	37937.779720
522.838035	37883.282517
525.215877	34834.348252
527.591064	28974.282517
529.965633	20869.313287
532.341621	11866.808392
534.714955	4515.737762
537.089707	1004.981119
539.459774	816.304895
541.829225	1586.348951
544.200094	1794.086014
546.566283	1719.083217
548.933890	1590.570629
551.298851	1469.569930
553.663199	1369.013986
556.026935	1281.222378
558.392088	1207.864336
560.752568	1146.365734
563.114467	1091.892308
565.473726	1045.587413
567.830346	1001.126573
570.190411	952.991608
572.543786	915.014685
574.900605	879.838462
577.254788	852.030769
579.608364	829.951748
581.961331	809.580420
584.311667	795.402797
586.663419	786.992308
589.008495	780.564336
591.359035	775.090909
593.702901	770.370629
596.052229	770.475524
598.396909	771.414685
600.738963	773.223077
603.082435	777.344056
605.423284	788.568531
607.763531	794.262937
610.101157	802.793706
612.442218	808.435664
614.778641	812.145455
617.116481	811.524476
619.451704	803.065734
621.784311	784.362238
624.118334	770.547552
626.449744	752.373427
628.780555	730.738462
631.110768	713.057343
633.440383	701.432867
635.765376	689.268531
638.095810	683.370629
640.421622	674.701399
642.744828	671.332867
645.069449	669.279021
647.391465	662.810490
649.712888	656.182517
652.031707	656.306993
654.351942	657.987413
656.671584	658.158042
658.988625	662.449650
661.305074	667.381119
663.618925	670.349650
665.934192	673.248951
668.246862	669.269231
670.560947	670.392308
672.870432	662.219580
675.181333	656.327972
677.489641	642.413986
679.797361	629.138462
682.106496	615.666434
684.411038	604.049650
686.714993	594.539860
689.018363	579.390210
691.323147	564.537063
693.623345	558.511888
695.924957	550.067832
698.225985	543.160839
700.522430	531.561538
702.820291	525.476923
705.117568	513.609091
707.414262	508.455245
709.706380	506.344056
712.001909	508.389510
714.292865	506.481119
716.585235	505.041259
718.875029	506.113287
721.164243	511.720979
723.452878	510.806993
725.738941	508.809790
728.026417	506.455245
730.311322	504.282517
732.595650	500.609790
734.877409	498.463636
737.160582	497.177622
739.443178	500.658042
741.721219	499.189510
744.000673	498.735664
746.279552	497.113986
748.557855	497.664336
750.831609	494.739161
753.106777	498.446853
755.381371	503.094406
757.653405	507.044755
759.926853	512.109091
762.197743	517.636364
764.466077	524.227273
766.735824	530.130769
769.003017	530.680420
771.269639	536.094406
773.535691	538.287413
775.799192	541.468531
778.064106	541.739860
780.328450	547.640559
782.588265	551.805594
784.849493	556.633566
787.110152	565.018182
789.368266	570.484615
791.623835	574.608392
793.882795	575.032168
796.135256	576.753846
798.393084	581.576923
800.646392	580.628671
802.897161	584.969231
805.149342	584.125175
807.398985	583.853846
809.650039	584.972727
811.896582	590.558741
814.144537	593.990909
816.389958	595.030070
818.636790	594.740559
820.883061	594.654545
823.124828	595.946853
825.369977	598.793706
827.608654	594.505594
829.850713	591.056643
832.088274	585.755245
834.327247	578.095105
836.563693	572.099301
838.801550	567.080420
841.036882	556.931469
843.269691	552.972028
845.503911	543.083217
847.735609	537.448252
849.966751	531.842657
852.197340	527.057343
854.427373	521.895105
856.656853	524.318881
858.881851	523.781119
861.110224	526.612587
863.334118	531.352448
865.559422	535.262937
867.780251	538.174825
870.004452	547.084615
872.224180	546.971329
874.445319	548.471329
876.665907	552.295804
878.883985	554.590909
881.103474	557.760140
883.318495	559.832867
885.532970	555.002098
887.746896	560.221678
889.960276	560.096503
892.173108	556.179021
894.385394	554.776224
896.595177	556.971329
898.804415	556.578322
901.013108	559.519580
903.219302	565.167133
905.426905	566.260839
907.632010	564.976923
909.836572	569.717483
912.038639	574.672727
914.242115	582.704196
916.443097	589.678322
918.643538	599.325175
920.845386	622.130769
923.040844	660.956643
925.239661	718.177622
927.434039	800.467133
929.631775	907.269231
931.825075	1047.591608
934.019784	1205.801399
936.212007	1372.393007
938.403692	1520.846853
940.594839	1650.355944
942.783503	1746.623077
944.971630	1809.669231
947.157277	1840.148951
949.346276	1850.498601
951.530852	1839.247552
953.714893	1829.013986
955.902284	1828.262937
958.081371	1839.402098
960.263809	1858.832867
962.445713	1880.450350
964.625143	1901.738462
966.802099	1920.037063
968.980464	1939.993007
971.160236	1959.827972
973.333659	1971.003497
975.510428	1980.305594
977.682790	1982.939161
979.856560	1976.520280
982.025926	1947.040559
984.198637	1892.911189
986.368881	1813.245455
988.538597	1707.263636
990.707784	1587.334965
992.872574	1455.499301
995.040705	1335.730070
997.204442	1222.250350
999.369585	1123.915385
1001.532270	1048.073427
1003.694428	996.553147
1005.854130	956.407692
1008.013308	921.947552
1010.173892	897.485315
1012.332021	868.466434
1014.489626	842.861538
1016.646708	819.118881
1018.803267	795.316084
1020.955446	776.169231
1023.109031	756.360140
1025.262095	736.753147
1027.412711	718.851049
1029.564732	704.276224
1031.712380	688.618182
1033.863360	670.160140
1036.009969	655.954545
1038.156060	641.397203
1040.301631	630.684615
1042.448608	615.383916
1044.589296	611.284615
1046.733314	606.438462
1048.874891	603.018881
1051.015952	596.058042
1053.158417	597.773427
1055.294603	598.271329
1057.434115	598.432867
1059.569271	592.776224
1061.707752	591.249650
1063.841879	586.447552
1065.975493	582.274825
1068.110512	574.499301
1070.241181	575.550350
1072.373255	569.493007
1074.502900	562.441259
1076.632033	555.825175
1078.760654	553.620280
1080.888764	544.316084
1083.014448	538.882517
1085.139622	530.777622
1087.266200	526.903497
1089.388441	516.300699
1091.512085	509.480420
1093.631396	502.703497
1095.755935	496.685315
1097.874229	487.365035
1099.993928	481.217483
1102.111208	476.774126
1104.227982	473.472727
1106.344249	464.181818
1108.458101	459.533566
1110.573356	454.146154
1112.684289	451.639860
1114.798533	448.402098
1116.908457	446.210490
1119.019785	443.528671
1121.130608	442.502797
1123.237115	438.258042
1125.346932	439.918881
1127.452434	436.487413
1129.559339	438.791608
1131.660029	432.223077
1133.765931	428.786014
1135.867524	425.995804
1137.970520	427.294406
1140.073015	429.468531
1142.169303	425.114685
1144.270799	423.414685
1146.367992	421.972727
1148.464686	415.199301
1150.560882	413.025175
1152.656581	407.484615
1154.751781	406.388811
1156.844586	397.846853
1158.938792	393.623077
1161.026807	389.409790
1163.120020	390.234965
1165.207045	390.953147
1167.297369	387.344056
1169.383406	388.780420
1171.472740	390.111888
1173.555893	390.257343
1175.640448	389.986713
1177.726405	389.406294
1179.808080	389.399301
1181.891157	384.762238
1183.971848	384.025175
1186.052047	380.310490
1188.131755	379.071329
1190.210972	371.811189
1192.287807	368.360140
1194.362261	367.403497
1196.440006	365.698601
1198.513482	364.064336
1200.588358	359.281818
1202.658967	358.866434
1204.730978	360.090909
1206.800612	356.054545
1208.871647	358.083217
1210.942194	356.138462
1213.008480	352.867133
1215.076167	346.928671
1217.141482	349.413287
1219.208197	348.067133
1221.270656	347.562937
1223.336400	346.473427
1225.397891	344.423077
1227.460781	345.388112
1229.521304	342.979720
1231.581343	340.754545
1233.640900	344.135664
1235.698091	341.490909
1237.754801	336.501399
1239.809148	335.802098
1241.866775	336.816084
1243.922040	334.516783
1245.973064	337.109091
1248.025488	335.311888
1250.077432	334.472727
1252.127018	333.544755
1254.176125	331.239161
1256.224754	332.446154
1258.272904	331.380420
1260.320575	329.327972
1262.364017	324.448252
1264.410733	318.013986
1266.455096	316.755944
1268.498983	314.338462
1270.540519	314.188112
1272.579704	311.309091
1274.622163	313.420979
1276.660399	315.160839
1278.700034	315.957343
1280.739194	318.700000
1282.774135	318.478322
1284.810475	317.802098
1286.844471	316.258042
1288.879865	309.781818
1290.911045	312.113986
1292.943624	308.291608
1294.975730	308.611888
1297.005496	308.115385
1299.036660	309.384615
1301.063616	308.806993
1303.091970	309.109790
1305.116120	310.810490
1307.143534	309.295804
1309.166746	310.930070
1311.191356	312.208392
1313.213632	309.953147
1315.237305	308.852448
1317.258645	308.101399
1319.279517	308.545455
1321.299922	306.866434
1323.316134	304.851049
1325.333743	304.776923
1327.349024	307.636364
1329.367564	307.626573
1331.381915	308.134266
1333.393940	307.790210
1335.409222	306.012587
1337.420319	304.144056
1339.432813	300.679021
1341.441124	297.784615
1343.452691	293.779720
1345.458218	292.246853
1347.467001	292.334266
1349.471606	293.995105
1351.479465	295.269231
1353.486862	298.747552
1355.488228	299.396503
1357.490991	299.286713
1359.493293	302.915385
1361.495136	302.810490
1363.496519	300.437063
1365.495589	299.411189
1367.494200	300.988811
1369.492353	300.886014
1371.490047	301.343357
1373.483579	302.031469
1375.478507	301.100000
1377.472977	302.093706
1379.466992	298.721678
1381.458698	294.909091
1383.449950	296.526573
1385.438896	294.307692
1387.429237	293.525175
1389.419123	294.714685
1391.406706	298.282517
1393.393834	295.690909
1395.378662	297.702098
1397.364883	301.936364
1399.348805	298.556643
1401.332274	296.567133
1403.315291	297.436364
1405.296009	297.879720
1407.278123	302.027273
1409.257939	300.807692
1411.237305	300.658042
1413.212531	299.215385
1415.190997	299.490210
1417.167168	296.080420
1419.142891	294.847552
1421.118164	295.792308
1423.091146	294.260839
1425.063680	296.157343
1427.035767	300.148951
1429.007405	307.902098
1430.974915	312.732168
1432.947500	315.918182
1434.912278	317.717483
1436.882128	316.445455
1438.847855	316.646154
1440.814974	314.548951
1442.779810	311.917483
1444.740526	308.713986
1446.706311	307.224476
1448.666140	306.388811
1450.627362	307.531469
1452.589977	310.624476
1454.548477	311.639860
1456.506534	311.544755
1458.464150	309.001399
1460.421324	308.060140
1462.376222	309.104895
1464.332512	307.469930
1466.286528	306.688112
1468.240104	303.793706
1470.191407	305.773427
1472.144102	306.148951
1474.094526	304.124476
1476.044510	303.043357
1477.994056	302.418182
1479.941333	300.483916
1481.886343	299.039860
1483.832744	297.011888
1485.778708	294.908392
1487.724235	293.589510
1489.667497	294.755245
1491.610322	293.306294
1493.550884	292.086014
1495.492837	290.367832
1497.432528	291.792308
1499.371785	293.602098
1501.310606	297.638462
1503.247168	300.621678
1505.185121	303.286014
1507.120815	301.921678
1509.056076	300.913287
1510.989081	298.739161
1512.921653	298.393007
1514.853793	294.144755
1516.785501	293.895804
1518.714955	293.855944
1520.645800	295.525175
1522.576213	295.398601
1524.502554	294.632867
1526.430286	293.795105
1528.355767	292.101399
1530.280819	288.665734
1532.205442	286.217483
1534.129636	285.881818
1536.051583	287.911888
1537.974919	287.660140
1539.896010	292.704196
1541.814856	295.983217
1543.735092	299.028671
1545.653084	306.184615
1547.570650	309.288112
1549.485974	314.382517
1551.402688	317.333566
1553.315347	315.671329
1555.231210	314.372028
1557.144833	316.399301
1559.056219	313.292308
1560.968993	308.556643
1562.877718	306.372028
1564.787833	304.550350
1566.697523	301.202098
1568.606791	301.180420
1570.513825	298.315385
1572.418626	295.087413
1574.324816	291.380420
1576.228774	285.156643
1578.132312	284.675524
1580.035428	285.522378
1581.936316	284.689510
1583.838591	288.265734
1585.738639	294.491608
1587.640074	302.272028
1589.537476	304.639161
1591.434459	303.786014
1593.331024	301.155944
1595.228977	296.648951
1597.121095	292.375524
1599.016406	286.412587
1600.911300	282.931469
1602.803972	281.113287
1604.696228	280.705594
1606.586263	280.360140
1608.475884	283.546154
1610.365088	286.795804
1612.253878	291.697902
1614.140450	290.542657
1616.028410	291.481119
1617.912353	293.218881
1619.797684	293.175524
1621.682600	294.716783
1623.565303	298.904895
1625.449393	301.146853
1627.329472	299.412587
1629.210937	297.269231
1631.090192	297.948252
1632.970833	298.190909
1634.845670	300.969231
1636.725489	297.584615
1638.601302	298.322378
1640.476705	295.884615
1642.353495	295.819580
1644.224487	294.679021
1646.098661	296.830070
1647.968837	295.553147
1649.842193	294.744755
1651.713346	293.923776
1653.582297	292.362937
1655.452634	291.946154
1657.318977	292.030769
1659.186706	292.311189
1661.052237	292.249650
1662.919152	292.051049
1664.782079	294.476224
1666.646391	292.162937
1668.508507	294.614685
1670.370219	293.209091
1672.233315	294.086713
1674.094217	290.771329
1675.952925	290.196503
1677.811230	291.300699
1679.670920	291.869930
1681.524843	293.883217
1683.381938	296.367832
1685.238631	296.458741
1687.091348	296.760839
1688.947235	292.186713
1690.799149	288.681119
1692.650662	287.819580
1694.501774	287.323077
1696.352486	282.588811
1698.202797	282.851049
1700.050924	283.213986
1701.900434	283.408392
1703.744196	283.319580
1705.592907	285.023776
1707.435873	282.155245
1709.282004	280.728671
1711.124174	276.830769
1712.969508	275.823077
1714.809102	275.552448
1716.650080	276.902098
1718.492441	279.275524
1720.330846	281.775524
1722.170634	282.998601
1724.008247	284.048951
1725.845464	281.146853
1727.680508	280.718182
1729.516935	278.444056
1731.351190	276.012587
1733.185050	274.376224
1735.018517	273.392308
1736.848037	273.583217
1738.680716	277.423077
1740.509451	280.288112
1742.341344	280.167832
1744.169294	279.777622
1745.996852	283.753846
1747.824018	285.844755
1749.650793	288.192308
1751.477177	287.941259
1753.299623	286.908392
1755.125225	286.255944
1756.946892	288.363636
1758.769941	286.252448
1760.590828	284.074825
1762.411327	281.332867
1764.233207	278.579021
1766.049387	281.567133
1767.868719	286.441259
1769.684124	286.809091
1771.502679	283.794406
1773.317309	282.381119
1775.131553	280.406993
1776.945409	277.103497
1778.758879	276.513986
1780.570196	273.881818
1782.382894	272.488112
1784.195205	269.863636
1786.003599	272.248951
1787.813373	274.806993
1789.619233	275.293007
1791.428238	277.006993
1793.233330	277.270629
1795.039803	276.062238
1796.845892	272.316084
1798.648071	268.167832
1800.453393	268.386713
1802.254807	269.524476
1804.057601	268.669231
1805.856489	268.367832
1807.656758	272.894406
1809.456645	273.902797
1811.254391	275.695804
1813.051755	279.920280
1814.848740	280.748951
1816.645344	278.337063
1818.439809	277.497902
1820.235653	272.960140
1822.025843	271.689510
1823.820928	272.878322
1825.610362	272.920979
1827.402932	274.685315
1829.193367	275.246154
1830.981668	274.033566
1832.773104	275.090210
1834.558894	275.462937
1836.346064	278.012587
1838.131102	275.765734
1839.919274	273.627972
1841.703560	271.009790
1843.485717	273.087413
1845.269252	275.280420
1847.050659	275.691608
1848.833445	277.983217
1850.612350	275.466434
1852.392635	276.720979
1854.170793	279.927273
1855.950330	278.288811
1857.727742	279.994406
1859.503030	278.890909
1861.279697	278.019580
1863.054240	278.158042
1864.830162	276.830769
1866.600463	275.921678
1868.373892	277.660140
1870.145201	276.341958
1871.916140	275.997902
1873.688455	275.485315
1875.455157	276.998601
1877.224985	275.518881
1878.990949	276.265734
1880.760037	277.613986
1882.525263	275.798601
1884.290120	273.894406
1886.056355	272.858042
1887.818731	272.102797
1889.580740	276.864336
1891.342381	275.903497
1893.103656	276.106294
1894.864563	275.190210
1896.625104	276.628671
1898.383535	278.330070
1900.141601	277.621678
1901.897558	281.265734
1903.654892	281.818182
1905.411861	280.146853
1907.166724	277.914685
1908.919481	275.976923
1910.671875	276.358741
1912.425644	274.166434
1914.177310	269.333566
1915.926874	266.425874
1917.677813	263.388811
1919.428390	265.039161
1921.175127	262.993007
1922.923241	269.179720
1924.669255	272.462238
1926.416645	272.470629
1928.161936	275.617483
1929.905130	278.741958
1931.649699	280.344755
1933.392173	282.118881
1935.134286	280.081818
1936.876039	278.363636
1938.617433	276.439860
1940.356732	274.506993
1942.095673	274.156643
1943.834256	275.955944
1945.570746	275.324476
1947.306879	275.718182
1949.044386	281.007692
1950.778071	279.737063
1952.513131	278.093706
1954.246103	276.233566
1955.978718	273.714685
1957.710976	272.923776
1959.442878	270.985315
1961.172694	268.669231
1962.900425	267.869231
1964.629531	264.255245
1966.358282	263.593007
1968.084949	264.695105
1969.811262	267.640559
1971.538948	264.929371
1973.261098	264.823776
1974.986349	267.943357
1976.707794	272.674825
1978.432338	277.437762
1980.154803	281.233566
1981.873464	282.790210
1983.595224	280.046853
1985.313182	277.845455
1987.032513	277.622378
1988.748045	275.041958
1990.468397	276.698601
1992.184951	277.558741
1993.897708	277.699301
1995.613562	281.287413
1997.327342	285.879021
1999.040773	284.946154
2000.752133	284.700699
2002.464866	281.847552
2004.173807	279.891608
2005.885842	277.772727
2007.592367	275.459441
2009.301985	272.694406
2011.009535	276.261538
2012.716738	279.754545
2014.421875	281.230769
2016.126665	284.000000
2017.832827	285.645455
2019.535207	283.704196
2021.238959	282.037063
2022.940647	281.358741
2024.641991	282.081119
2026.342989	279.251049
2028.041927	278.911888
2029.742235	281.265035
2031.438769	283.952448
2033.136674	284.653147
2034.832520	285.366434
2036.531452	283.453846
2038.224898	282.943357
2039.919715	279.683217
2041.614190	279.061538
2043.304896	277.362937
2044.998686	276.581119
2046.688709	274.881119
2048.380103	278.346154
2050.069444	281.002797
2051.760155	279.098601
2053.447103	278.854545
2055.133712	276.495105
2056.821691	275.974126
2058.505910	276.200699
2060.191499	271.650350
2061.876749	271.388112
2063.559951	266.622378
2065.244522	267.362937
2066.923631	266.610490
2068.607525	268.323776
2070.285959	267.468531
2071.967469	267.325175
2073.645229	270.501399
2075.322651	270.448252
2077.001443	271.870629
2078.678193	273.168531
2080.352901	271.218182
2082.028978	273.830769
2083.703015	272.969231
2085.376716	276.879720
2087.050082	275.588112
2088.721410	273.382517
2090.392403	270.799301
2092.063062	269.055944
2093.733386	268.166434
2095.403377	268.105594
2097.071332	266.321678
2098.738954	268.541259
2100.404541	269.055245
2102.071498	271.444056
2103.736420	274.987413
2105.401011	281.431469
2107.063570	282.200699
2108.727497	283.591608
2110.389394	284.559441
2112.050959	286.052448
2113.712193	284.675524
2115.371399	284.208392
2117.030274	281.491608
2118.688820	279.252448
2120.347036	276.818881
2122.001528	271.524476
2123.659085	271.473427
2125.316313	273.189510
2126.969819	272.898601
2128.624693	274.074825
2130.275849	273.279021
2131.930066	273.395804
2133.580567	271.524476
2135.232434	272.893706
2136.878893	275.250350
2138.530107	275.364336
2140.177607	273.872727
2141.826474	270.716084
2143.473323	270.605594
2145.119845	271.264336
2146.766042	268.508392
2148.408531	266.075524
2150.054078	263.707692
2151.695918	262.579021
2153.340815	261.925874
2154.982007	264.746154
2156.622875	266.511189
2158.263419	264.606294
2159.901951	263.580420
2161.541849	266.942657
2163.178047	266.263636
2164.815612	264.418182
2166.452853	265.102098
2168.088085	266.070629
2169.722996	267.741958
2171.357585	271.628671
2172.991852	271.475524
2174.622426	274.463636
2176.256052	273.310490
2177.885986	271.476923
2179.517285	271.309790
2181.146579	272.474126
2182.775554	268.479021
2184.404210	267.899301
2186.032546	268.447552
2187.658879	265.073427
2189.284894	266.991608
2190.908908	268.811888
2192.534286	264.658042
2194.157665	264.392308
2195.782407	264.279021
2197.403469	264.388112
2199.024214	265.034965
2200.646324	266.826573
2202.266436	270.075524
2203.884551	273.623776
2205.502351	273.638462
2207.119836	275.171329
2208.737005	274.870629
2210.353859	271.718881
2211.970398	269.683217
2213.584943	265.243357
2215.197496	265.731469
2216.811413	263.166434
2218.423339	265.614685
2220.036628	266.957343
2221.647927	269.602797
2223.257236	270.937063
2224.867909	272.755245
2226.476593	276.175524
2228.084965	274.170629
2229.691349	270.830070
2231.299097	270.303497
2232.904858	264.890909
2234.510308	263.800699
2236.113773	263.486014
2237.718601	261.118182
2239.321445	259.202797
2240.922307	258.411888
2242.524530	259.027273
2244.124772	261.231469
2245.726376	264.300000
2247.324328	265.179021
2248.923642	265.645455
2250.520976	268.970629
2252.118001	268.406294
2253.716389	267.665035
2255.311128	271.669231
2256.903890	268.267133
2258.498015	268.157343
2260.093501	270.302797
2261.685343	268.901399
2263.276878	268.762238
2264.869774	270.109790
2266.457361	268.965734
2268.049645	270.272727
2269.636621	268.707692
2271.226626	268.536364
2272.811326	267.737762
2274.400719	267.979720
2275.984811	262.416783
2277.570264	261.293706
2279.153747	264.958741
2280.740257	262.820979
2282.323133	265.277622
2283.905705	268.479021
2285.487974	269.403497
2287.066614	269.572028
2288.648277	266.257343
2290.226312	265.883916
2291.807370	263.869231
2293.384801	258.825874
2294.960269	255.952448
2296.538759	257.434965
2298.113625	259.561538
2299.688190	261.010490
2301.262455	261.672727
2302.836419	262.202098
2304.410083	263.294406
2305.983446	258.973427
2307.553191	255.555944
2309.122637	256.704196
2310.695101	254.683217
2312.262291	251.343357
2313.832499	253.400000
2315.399092	253.537063
2316.967045	253.400699
2318.533042	254.077622
2320.098742	255.002098
2321.664145	268.998601
2323.227593	286.507692
2324.792401	302.633566
2326.353601	315.580420
2327.917815	321.439161
2329.476767	316.273427
2331.038734	310.697902
2332.598750	299.919580
2334.158470	285.069930
2335.716241	266.691608
2337.273717	250.574126
2338.830899	242.686014
2340.386134	247.367832
2341.941074	252.348951
2343.495721	259.443357
2345.050074	259.520979
2346.604133	258.455944
2348.157898	257.063636
2349.709720	260.877622
2351.259598	259.274126
2352.812484	255.551748
2354.360128	251.964336
2355.910779	250.916783
2357.457839	251.315385
2359.006258	252.189510
2360.554384	254.015385
2362.098922	253.225175
2363.644818	250.888811
2365.188776	252.939860
2366.734091	253.011888
2368.275821	257.266434
2369.818908	260.825874
2371.360060	258.917483
2372.900922	261.087413
2374.441495	262.242657
2375.981778	264.223776
2377.521773	262.715385
2379.058190	262.737762
2380.597608	256.825874
2382.133449	253.395105
2383.670646	249.186014
2385.204268	245.689510
2386.740891	246.545455
2388.275582	248.679720
2389.808344	248.076224
2391.340819	249.816783
2392.871367	253.725874
2394.404912	257.216084
2395.933245	259.361538
2397.462936	260.723077
2398.992341	258.816783
2400.521460	260.059441
2402.050295	257.118881
2403.573924	256.185315
2405.102190	254.828671
2406.625252	257.739860
2408.152948	260.362238
2409.673805	261.510490
2411.199295	266.572028
2412.721224	267.713287
2414.244509	268.484615
2415.765873	267.344056
2417.285317	266.487413
2418.806116	268.501399
2420.324996	264.122378
2421.843594	260.893706
2423.360275	261.049650
2424.878310	259.639161
2426.396064	258.055944
2427.910267	259.268531
2429.424189	259.066434
2430.937831	255.875524
2432.452828	253.174126
2433.964276	253.786014
2435.477079	254.443357
2436.987968	256.539161
2438.498579	256.016783
2440.007278	258.318881
2441.518963	262.035664
2443.027105	260.459441
2444.534969	264.241958
2446.042555	268.467133
2447.546600	268.458042
2449.053631	264.377622
2450.558753	263.083217
2452.063598	258.510490
2453.566535	253.129371
2455.069197	247.659441
2456.571582	243.967832
2458.072062	239.792308
2459.573895	239.272727
2461.073824	236.300000
2462.573477	242.051049
2464.072854	245.387413
2465.570329	250.558741
2467.065902	249.576923
2468.564455	253.261538
2470.059480	249.267133
2471.555858	246.682517
2473.048708	242.805594
2474.542912	241.088112
2476.036842	238.965734
2477.527248	240.381818
2479.020632	239.417483
2480.512118	245.469930
2482.001707	247.269930
2483.491024	249.420280
2484.978446	247.211888
2486.468843	249.727972
2487.955721	247.579021
2489.443951	245.404196
2490.928665	242.036364
2492.413108	241.516783
2493.898903	241.667832
2495.382805	241.313287
2496.868059	244.131469
2498.348178	245.114685
2499.831271	243.076923
2501.312473	242.430769
2502.793406	241.386713
2504.272450	245.098601
2505.751225	245.765035
2507.229732	246.552448
2508.707971	246.049650
2510.185941	249.987413
2511.660407	251.434266
2513.137841	253.771329
2514.611772	254.302098
2516.087053	252.048951
2517.562068	249.893007
2519.033581	249.160140
2520.506444	244.941958
2521.977425	243.855245
2523.449756	242.800699
2524.916974	242.562937
2526.387157	242.361538
2527.855460	244.408392
2529.323498	245.978322
2530.791271	245.011888
2532.258779	243.620979
2533.726022	246.040559
2535.189773	245.038462
2536.654874	243.797902
2538.118098	242.916084
2539.582672	242.217483
2541.043756	244.015385
2542.506190	246.048951
2543.968361	244.986713
2545.427046	246.103497
2546.890303	246.293706
2548.348463	245.469231
2549.807972	244.748252
2551.262388	245.060839
2552.721373	245.343357
2554.178487	243.314685
2555.633730	246.174825
2557.088712	247.423776
2558.541824	250.222378
2559.996285	255.512587
2561.448877	255.011189
2562.901209	257.184615
2564.351673	255.132867
2565.805093	256.020280
2567.253431	253.283916
2568.704725	252.890210
2570.154152	248.910490
2571.600107	244.053147
2573.049018	241.929371
2574.494457	241.363636
2575.941245	241.837762
2577.386169	244.794406
2578.830835	242.953846
2580.276850	242.145455
2581.719397	242.500699
2583.163292	245.604895
2584.603722	246.774825
2586.045499	245.851748
2587.485417	241.537762
2588.926682	241.665035
2590.364486	239.262937
2591.805239	243.434266
2593.240929	244.009790
2594.679569	245.205594
2596.116352	245.360140
2597.551278	247.416084
2598.989153	248.593007
2600.421969	247.186713
2601.856133	244.086014
2603.288443	241.997203
2604.722099	239.241958
2606.153902	242.118881
2607.585452	241.615385
2609.016748	243.501399
2610.446192	241.762238
2611.875384	245.050350
2613.302726	245.609790
2614.731414	247.295804
2616.159849	242.931469
2617.584837	240.030769
2619.011172	237.213986
2620.435658	238.555944
2621.861490	239.552448
2623.283878	240.990210
2624.707612	239.367133
2626.129499	238.717483
2627.551137	239.836364
2628.970929	242.280420
2630.392067	239.641958
2631.812955	239.542657
2633.230405	236.100699
2634.650794	233.363636
2636.067746	231.290210
2637.484449	229.325175
2638.900905	229.054545
2640.317111	229.557343
2641.733070	231.400000
2643.147188	234.622378
2644.561059	239.172727
2645.973090	239.526573
2647.386466	241.267133
2648.796412	243.867133
2650.209293	241.434266
2651.618746	238.072028
2653.027954	235.720280
2654.435324	230.619580
2655.845630	232.295105
2657.254099	232.279720
2658.660733	233.107692
2660.067122	233.404196
2661.471677	235.738462
2662.877576	236.176224
2664.281642	236.755944
2665.685463	237.538462
2667.089041	232.760140
2668.490786	233.269231
2669.893875	231.909091
2671.293546	231.324476
2672.694561	232.081818
2674.092160	231.790210
2675.492689	230.934266
2676.889803	233.111189
2678.288260	232.707692
2679.684889	231.315385
2681.081276	231.840559
2682.477422	233.097203
2683.871741	230.167832
2685.267403	232.390909
2686.659655	230.648252
2688.053250	232.120280
2689.445022	230.148252
2690.838135	229.427972
2692.229425	228.018182
2693.618892	232.000000
2695.008119	230.161538
2696.397107	231.293706
2697.787437	234.681818
2699.172782	234.962238
2700.561051	231.247552
2701.947500	230.237063
2703.333710	225.255944
2704.719682	223.606993
2706.102254	222.057343
2707.486169	224.560839
2708.869846	227.700699
2710.253285	232.448252
2711.633328	232.585315
2713.014713	233.818881
2714.394282	234.596503
2715.775193	234.402098
2717.154288	232.390210
2718.531570	229.370629
2719.910193	225.009091
2721.287003	222.832867
2722.663577	222.602797
2724.039915	224.944056
2725.414441	226.859441
2726.790308	226.215385
2728.162788	224.604895
2729.538184	226.985315
2730.908620	225.918881
2732.280397	226.837762
2733.651939	227.034965
2735.021673	225.639161
2736.392748	224.171329
2737.762014	222.804196
2739.131048	224.009790
2740.498274	226.133566
2741.865268	226.161538
2743.232029	223.597902
2744.598557	224.937063
2745.963280	227.362238
2747.327772	224.455245
2748.692031	226.120979
2750.056058	224.276923
2751.419854	223.320979
2752.780276	222.404196
2754.143609	220.603497
2755.501999	218.482517
2756.863299	218.879720
2758.221228	218.312587
2759.582067	218.078322
2760.941105	217.225175
2762.296775	216.965734
2763.655353	215.392308
2765.010564	217.934266
2766.365547	215.266434
2767.718732	216.469930
2769.074824	216.169231
2770.427552	213.819580
2771.780051	213.451049
2773.132322	216.167133
2774.485932	216.100000
2775.836180	216.884615
2777.184635	214.650350
2778.535994	216.849650
2779.883994	217.839161
2781.233332	220.793007
2782.580879	218.698601
2783.928198	218.174126
2785.275291	218.127972
2786.620593	217.600000
2787.965669	215.818182
2789.310518	216.111888
2790.655142	215.211189
2791.996414	217.479720
2793.339024	217.810490
2794.681408	219.718881
2796.023568	220.809790
2797.362378	222.516783
2798.704087	219.036364
2800.042449	219.381119
2801.382148	218.786713
2802.720061	216.129371
2804.056190	214.203497
2805.392095	212.769231
2806.729338	208.169930
2808.064797	210.248951
2809.400033	209.133566
2810.733486	207.952448
2812.068277	207.467133
2813.399726	209.813287
2814.734071	209.065035
2816.063518	212.388112
2817.394302	212.486014
2818.724864	212.479021
2820.053647	213.648951
2821.383766	212.462937
2822.712107	212.627273
2824.040227	216.503497
2825.366569	213.984615
2826.694248	212.770629
2828.018593	210.380420
2829.344275	210.754545
2830.668181	207.692308
2831.991868	208.332168
2833.316890	207.660140
2834.638582	209.818881
2835.960056	210.639161
2837.281311	213.497203
2838.602347	214.133566
2839.921611	211.581119
2841.242210	207.588811
2842.561037	203.822378
2843.879646	198.306993
2845.196484	198.133566
2846.513105	197.974825
2847.829509	198.844755
2849.144144	198.069231
2850.460113	201.269231
2851.772762	203.067133
2853.086747	210.335664
2854.400514	210.222378
2855.714066	212.558741
2857.025850	214.195804
2858.335868	211.041259
2859.647221	212.762238
2860.955259	216.655245
2862.264632	219.053846
2863.573789	214.265035
2864.882731	206.830070
2866.189909	202.789510
2867.495325	200.114685
2868.802075	200.494406
2870.107062	198.154545
2871.411836	202.480420
2872.714848	203.356643
2874.020742	203.796503
2875.321780	209.170629
2876.624153	214.688811
2877.924766	216.496503
2879.226713	214.248252
2880.528447	211.250350
2881.826876	210.716783
2883.126640	209.371329
2884.424645	208.526573
2885.722439	207.292308
2887.018477	207.730769
2888.315848	205.540559
2889.611463	203.452448
2890.906867	202.123077
2892.202061	202.116783
2893.493956	198.588811
2894.788728	196.310490
2896.080203	193.881818
2897.373011	194.847552
2898.665609	193.429371
2899.954913	193.153147
2901.245549	191.754545
2902.534434	192.773427
2903.824652	193.513986
2905.111577	193.618881
2906.399836	197.708392
2907.686344	201.729371
2908.972645	201.776923
2910.258737	204.000699
2911.543081	204.437762
2912.830296	205.035664
2914.112685	202.546154
2915.396406	203.966434
2916.678381	201.923077
2917.960148	204.495804
2919.240171	202.353147
2920.523063	200.581818
2921.804210	202.688811
2923.082075	200.297902
2924.362809	199.650350
2925.640262	201.590210
2926.917509	199.584615
2928.193015	198.113287
2929.471388	196.863636
2930.744946	200.377622
2932.021372	197.780420
2933.296057	196.532867
2934.569002	191.097203
2935.843277	189.897902
2937.115813	189.104895
2938.388145	188.131469
2939.657203	192.368531
2940.929127	195.369231
2942.199313	195.840559
2943.469296	197.595804
2944.739075	194.923776
2946.007117	196.318881
2947.273424	192.670629
2948.539528	190.318881
2949.806962	190.193007
2951.072662	190.346154
2952.338159	190.086713
2953.603454	191.111189
2954.865484	194.180420
2956.128845	193.650350
2957.392003	192.652448
2958.653430	192.134266
2959.916186	187.843357
2961.177211	188.574126
2962.436504	186.484615
2963.695598	188.227972
2964.954491	190.418182
2966.213184	191.680420
2967.471677	193.842657
2968.728441	197.634965
2969.985005	200.548252
2971.239842	200.087413
2972.496007	199.300000
2973.748918	198.577622
2975.003158	197.062238
2976.257199	192.701399
2977.509514	189.426573
2978.761631	188.829371
2980.012022	186.483916
2981.265269	188.197902
2982.513739	187.744755
2983.765064	191.019580
2985.013139	187.061538
2986.261018	188.525874
2987.508699	188.053147
2988.756184	189.359441
2990.001946	188.421678
2991.247513	186.609790
2992.494407	187.390909
2993.738057	189.128671
2994.983035	190.769930
2996.224769	193.876923
2997.469355	196.253846
2998.712222	196.489510
2999.951848	193.955944
3001.194324	199.332867
3002.433561	198.172028
3003.674125	195.464336
3004.912972	191.669930
3006.151625	190.046853
3007.388562	188.350350
3008.626826	189.490210
3009.863376	189.003497
3011.099731	186.732867
3012.335893	185.925175
3013.570342	184.856643
3014.804597	189.130070
3016.038659	192.696503
3017.271009	190.865035
3018.501647	186.558042
3019.735131	185.579720
3020.966903	187.830070
3022.196965	185.634266
3023.426835	186.701399
3024.654995	183.080420
3025.884481	180.270629
3027.112259	178.369930
3028.339845	181.902797
3029.568757	184.183217
3030.792927	184.123776
3032.019940	184.085315
3033.243729	182.451049
3034.468845	184.044056
3035.692254	186.351748
3036.915473	184.089510
3038.136987	185.407692
3039.361343	184.306294
3040.580962	187.191608
3041.801908	185.197203
3043.022665	184.893007
3044.241718	182.113287
3045.462097	183.202797
3046.679259	183.197902
3047.897746	182.725874
3049.114531	180.479021
3050.331129	179.918881
3051.547538	179.576224
3052.760735	183.058741
3053.976769	184.565035
3055.189591	188.179021
3056.405250	185.983916
3057.616186	186.630769
3058.828447	188.953147
3060.040522	191.607692
3061.252410	190.262937
3062.462600	187.716783
3063.672604	185.004895
3064.882423	185.637762
3066.090545	185.897203
3067.298481	185.918881
3068.504723	183.105594
3069.712288	178.806294
3070.918160	173.844755
3072.123846	172.846154
3073.329347	173.355245
3074.533155	173.555245
3075.738287	171.210490
3076.941727	169.176923
3078.143474	172.370629
3079.345038	176.221678
3080.546417	177.904895
3081.747614	178.514685
3082.947119	176.336364
3084.146442	174.486713
3085.347088	175.504196
3086.546044	180.194406
3087.741806	183.311888
3088.940397	184.012587
3090.135794	181.288112
3091.332514	178.875524
3092.526042	180.411189
3093.722398	181.411888
3094.917068	179.397902
3096.108547	176.455944
3097.304357	174.255944
3098.495474	174.369930
3099.687913	174.253846
3100.877165	177.783217
3102.069243	178.424476
3103.259636	177.985315
3104.446844	177.040559
3105.635375	177.113287
3106.825228	178.140559
3108.011896	176.643357
3109.198385	172.489510
3110.384694	170.825175
3111.572325	170.006294
3112.756775	168.920979
3113.939544	168.723077
3115.125136	173.409091
3116.309049	175.118881
3117.491283	176.051748
3118.673338	174.386014
3119.855216	174.189510
3121.036915	170.810490
3122.216936	168.088112
3123.395281	165.744755
3124.576447	168.755245
3125.754437	167.316783
3126.932250	168.047552
3128.109886	170.180420
3129.285847	172.924476
3130.461631	173.793007
3131.638737	175.330769
3132.814168	172.639161
3133.987926	174.306294
3135.160012	172.889510
3136.333418	174.009091
3137.506649	175.272028
3138.678207	176.811888
3139.851086	175.053147
3141.020799	177.591608
3142.191831	176.788112
3143.361194	174.216783
3144.528887	169.883217
3145.699395	170.182517
3146.865244	166.334965
3148.035403	165.777622
3149.200904	165.341259
3150.366232	168.311189
3151.531386	170.235664
3152.696366	172.990909
3153.862667	171.468531
3155.024314	170.908392
3156.187282	164.720280
3157.350076	159.554545
3158.512698	154.376224
3159.673655	157.275524
3160.834439	155.747552
3161.995051	152.484615
3163.154000	155.458042
3164.312776	161.190909
3165.471381	164.716783
3166.629814	168.350350
3167.788075	166.699301
3168.944674	167.127273
3170.099612	164.658042
3171.255869	165.268531
3172.410466	164.586713
3173.564891	164.522378
3174.717657	159.530769
3175.870253	155.791608
3177.022678	159.992308
3178.174934	163.837063
3179.327019	164.564336
3180.475959	167.114685
3181.627705	167.589510
3182.777793	168.449650
3183.926225	169.532168
3185.074488	169.993007
3186.222581	168.201399
3187.370506	167.708392
3188.516776	165.080420
3189.662877	167.730070
3190.807323	168.737063
3191.951602	167.334266
3193.095713	164.581119
3194.241142	163.769930
3195.383431	164.025175
3196.525554	166.465734
3197.667509	165.948951
3198.809298	164.039161
3199.950919	163.891608
3201.089404	167.333566
3202.229207	165.162238
3203.370328	167.000000
3204.508314	163.553147
3205.644651	161.203497
3206.780822	157.973427
3207.918311	157.965035
3209.054150	156.996503
3210.191307	156.206294
3211.323851	152.332168
3212.460677	152.429371
3213.592891	153.162937
3214.726422	156.518881
3215.859789	154.937762
3216.990028	156.589510
3218.123065	157.588112
3219.252976	160.084615
3220.384203	157.076923
3221.512306	157.869231
3222.643205	156.864336
3223.772460	155.811189
3224.900072	154.796503
3226.024562	154.436364
3227.153326	154.521678
3228.278970	158.583916
3229.404450	153.699301
3230.528289	155.087413
3231.654922	156.576224
3232.776958	156.618881
3233.900310	153.702098
3235.023500	158.424476
3236.146528	160.953147
3237.267916	159.400699
3238.389143	159.802797
3239.508731	159.561538
3240.628158	162.392308
3241.745947	162.236364
3242.866529	155.804895
3243.983996	157.151049
3245.101303	153.701399
3246.218450	153.355245
3247.333961	153.522378
3248.450787	155.551049
3249.564502	152.746853
3250.681007	151.612587
3251.795878	154.826573
3252.907640	157.861538
3254.019243	156.902098
3255.132160	156.582517
3256.244919	156.211888
3257.354571	154.768531
3258.465537	153.325175
3259.576345	156.308392
3260.685522	156.405594
3261.793067	154.597902
3262.901926	152.824476
3264.010628	156.516084
3265.116227	159.250350
3266.223140	160.006993
3267.328424	159.714685
3268.435023	162.183916
3269.538521	159.613287
3270.643333	158.582517
3271.747988	158.532168
3272.849544	160.810490
3273.950945	159.776224
3275.053659	157.218881
3276.156216	157.353846
3277.255677	157.225175
3278.357922	154.281119
3279.457071	152.693007
3280.554596	156.091608
3281.651965	155.634266
3282.752117	153.706294
3283.849175	153.718881
3284.946078	149.824476
3286.042826	149.110490
3287.135016	148.573427
3288.231454	148.306294
3289.326270	148.932168
3290.420932	149.174126
3291.513972	149.440559
3292.606858	152.396503
3293.698123	158.102797
3294.790701	159.641259
3295.881658	158.625175
3296.970996	154.960839
3298.060181	151.312587
3299.150679	151.479720
3300.238092	150.957343
3301.325353	150.745455
3302.413926	152.374126
3303.502346	154.825874
3304.586219	153.684615
3305.674334	154.737762
3306.759368	156.249650
3307.842785	155.879021
3308.927515	151.938462
3310.010630	150.156643
3311.095056	149.981818
3312.176404	148.906993
3313.259064	145.146154
3314.340110	146.488811
3315.421005	148.657343
3316.500286	147.355245
3317.579418	144.165035
3318.659860	146.560140
3319.737229	146.369930
3320.815908	146.558741
3321.892977	146.216783
3322.969895	146.994406
3324.045202	146.332168
3325.120360	146.946154
3326.196829	144.116783
3327.270228	146.841958
3328.343478	144.610490
3329.418038	144.334266
3330.490990	144.088112
3331.562333	145.823776
3332.634988	145.291608
3333.704575	148.223077
3334.775473	148.660839
3335.844764	148.423077
3336.915366	150.944755
3337.984361	153.115385
3339.051750	149.751748
3340.117534	150.204895
3341.187544	148.520979
3342.254491	150.596503
3343.318376	148.237063
3344.385029	148.051049
3345.450077	150.337762
3346.513522	150.445455
3347.576821	147.388811
3348.639973	146.734965
3349.702979	148.925175
3350.765839	148.526573
3351.827097	145.179021
3352.885298	144.090210
3353.947720	143.935664
3355.007085	145.823077
3356.066305	145.732168
3357.126835	147.073427
3358.182855	148.581119
3359.241640	146.970629
3360.295917	143.805594
3361.352957	145.261538
3362.408400	144.008392
3363.465151	142.758042
3364.520304	137.890909
3365.573861	135.139860
3366.625820	134.948252
3367.680541	137.353846
3368.732213	136.737063
3369.783742	141.637762
3370.836579	143.546154
3371.886369	144.573427
3372.937468	143.580420
3373.985521	143.024476
3375.036334	139.325175
3376.084101	139.061538
3377.131726	135.734965
3378.179208	132.604895
3379.225098	131.630769
3380.272296	132.516783
3381.316452	133.479720
3382.363366	137.649650
3383.408688	137.887413
3384.450969	138.172727
3385.493110	139.191608
3386.536558	139.135664
3387.579866	138.802797
3388.621583	143.174825
3389.663159	142.516084
3390.704595	142.675524
3391.744441	144.584615
3392.782700	145.232168
3393.822266	146.072028
3394.861691	143.577622
3395.899529	143.618182
3396.935780	143.696503
3397.971892	145.607692
3399.009311	145.716084
3400.043697	146.812587
3401.079390	149.546853
3402.114944	148.820979
3403.147467	150.699301
3404.182743	147.859441
3405.214988	147.662238
3406.247095	146.156643
3407.277618	142.066434
3408.309448	140.232867
3409.341140	142.350350
3410.369805	140.789510
3411.398331	140.714685
3412.428165	140.135664
3413.457860	140.386014
3414.484530	141.281119
3415.512507	141.453147
3416.537459	140.421678
3417.565161	142.524476
3418.589840	139.511888
3419.615825	140.424476
3420.640230	141.487413
3421.664499	141.448951
3422.687189	138.230769
3423.709743	138.923776
3424.733603	140.721678
3425.754443	140.255944
3426.775148	139.552148
3427.797158	138.477672
3428.816150	137.041259
3429.835007	135.251648
3430.855169	133.117582
3431.872315	130.647802
