-118.187858	4.612637
-115.518258	0.932967
-112.851593	-0.882018
-110.185680	-1.229171
-107.522699	-0.505345
-104.858289	0.892607
-102.196809	2.567832
-99.533899	1.960140
-96.876097	2.935664
-94.216864	3.234266
-91.558380	3.971329
-88.902821	3.990210
-86.245833	2.310490
-83.593942	1.427972
-80.940622	1.721678
-78.290222	1.903497
-75.638392	3.486014
-72.991653	3.891608
-70.343484	4.459441
-67.696059	4.569930
-65.051547	6.101399
-62.405607	7.831469
-59.764748	7.900699
-57.122460	7.467832
-54.483080	5.144056
-51.842272	7.216084
-49.202204	7.273427
-46.567208	8.304196
-43.930783	8.948951
-41.297262	9.024476
-38.662312	8.790909
-36.032427	11.230769
-33.398950	14.150350
-30.770535	14.585315
-28.142853	12.788811
-25.513744	7.441958
-22.889691	-23.172727
-20.262049	-124.130769
-17.639460	-287.551049
-15.017602	-440.408392
-12.396476	253.320280
-9.776079	1515.652448
-7.158570	2612.785315
-4.539633	3386.719580
-1.923582	3830.020979
0.691741	3942.074825
3.306337	3725.206993
5.918050	3183.679720
8.531192	2330.712587
11.139300	1237.258741
13.750990	131.625874
16.357649	-607.529371
18.965736	-420.844056
21.573099	-64.934266
24.175437	4.298601
26.781353	3.506993
29.382247	1.975524
31.984570	1.502098
34.581874	3.779720
37.182754	6.812587
39.778620	6.347552
42.375913	7.155245
44.972487	7.279720
47.564052	8.960839
50.157045	9.615385
52.747177	7.930070
55.338737	7.537063
57.927437	6.501399
60.517564	6.742657
63.102693	5.141958
65.689249	7.702797
68.275090	6.694406
70.858078	3.899301
73.442493	4.407692
76.019778	3.560839
78.600630	3.752448
81.178633	5.413287
83.755926	5.203497
86.334645	7.008392
88.908383	7.039161
91.483547	7.357343
94.055868	5.909091
96.627481	6.422378
99.196255	4.720280
101.766455	2.143357
104.333816	2.876923
106.902604	2.814685
109.468554	5.106993
112.031670	7.684615
114.598342	8.923077
117.155793	9.804895
119.718929	11.650350
122.277106	14.325175
124.838836	20.426573
127.395611	30.683916
129.953811	46.220280
132.507059	66.283916
135.059608	97.874825
137.615708	128.383916
140.166861	161.377622
142.717315	192.223077
145.267073	219.360839
147.814011	238.919580
150.360253	251.781119
152.907922	257.925175
155.454894	260.741259
157.996930	257.827972
160.538273	254.632867
163.078924	251.328671
165.620999	251.357343
168.160264	246.415385
170.696719	245.745455
173.232484	245.572727
175.769674	246.359441
178.306172	244.591608
180.839865	244.004196
183.370755	247.658042
185.900956	247.820280
188.432582	249.150350
190.961407	248.553846
193.487433	249.701399
196.012774	249.188112
198.539539	249.434266
201.063508	251.546853
203.586791	250.297902
206.109390	252.588112
208.629196	251.572028
211.148319	251.172028
213.666759	253.358042
216.186623	257.495804
218.699486	261.693007
221.215880	266.226573
223.731592	274.008392
226.242415	277.588112
228.754662	286.066434
231.264126	288.505594
233.772912	288.592308
236.281020	290.153846
238.790551	286.124476
241.295203	284.281119
243.799178	284.538462
246.304577	286.559441
248.805101	286.772727
251.309148	293.453846
253.806225	296.671329
256.306824	298.292308
258.804652	303.230769
261.301807	303.694406
263.798289	306.069231
266.289909	306.708392
268.785047	306.222378
271.277420	308.995804
273.769122	309.598601
276.258061	310.020280
278.748423	312.337063
281.236024	316.297203
283.720865	316.528671
286.209220	319.356643
288.690636	324.673427
291.175566	332.829371
293.655651	339.255944
296.139248	345.500699
298.618002	351.280420
301.098180	355.458042
303.575605	356.946853
306.052367	357.690909
308.528466	360.053846
311.001816	361.819580
313.474504	363.400000
315.946531	365.482517
318.417897	367.464336
320.886519	368.587413
323.354481	364.208392
325.823866	358.723077
328.288428	350.474126
330.756493	343.383217
333.219739	334.926573
335.682328	330.001399
338.144259	327.497902
340.605534	324.375524
343.064075	324.411888
345.524038	324.058042
347.981269	326.824476
350.437844	325.037762
352.893766	322.454545
355.346959	321.039161
357.801573	318.309790
360.251386	319.500699
362.704696	317.741958
365.153206	318.469231
367.601066	316.701399
370.050347	313.394406
372.494835	313.230070
374.940745	311.320979
377.386006	310.951748
379.828548	307.771329
382.270442	304.920979
384.711688	303.294406
387.150219	299.510490
389.590172	298.830070
392.027411	300.516783
394.461938	299.232867
396.899953	298.675524
399.333191	298.327273
401.767851	298.971329
404.197737	297.626573
406.631109	296.976224
409.059711	296.509091
411.487672	295.716084
413.917053	293.367133
416.341669	292.427972
418.767707	294.196503
421.193104	297.672727
423.617861	299.227972
426.037860	300.754545
428.459280	301.302797
430.878003	303.626573
433.298147	303.684615
435.715596	304.364336
438.134465	304.186713
440.550641	301.188811
442.962070	294.800699
445.376975	289.881818
447.789190	286.703497
450.200771	284.134266
452.611718	280.102098
455.019979	275.252448
457.427607	271.070629
459.834604	274.118182
462.240968	274.688112
464.644650	277.273427
467.047702	279.341259
469.450124	281.704196
471.851917	284.367832
474.251031	288.580420
476.651565	295.969930
479.051470	302.455245
481.446652	310.111888
483.845301	318.681818
486.239230	324.455245
488.632533	335.120979
491.025210	342.380420
493.417262	348.100699
495.810733	349.572727
498.199491	344.553147
500.585583	312.430070
502.973095	244.615385
505.359983	263.939860
507.744208	745.895105
510.129852	1815.271329
512.512833	3149.208392
514.893154	4339.180420
517.274894	5187.886014
519.653975	5626.779021
522.034475	5632.784615
524.412317	5205.713287
526.787504	4374.789510
529.162073	3214.320979
531.538061	1909.499301
533.911395	816.020280
536.286148	304.045455
538.656214	276.466434
541.025665	372.209790
543.396535	396.640559
545.762723	380.433566
548.130330	362.397902
550.495291	345.104895
552.859639	331.384615
555.223375	317.514685
557.588528	304.123077
559.949008	290.304895
562.310907	280.877622
564.670166	271.301399
567.026786	261.709790
569.386851	253.686713
571.740226	248.662238
574.097045	244.227273
576.451228	244.275524
578.804804	241.868531
581.157771	243.558042
583.508107	244.347552
585.859859	242.197902
588.204935	241.614685
590.555475	242.055944
592.899342	241.344056
595.248669	242.412587
597.593349	240.932867
599.935404	241.271329
602.278875	241.248252
604.619724	243.392308
606.959971	242.532867
609.297597	243.493007
611.638658	244.213287
613.975082	244.441958
616.312922	247.320280
618.648144	245.507692
620.980751	243.015385
623.314775	239.919580
625.646184	233.653846
627.976995	231.074825
630.307208	228.072727
632.636823	227.766434
634.961816	225.079720
637.292250	225.914685
639.618062	226.195804
641.941268	227.622378
644.265889	227.644755
646.587906	224.827972
648.909328	224.465035
651.228147	223.097203
653.548382	222.716084
655.868024	221.937063
658.185065	221.944755
660.501515	223.625874
662.815366	223.320979
665.130632	224.083217
667.443302	225.264336
669.757387	226.651748
672.066872	227.727972
674.377773	228.517483
676.686081	228.939860
678.993801	226.902098
681.302936	224.756643
683.607478	219.033566
685.911434	215.798601
688.214803	210.255245
690.519587	206.413287
692.819785	201.203497
695.121398	199.927972
697.422425	198.852448
699.718870	200.359441
702.016731	201.651748
704.314008	199.112587
706.610702	199.979021
708.902820	200.652448
711.198349	199.797203
713.489305	198.836364
715.781675	199.835664
718.071469	199.820979
720.360684	199.832168
722.649318	200.235664
724.935381	202.733566
727.222857	203.751748
729.507763	204.088112
731.792090	202.579720
734.073849	205.533566
736.357023	204.634266
738.639618	203.958042
740.917659	205.079720
743.197113	207.037762
745.475992	205.197902
747.754295	204.820280
750.028049	203.654545
752.303217	206.046154
754.577811	205.340559
756.849846	204.908392
759.123293	204.413986
761.394183	205.748252
763.662517	205.546154
765.932264	206.427273
768.199457	208.793706
770.466079	209.023077
772.732132	206.835664
774.995632	207.896503
777.260546	208.151049
779.524890	210.808392
781.784705	213.348951
784.045933	213.590909
786.306593	215.390210
788.564706	217.233566
790.820275	217.327273
793.079235	218.991608
795.331696	220.704895
797.589524	222.653147
799.842832	220.902797
802.093601	222.267133
804.345782	220.316783
806.595425	221.461538
808.846479	223.095804
811.093022	222.584615
813.340978	222.207692
815.586398	220.974825
817.833230	218.474126
820.079501	220.024476
822.321268	219.839860
824.566417	219.855944
826.805094	218.553846
829.047154	219.917483
831.284715	217.047552
833.523687	216.032168
835.760133	215.553147
837.997991	213.986014
840.233323	214.476923
842.466131	213.455245
844.700351	212.386713
846.932049	213.039860
849.163192	213.447552
851.393780	214.251049
853.623814	215.542657
855.853293	218.148252
858.078291	216.839161
860.306664	216.281119
862.530558	215.956643
864.755862	213.917483
866.976691	212.526573
869.200892	211.256643
871.420620	208.440559
873.641759	206.848252
875.862347	208.874126
878.080425	208.779021
880.299914	208.990909
882.514936	211.853846
884.729410	211.395804
886.943337	212.645455
889.156716	213.548951
891.369549	213.351748
893.581834	213.580420
895.791618	215.825175
898.000856	216.865734
900.209548	217.660839
902.415742	220.279720
904.623345	216.902797
906.828451	215.418182
909.033013	214.141958
911.235079	212.996503
913.438555	212.845455
915.639537	212.735664
917.839978	213.530070
920.041827	216.007692
922.237284	223.302797
924.436101	233.137063
926.630480	249.651049
928.828215	268.997902
931.021515	291.657343
933.216224	318.611888
935.408447	343.393706
937.600132	367.806294
939.791279	386.053147
941.979943	399.172028
944.168070	408.443357
946.353717	411.370629
948.542716	412.422378
950.727292	410.511189
952.911333	413.162238
955.098724	415.064336
957.277812	421.166434
959.460249	425.304196
961.642153	427.096503
963.821583	433.648951
965.998540	435.772028
968.176905	437.204895
970.356676	440.027972
972.530099	439.067832
974.706868	438.684615
976.879231	437.458042
979.053000	435.621678
981.222366	431.651049
983.395077	424.900000
985.565321	410.995804
987.735037	393.984615
989.904224	376.974825
992.069014	356.283916
994.237145	338.186713
996.400882	320.930769
998.566025	305.717483
1000.728710	296.909790
1002.890868	288.718182
1005.050570	285.117483
1007.209748	280.800000
1009.370332	277.351748
1011.528461	272.641259
1013.686066	269.404196
1015.843148	264.002797
1017.999707	261.891608
1020.151886	257.388811
1022.305471	251.318182
1024.458535	248.165035
1026.609151	246.762937
1028.761172	244.803497
1030.908820	245.218881
1033.059800	242.587413
1035.206409	240.858741
1037.352500	239.138462
1039.498071	237.260839
1041.645048	233.167832
1043.785737	229.088112
1045.929754	225.968531
1048.071331	223.694406
1050.212392	224.832867
1052.354857	225.755944
1054.491043	227.781818
1056.630555	228.599301
1058.765711	227.241958
1060.904192	226.161538
1063.038320	224.970629
1065.171933	224.189510
1067.306952	221.130769
1069.437621	220.601399
1071.569695	222.998601
1073.699340	223.313287
1075.828473	224.550350
1077.957094	224.439161
1080.085204	222.523077
1082.210888	218.883916
1084.336062	217.488112
1086.462640	216.461538
1088.584881	215.196503
1090.708525	213.897203
1092.827836	211.937762
1094.952375	212.124476
1097.070669	210.836364
1099.190368	211.474825
1101.307648	211.534266
1103.424422	210.028671
1105.540689	208.072727
1107.654541	206.972028
1109.769796	208.671329
1111.880729	207.528671
1113.994973	206.018881
1116.104897	202.183916
1118.216225	199.506294
1120.327049	197.583217
1122.433556	197.752448
1124.543372	200.122378
1126.648874	198.888811
1128.755779	196.748252
1130.856469	195.900000
1132.962371	196.256643
1135.063964	197.464336
1137.166960	196.001399
1139.269455	196.412587
1141.365744	195.904895
1143.467239	198.297902
1145.564432	199.487413
1147.661126	202.804895
1149.757323	201.250350
1151.853021	198.688112
1153.948222	196.199301
1156.041026	193.393007
1158.135232	192.933566
1160.223247	192.304895
1162.316460	191.572028
1164.403485	192.769930
1166.493810	192.669930
1168.579846	193.488112
1170.669180	191.881119
1172.752333	191.816783
1174.836889	189.073427
1176.922845	188.134965
1179.004520	187.368531
1181.087597	185.813287
1183.168288	187.861538
1185.248487	190.451748
1187.328195	192.421678
1189.407412	194.283217
1191.484247	195.867133
1193.558701	197.521678
1195.636447	196.525175
1197.709922	198.686713
1199.784798	197.273427
1201.855407	194.330769
1203.927418	192.616783
1205.997052	191.296503
1208.068087	191.162937
1210.138634	190.562937
1212.204920	191.162937
1214.272607	190.586713
1216.337922	191.890909
1218.404637	189.225874
1220.467096	188.145455
1222.532840	187.176224
1224.594331	185.303497
1226.657221	184.144755
1228.717744	183.948252
1230.777784	184.626573
1232.837340	181.244056
1234.894531	183.260140
1236.951241	185.744755
1239.005588	185.790210
1241.063215	188.116783
1243.118480	187.171329
1245.169504	188.406993
1247.221928	186.803497
1249.273873	187.911189
1251.323458	188.626573
1253.372565	188.799301
1255.421194	188.135664
1257.469344	186.034965
1259.517016	189.062238
1261.560457	190.316084
1263.607173	189.747552
1265.651537	190.759441
1267.695423	191.132168
1269.736959	190.335664
1271.776145	188.709091
1273.818603	189.386713
1275.856839	191.021678
1277.896474	190.393706
1279.935634	190.673427
1281.970576	191.780420
1284.006916	190.089510
1286.040911	189.261538
1288.076305	188.048252
1290.107485	187.704196
1292.140064	185.519580
1294.172170	186.881818
1296.201936	186.978322
1298.233100	186.965734
1300.260056	187.275524
1302.288410	186.409091
1304.312560	186.051049
1306.339974	186.589510
1308.363187	183.683916
1310.387796	181.700699
1312.410072	182.710490
1314.433745	182.367832
1316.455085	182.283217
1318.475957	185.500000
1320.496363	182.837762
1322.512574	182.513287
1324.530184	184.869231
1326.545465	184.748252
1328.564005	184.458741
1330.578355	184.542657
1332.590380	184.502098
1334.605662	183.281119
1336.616759	182.655944
1338.629253	180.823077
1340.637564	179.604895
1342.649131	178.614685
1344.654658	174.786014
1346.663441	177.042657
1348.668046	179.413287
1350.675905	179.704895
1352.683302	180.467133
1354.684668	181.472727
1356.687431	184.104895
1358.689733	182.814685
1360.691576	183.325874
1362.692960	185.415385
1364.692029	185.411888
1366.690640	184.502098
1368.688793	184.334965
1370.686488	185.688811
1372.680019	183.253846
1374.674947	183.474126
1376.669418	183.561538
1378.663432	182.927972
1380.655139	183.304196
1382.646390	183.194406
1384.635336	184.332867
1386.625677	186.093706
1388.615563	185.784615
1390.603146	183.143357
1392.590275	182.593706
1394.575102	179.855245
1396.561323	177.653147
1398.545245	179.993007
1400.528714	181.613287
1402.511731	185.577622
1404.492450	186.231469
1406.474563	187.539161
1408.454379	187.361538
1410.433745	186.842657
1412.408971	185.359441
1414.387437	183.553147
1416.363609	183.170629
1418.339331	180.766434
1420.314604	181.076224
1422.287586	182.792308
1424.260120	182.535664
1426.232207	185.439161
1428.203845	184.078322
1430.171355	184.997203
1432.143940	184.575524
1434.108718	184.037762
1436.078569	182.460140
1438.044295	183.613986
1440.011415	182.949650
1441.976250	182.068531
1443.936967	182.265035
1445.902751	183.223077
1447.862580	182.104895
1449.823802	183.976923
1451.786417	185.742657
1453.744917	186.637063
1455.702975	186.037762
1457.660590	186.551748
1459.617764	183.889510
1461.572662	184.017483
1463.528952	182.855245
1465.482968	184.413986
1467.436544	184.557343
1469.387847	184.930070
1471.340542	185.384615
1473.290966	185.523776
1475.240951	184.579021
1477.190496	185.637063
1479.137773	185.118182
1481.082783	185.394406
1483.029184	184.821678
1484.975149	184.950350
1486.920675	183.562238
1488.863937	184.374825
1490.806762	182.879021
1492.747324	180.541958
1494.689277	181.247552
1496.628969	180.960839
1498.568225	180.072727
1500.507047	181.958042
1502.443608	182.503497
1504.381561	182.271329
1506.317256	181.768531
1508.252517	181.435664
1510.185521	178.341958
1512.118093	176.510490
1514.050233	174.708392
1515.981941	173.425874
1517.911395	174.944755
1519.842240	176.267133
1521.772654	175.059441
1523.698995	174.104196
1525.626726	174.291608
1527.552207	176.406294
1529.477259	175.313986
1531.401882	177.334266
1533.326076	176.716783
1535.248023	176.380420
1537.171359	177.845455
1539.092450	180.103497
1541.011296	180.577622
1542.931532	181.502797
1544.849524	181.283217
1546.767090	180.286014
1548.682414	180.672727
1550.599128	181.911888
1552.511787	179.065734
1554.427650	180.962238
1556.341273	179.365734
1558.252659	180.985315
1560.165433	182.269930
1562.074158	182.600000
1563.984273	179.997902
1565.893964	178.379720
1567.803231	178.125874
1569.710265	175.334965
1571.615066	174.754545
1573.521256	174.065734
1575.425214	172.579720
1577.328752	174.995804
1579.231868	176.132867
1581.132756	179.759441
1583.035031	179.859441
1584.935079	180.655245
1586.836515	180.118881
1588.733916	180.928671
1590.630899	181.987413
1592.527464	182.306294
1594.425417	185.117483
1596.317535	185.256643
1598.212846	185.372028
1600.107740	185.107692
1602.000412	180.913986
1603.892668	177.944056
1605.782704	175.277622
1607.672324	172.956643
1609.561529	170.837063
1611.450318	170.330769
1613.336891	169.561538
1615.224850	171.839860
1617.108793	173.467832
1618.994124	175.604196
1620.879040	176.603497
1622.761744	175.387413
1624.645833	174.286713
1626.525912	175.570629
1628.407377	176.686014
1630.286632	177.034965
1632.167273	175.107692
1634.042110	175.783916
1635.921929	174.920979
1637.797742	175.860140
1639.673145	175.140559
1641.549935	174.625874
1643.420927	174.730769
1645.295101	175.444056
1647.165277	178.551049
1649.038633	178.748252
1650.909786	179.941259
1652.778737	181.988112
1654.649074	180.683916
1656.515417	180.574126
1658.383146	177.978322
1660.248677	177.188811
1662.115592	175.846853
1663.978519	172.973427
1665.842831	174.490210
1667.704947	172.805594
1669.566659	173.883916
1671.429755	173.748951
1673.290657	175.425874
1675.149365	176.056643
1677.007670	175.951049
1678.867360	174.227273
1680.721283	175.623077
1682.578378	174.769930
1684.435071	174.490909
1686.287788	173.470629
1688.143676	171.260140
1689.995589	169.851748
1691.847102	170.198601
1693.698215	170.471329
1695.548926	169.898601
1697.399237	169.393007
1699.247364	169.403497
1701.096874	168.404895
1702.940636	170.037063
1704.789348	168.539860
1706.632313	169.780420
1708.478444	170.321678
1710.320614	169.079021
1712.165948	169.874825
1714.005542	167.653147
1715.846520	166.348252
1717.688881	165.532867
1719.527286	164.530769
1721.367074	163.613287
1723.204687	163.023776
1725.041904	163.206993
1726.876948	163.995105
1728.713375	166.222378
1730.547630	167.688811
1732.381490	167.051748
1734.214957	167.316783
1736.044477	163.539860
1737.877156	161.388112
1739.705891	161.170629
1741.537784	161.432867
1743.365734	161.815385
1745.193292	159.689510
1747.020458	160.236364
1748.847233	162.475524
1750.673617	164.616783
1752.496064	165.735664
1754.321665	167.954545
1756.143332	169.029371
1757.966381	166.611189
1759.787269	165.341259
1761.607767	164.720280
1763.429647	164.049650
1765.245827	162.650350
1767.065159	159.312587
1768.880564	159.449650
1770.699119	160.753846
1772.513749	159.064336
1774.327993	160.728671
1776.141849	163.268531
1777.955319	162.836364
1779.766636	162.981818
1781.579334	161.200000
1783.391645	160.549650
1785.200039	162.895804
1787.009814	161.500699
1788.815673	162.621678
1790.624679	164.291608
1792.429771	164.568531
1794.236243	163.683916
1796.042332	165.395105
1797.844511	165.765734
1799.649833	166.177622
1801.451247	165.586713
1803.254041	165.006993
1805.052929	164.841259
1806.853198	165.636364
1808.653085	163.923776
1810.450831	166.472028
1812.248196	164.791608
1814.045180	160.667133
1815.841784	159.203497
1817.636249	158.218881
1819.432093	157.139161
1821.222283	154.606294
1823.017369	152.500000
1824.806802	152.255944
1826.599372	153.161538
1828.389807	155.900699
1830.178108	157.511189
1831.969544	157.328671
1833.755334	155.949650
1835.542504	158.151748
1837.327542	158.862238
1839.115714	161.157343
1840.900000	161.291608
1842.682157	159.966434
1844.465692	160.941259
1846.247099	163.690909
1848.029885	164.885315
1849.808791	165.879021
1851.589075	161.986713
1853.367233	158.973427
1855.146770	155.679021
1856.924182	155.937063
1858.699470	153.089510
1860.476137	152.898601
1862.250681	152.702797
1864.026602	151.525874
1865.796904	153.021678
1867.570332	156.260140
1869.341641	156.202797
1871.112580	157.372028
1872.884895	155.755944
1874.651598	156.325175
1876.421425	157.257343
1878.187389	158.806993
1879.956477	158.934965
1881.721703	157.623776
1883.486561	159.388811
1885.252795	157.721678
1887.015171	157.376923
1888.777180	156.812587
1890.538822	154.237762
1892.300096	154.102797
1894.061003	154.146154
1895.821544	154.359441
1897.579975	156.929371
1899.338041	157.393706
1901.093998	156.980420
1902.851333	157.020280
1904.608301	160.238462
1906.363164	160.177622
1908.115921	158.536364
1909.868315	159.338462
1911.622084	159.016783
1913.373750	159.269930
1915.123314	158.974126
1916.874254	157.395804
1918.624830	156.687413
1920.371568	155.786713
1922.119681	152.266434
1923.865695	152.167832
1925.613085	151.913287
1927.358376	151.616084
1929.101570	150.709790
1930.846140	153.164336
1932.588613	153.590210
1934.330726	153.343357
1936.072479	152.927972
1937.813873	151.797902
1939.553173	151.259441
1941.292114	151.782517
1943.030696	149.488811
1944.767186	150.782517
1946.503319	150.788112
1948.240826	150.816783
1949.974512	152.220280
1951.709571	153.565035
1953.442543	153.462937
1955.175158	153.385315
1956.907416	151.773427
1958.639318	152.265035
1960.369134	153.227972
1962.096866	154.009790
1963.825971	154.135664
1965.554722	155.544755
1967.281389	156.598601
1969.007702	158.104895
1970.735388	159.289510
1972.457538	157.141958
1974.182789	155.832867
1975.904234	156.398601
1977.628778	154.404895
1979.351243	155.849650
1981.069904	154.508392
1982.791664	155.056643
1984.509622	155.561538
1986.228954	154.914685
1987.944485	156.126573
1989.664838	155.707692
1991.381391	152.898601
1993.094149	153.290210
1994.810002	154.172727
1996.523782	155.882517
1998.237213	155.669930
1999.948573	157.613287
2001.661306	156.453147
2003.370247	156.678322
2005.082282	155.988112
2006.788807	153.155944
2008.498425	155.172028
2010.205975	155.137063
2011.913178	155.834965
2013.618315	159.691608
2015.323105	159.986713
2017.029267	159.911189
2018.731647	160.254545
2020.435399	159.116783
2022.137087	157.305594
2023.838431	156.682517
2025.539429	155.947552
2027.238367	155.730070
2028.938675	158.637762
2030.635209	157.772727
2032.333114	155.530070
2034.028961	156.462937
2035.727892	155.429371
2037.421338	157.066434
2039.116156	157.100000
2040.810630	157.578322
2042.501336	159.322378
2044.195126	160.525874
2045.885149	161.976923
2047.576543	160.956643
2049.265884	159.752448
2050.956595	158.321678
2052.643544	153.928671
2054.330152	152.443357
2056.018131	150.679720
2057.702350	152.357343
2059.387939	152.393706
2061.073189	153.953147
2062.756391	152.754545
2064.440962	154.106294
2066.120071	155.700000
2067.803965	155.856643
2069.482399	159.841259
2071.163909	160.877622
2072.841669	157.051748
2074.519091	155.401399
2076.197884	152.434965
2077.874633	152.239161
2079.549341	150.978322
2081.225418	148.569231
2082.899455	147.080420
2084.573156	149.076923
2086.246522	151.306993
2087.917850	154.695105
2089.588843	158.672028
2091.259502	160.293007
2092.929826	161.014685
2094.599817	162.469930
2096.267772	160.148252
2097.935394	159.986014
2099.600982	157.599301
2101.267938	157.216783
2102.932861	154.115385
2104.597451	154.511189
2106.260010	154.047552
2107.923937	155.771329
2109.585834	156.423776
2111.247399	157.493706
2112.908634	159.307692
2114.567839	159.224476
2116.226715	157.039161
2117.885260	156.947552
2119.543476	156.131469
2121.197968	156.377622
2122.855525	153.402797
2124.512753	153.827972
2126.166259	154.800000
2127.821133	158.025874
2129.472289	157.793007
2131.126506	156.721678
2132.777007	158.131469
2134.428874	157.551049
2136.075333	155.366434
2137.726547	153.912587
2139.374047	154.316084
2141.022914	154.025874
2142.669763	151.465035
2144.316285	151.915385
2145.962482	153.960839
2147.604971	156.484615
2149.250518	155.569231
2150.892358	153.432168
2152.537255	155.741958
2154.178447	154.900699
2155.819315	152.489510
2157.459860	153.823077
2159.098392	153.639161
2160.738290	153.266434
2162.374488	151.725175
2164.012052	150.625175
2165.649293	148.213287
2167.284525	148.479021
2168.919436	147.770629
2170.554025	147.476224
2172.188292	148.055245
2173.818867	148.837762
2175.452492	149.164336
2177.082426	150.205594
2178.713725	149.111189
2180.343020	151.067133
2181.971994	149.211189
2183.600650	146.645455
2185.228986	145.634965
2186.855319	147.125175
2188.481334	147.108392
2190.105348	146.470629
2191.730726	145.418881
2193.354105	147.600699
2194.978847	146.185315
2196.599909	145.702098
2198.220654	143.755944
2199.842764	143.290210
2201.462876	142.081818
2203.080991	143.209091
2204.698791	144.769930
2206.316276	146.546154
2207.933445	146.736364
2209.550299	148.013287
2211.166838	147.698601
2212.781383	149.011189
2214.393936	148.327273
2216.007853	146.627972
2217.619779	144.404895
2219.233068	144.263636
2220.844367	143.638462
2222.453676	143.346853
2224.064349	140.588112
2225.673033	141.809790
2227.281405	142.760140
2228.887789	144.684615
2230.495537	144.990909
2232.101298	145.805594
2233.706748	146.870629
2235.310214	147.879021
2236.915042	149.661538
2238.517886	149.176923
2240.118747	147.227273
2241.720971	146.045455
2243.321212	143.684615
2244.922816	145.425874
2246.520768	145.228671
2248.120082	144.781818
2249.717416	144.516084
2251.314442	145.848951
2252.912829	147.008392
2254.507568	146.579021
2256.100331	147.795804
2257.694455	148.735664
2259.289941	147.820280
2260.881783	147.815385
2262.473318	147.869930
2264.066214	148.188112
2265.653801	146.262937
2267.246085	144.748252
2268.833061	144.302797
2270.423066	146.063636
2272.007766	142.818881
2273.597160	142.845455
2275.181251	144.635664
2276.766704	144.622378
2278.350187	141.183916
2279.936697	142.165734
2281.519573	141.954545
2283.102145	141.825524
2284.684414	141.468531
2286.263054	140.888462
2287.844717	141.574126
2289.422752	142.395455
2291.003810	140.520979
2292.581242	140.903147
2294.156710	139.131469
2295.735199	138.275175
2297.310065	138.618881
2298.884630	139.133916
2300.458895	135.494406
2302.032859	134.668182
2303.606523	134.747552
2305.179886	135.302098
2306.749631	140.065734
2308.319077	141.788112
2309.891542	141.311189
2311.458731	142.553846
2313.028939	139.458042
2314.595532	142.774126
2316.163485	143.869930
2317.729483	140.812587
2319.295182	137.394406
2320.860585	137.264336
2322.424034	141.132867
2323.988841	145.225175
2325.550041	149.974825
2327.114255	151.325175
2328.673208	149.924476
2330.235174	150.280420
2331.795190	145.957343
2333.354910	148.110490
2334.912681	145.305594
2336.470158	141.827273
2338.027339	141.532168
2339.582574	142.672727
2341.137514	144.386014
2342.692161	143.354545
2344.246514	141.008392
2345.800573	140.565734
2347.354338	140.814685
2348.906160	140.567133
2350.456038	140.867832
2352.008924	143.447552
2353.556568	143.155245
2355.107219	144.613287
2356.654280	146.244056
2358.202698	144.575524
2359.750824	141.937762
2361.295363	138.241958
2362.841259	135.493007
2364.385216	134.600000
2365.930531	132.936364
2367.472261	132.694406
2369.015348	134.919580
2370.556500	138.348951
2372.097362	138.116084
2373.637935	140.467133
2375.178219	139.972028
2376.718214	138.765734
2378.254630	137.241259
2379.794048	134.896503
2381.329889	132.709790
2382.867086	130.549650
2384.400709	129.058042
2385.937331	129.111888
2387.472022	130.423776
2389.004784	132.574126
2390.537260	133.022378
2392.067807	136.510490
2393.601352	138.733566
2395.129686	138.608392
2396.659376	136.891608
2398.188781	137.083916
2399.717900	136.513287
2401.246735	136.645455
2402.770365	136.173427
2404.298630	135.618881
2405.821692	135.854545
2407.349388	137.190210
2408.870245	137.689510
2410.395735	138.465734
2411.917664	139.689510
2413.440949	138.930769
2414.962313	139.778322
2416.481757	141.970629
2418.002556	141.454545
2419.521436	141.685315
2421.040034	140.848252
2422.556715	140.582517
2424.074750	140.255245
2425.592504	139.329371
2427.106707	136.125175
2428.620629	133.926573
2430.134272	133.834965
2431.649268	133.756643
2433.160716	135.733566
2434.673519	136.041259
2436.184409	135.330769
2437.695019	134.650350
2439.203718	132.247552
2440.715404	135.553147
2442.223546	135.174825
2443.731409	134.009091
2445.238995	133.291608
2446.743040	133.717483
2448.250071	132.488112
2449.755193	133.403497
2451.260038	133.493706
2452.762976	131.267133
2454.265637	129.539860
2455.768022	126.247552
2457.268502	125.304895
2458.770335	127.298601
2460.270264	125.539161
2461.769917	126.848252
2463.269295	126.411189
2464.766769	127.430769
2466.262343	128.637063
2467.760896	129.086713
2469.255920	126.938462
2470.752298	126.071329
2472.245149	125.425175
2473.739352	126.339161
2475.233282	126.625874
2476.723689	128.448951
2478.217072	129.930769
2479.708558	130.248252
2481.198147	127.344056
2482.687464	127.453846
2484.174886	128.851049
2485.665283	129.153147
2487.152161	128.419580
2488.640391	130.308392
2490.125105	129.207692
2491.609548	130.882517
2493.095343	129.760839
2494.579245	130.625175
2496.064499	128.479720
2497.544619	125.683916
2499.027711	123.527972
2500.508913	122.483217
2501.989846	123.329371
2503.468890	124.759441
2504.947666	124.469231
2506.426172	126.412587
2507.904411	124.202797
2509.382381	125.035664
2510.856847	124.081818
2512.334281	123.816084
2513.808212	122.978322
2515.283494	123.944755
2516.758508	125.030070
2518.230021	125.615385
2519.702885	124.766434
2521.173865	125.600699
2522.646196	123.672028
2524.113414	122.272028
2525.583597	117.156643
2527.051900	117.345455
2528.519938	116.530769
2529.987711	118.162937
2531.455219	118.118881
2532.922462	119.416783
2534.386213	121.188811
2535.851315	125.058741
2537.314538	122.793706
2538.779112	124.927273
2540.240196	126.367133
2541.702630	125.312587
2543.164801	122.212587
2544.623486	125.847552
2546.086743	126.772727
2547.544903	127.122378
2549.004412	126.736364
2550.458828	128.146853
2551.917813	128.102098
2553.374927	128.487413
2554.830170	125.379021
2556.285152	126.583217
2557.738264	126.951049
2559.192725	123.118881
2560.645317	121.679021
2562.097649	123.089510
2563.548113	120.713986
2565.001533	118.479720
2566.449871	119.068531
2567.901165	120.046853
2569.350592	119.682517
2570.796548	121.525175
2572.245458	121.286713
2573.690897	121.909790
2575.137685	123.666434
2576.582609	124.398601
2578.027276	124.146154
2579.473290	122.488112
2580.915837	120.511888
2582.359732	119.204196
2583.800162	119.832168
2585.241940	119.079021
2586.681857	118.430070
2588.123122	118.402098
2589.560926	115.429371
2591.001679	116.736364
2592.437369	118.490909
2593.876009	118.309790
2595.312792	116.855944
2596.747718	116.974825
2598.185593	116.937762
2599.618410	116.918182
2601.052573	117.298601
2602.484883	117.187413
2603.918539	117.335664
2605.350342	117.419580
2606.781892	116.246853
2608.213188	117.060839
2609.642633	116.804895
2611.071825	117.261538
2612.499166	115.929371
2613.927854	115.709091
2615.356289	115.172727
2616.781277	115.465734
2618.207612	114.627972
2619.632098	115.441958
2621.057930	114.967832
2622.480318	115.267832
2623.904052	113.601399
2625.325940	111.661538
2626.747577	114.630769
2628.167369	115.369930
2629.588507	111.193706
2631.009395	111.433566
2632.426845	111.488112
2633.847234	111.773427
2635.264186	109.823776
2636.680890	105.678322
2638.097345	111.556643
2639.513552	117.748252
2640.929510	121.295105
2642.343628	126.002797
2643.757499	130.354545
2645.169530	129.857343
2646.582906	126.888112
2647.992852	127.637762
2649.405733	123.287413
2650.815187	117.606993
2652.224394	111.437063
2653.631765	107.658741
2655.042070	112.813287
2656.450539	114.772727
2657.857173	115.254545
2659.263562	117.120280
2660.668117	117.187413
2662.074016	118.851049
2663.478082	118.342657
2664.881904	119.292308
2666.285481	117.183916
2667.687226	114.279021
2669.090315	114.304196
2670.489987	113.548951
2671.891001	113.084615
2673.288600	114.041259
2674.689129	111.913287
2676.086243	110.674825
2677.484700	109.662238
2678.881329	108.615385
2680.277716	106.660140
2681.673862	108.673427
2683.068181	107.804196
2684.463843	106.552448
2685.856095	108.559441
2687.249691	109.698601
2688.641462	109.025874
2690.034575	110.853147
2691.425865	109.377622
2692.815332	109.427972
2694.204560	109.691608
2695.593547	110.800699
2696.983877	110.385315
2698.369222	111.163636
2699.757491	109.300699
2701.143940	109.374126
2702.530150	110.800699
2703.916122	108.546154
2705.298695	106.920280
2706.682609	107.199301
2708.066286	104.944755
2709.449725	105.286014
2710.829768	104.916084
2712.211153	107.273427
2713.590722	107.972727
2714.971633	108.796503
2716.350729	110.664336
2717.728010	111.731469
2719.106633	112.671329
2720.483443	111.620280
2721.860017	110.195804
2723.236355	107.647552
2724.610881	106.183217
2725.986748	104.605594
2727.359228	102.804196
2728.734625	104.303497
2730.105060	104.704895
2731.476837	104.470629
2732.848380	108.254545
2734.218114	109.338462
2735.589188	110.697902
2736.958455	112.288811
2738.327488	112.290210
2739.694714	113.283916
2741.061708	114.393007
2742.428469	112.139161
2743.794997	112.469231
2745.159720	111.524476
2746.524212	109.809790
2747.888471	111.303497
2749.252499	113.188811
2750.616294	111.777622
2751.976716	110.037063
2753.340049	110.251049
2754.698439	109.885315
2756.059739	110.530769
2757.417668	113.074825
2758.778507	112.623077
2760.137545	114.560140
2761.493215	109.455944
2762.851793	111.051049
2764.207005	114.239860
2765.561987	112.394406
2766.915172	112.548252
2768.271264	110.471329
2769.623992	109.992308
2770.976491	109.067133
2772.328762	110.248252
2773.682372	110.446154
2775.032620	107.339161
2776.381075	104.958042
2777.732434	101.415385
2779.080434	101.560140
2780.429773	101.066434
2781.777319	99.841958
2783.124638	102.662937
2784.471731	100.417483
2785.817033	101.231469
2787.162109	101.610490
2788.506959	104.135664
2789.851582	105.504196
2791.192854	107.116084
2792.535464	109.263636
2793.877848	109.248252
2795.220008	107.105594
2796.558818	107.713287
2797.900527	107.467133
2799.238889	108.093706
2800.578588	106.178322
2801.916501	106.155245
2803.252630	105.977622
2804.588536	106.717483
2805.925778	105.756643
2807.261237	106.388112
2808.596473	104.590909
2809.929927	105.848951
2811.264717	105.013287
2812.596166	104.774825
2813.930511	102.430070
2815.259958	102.186014
2816.590742	101.974825
2817.921304	103.163636
2819.250087	103.023077
2820.580207	100.829371
2821.908547	99.131469
2823.236667	99.183916
2824.563010	98.377622
2825.890688	102.193007
2827.215034	100.746853
2828.540715	101.948252
2829.864621	100.166434
2831.188308	101.059441
2832.513330	101.505594
2833.835023	104.653147
2835.156496	104.108392
2836.477751	103.324476
2837.798787	101.858741
2839.118051	100.351748
2840.438650	99.494406
2841.757477	98.636364
2843.076086	96.212587
2844.392925	96.523077
2845.709546	94.300000
2847.025949	95.815385
2848.340584	98.089510
2849.656553	101.192308
2850.969202	101.824476
2852.283187	103.127972
2853.596955	101.772727
2854.910506	102.277622
2856.222290	103.118881
2857.532309	101.003497
2858.843661	100.708392
2860.151699	100.931469
2861.461072	101.184615
2862.770229	102.153147
2864.079171	103.104196
2865.386350	102.766434
2866.691765	100.925175
2867.998515	101.115385
2869.303502	98.311888
2870.608276	99.585315
2871.911288	99.145455
2873.217182	97.012587
2874.518220	97.984615
2875.820593	99.908392
2877.121206	99.487413
2878.423153	97.325175
2879.724887	98.243357
2881.023317	98.241958
2882.323080	97.565734
2883.621085	97.313986
2884.918879	96.558042
2886.214917	96.927972
2887.512288	93.901399
2888.807903	95.438462
2890.103307	96.215385
2891.398501	98.477622
2892.690396	97.502098
2893.985168	100.041259
2895.276643	100.860839
2896.569452	100.954545
2897.862049	100.210490
2899.151353	98.487413
2900.441989	98.776224
2901.730874	97.863636
2903.021092	95.910490
2904.308018	98.693706
2905.596276	95.002797
2906.882784	95.179021
2908.169085	94.809790
2909.455177	96.783217
2910.739521	94.525175
2912.026737	94.237762
2913.309126	93.421678
2914.592846	95.809091
2915.874821	97.628671
2917.156589	98.330070
2918.436611	97.946853
2919.719503	98.839860
2921.000650	96.871329
2922.278515	96.311888
2923.559249	94.588112
2924.836702	95.339860
2926.113950	94.448252
2927.389455	95.680420
2928.667828	96.563636
2929.941386	99.025874
2931.217812	98.548252
2932.492497	97.672028
2933.765442	96.048951
2935.039717	97.179720
2936.312253	96.616084
2937.584585	95.809091
2938.853644	94.759441
2940.125567	96.007692
2941.395753	96.323077
2942.665736	99.153147
2943.935515	98.595804
2945.203557	98.848951
2946.469864	97.988811
2947.735968	98.322378
2949.003402	98.113986
2950.269102	100.800699
2951.534599	99.839860
2952.799894	99.112587
2954.061924	96.579021
2955.325285	95.677622
2956.588444	93.852448
2957.849870	93.778322
2959.112626	90.083916
2960.373651	88.120280
2961.632945	86.159441
2962.892038	86.062937
2964.150931	88.235664
2965.409624	90.194406
2966.668117	90.481119
2967.924881	89.207692
2969.181445	89.558042
2970.436282	93.085315
2971.692448	92.953846
2972.945358	93.578322
2974.199598	92.151049
2975.453639	91.455944
2976.705954	90.798601
2977.958071	90.349650
2979.208463	90.723776
2980.461710	90.670629
2981.710180	88.062937
2982.961504	85.778322
2984.209580	86.663636
2985.457458	87.114685
2986.705139	85.716084
2987.952624	86.616783
2989.198387	88.858741
2990.443953	90.704196
2991.690848	92.511888
2992.934497	92.852448
2994.179475	92.569930
2995.421210	93.820280
2996.665796	89.361538
2997.908662	89.390909
2999.148288	89.369231
3000.390765	87.962238
3001.630001	85.887413
3002.870565	86.541958
3004.109412	86.323077
3005.348065	87.423077
3006.585002	87.441958
3007.823266	87.236364
3009.059816	87.084615
3010.296171	88.832867
3011.532333	87.600699
3012.766782	89.157343
3014.001037	86.408392
3015.235099	86.226573
3016.467449	85.039860
3017.698087	86.255944
3018.931571	85.336364
3020.163343	86.903497
3021.393405	85.758741
3022.623275	86.862937
3023.851435	86.782517
3025.080921	88.845455
3026.308699	88.083916
3027.536285	87.404196
3028.765197	84.828671
3029.989367	87.735664
3031.216380	89.151748
3032.440170	91.028671
3033.665285	88.737063
3034.888694	89.302797
3036.111914	89.898601
3037.333428	90.146853
3038.557783	89.183217
3039.777403	90.151748
3040.998348	89.611189
3042.219105	88.462937
3043.438158	87.158741
3044.658537	88.347552
3045.875699	89.054545
3047.094186	88.839161
3048.310972	86.019580
3049.527569	86.201399
3050.743979	83.744056
3051.957175	82.035664
3053.173209	81.234266
3054.386031	81.409790
3055.601690	80.444056
3056.812626	78.297203
3058.024887	79.927273
3059.236962	82.171329
3060.448850	82.581119
3061.659040	85.404895
3062.869045	86.356643
3064.078863	85.582517
3065.286985	83.473427
3066.494921	84.679021
3067.701163	84.293706
3068.908728	85.186713
3070.114600	82.288112
3071.320286	81.562238
3072.525787	80.826573
3073.729596	79.008392
3074.934728	78.982517
3076.138167	81.123776
3077.339914	80.760839
3078.541478	80.159441
3079.742858	81.344056
3080.944054	83.546154
3082.143560	82.702797
3083.342882	85.444056
3084.543528	82.841259
3085.742485	83.686014
3086.938246	81.708392
3088.136837	79.804196
3089.332234	79.996503
3090.528954	79.115385
3091.722482	78.275524
3092.918839	78.434266
3094.113508	80.918182
3095.304987	80.289510
3096.500797	80.627273
3097.691914	82.993007
3098.884353	80.930769
3100.073605	81.549650
3101.265683	78.305594
3102.456076	77.118182
3103.643284	75.468531
3104.831815	74.350350
3106.021668	73.206993
3107.208336	72.905594
3108.394825	73.041958
3109.581134	72.938462
3110.768765	73.596503
3111.953215	72.484615
3113.135984	70.210490
3114.321577	69.745455
3115.505489	67.400699
3116.687723	68.723776
3117.869779	68.665035
3119.051656	69.810490
3120.233355	71.925175
3121.413376	73.390909
3122.591721	73.072028
3123.772887	73.591608
3124.950877	73.816783
3126.128690	73.422378
3127.306326	72.197203
3128.482287	73.035664
3129.658072	71.881818
3130.835177	73.508392
3132.010608	75.353846
3133.184366	78.904895
3134.356452	83.141259
3135.529858	85.225874
3136.703089	84.658042
3137.874647	84.128671
3139.047527	83.703497
3140.217239	81.632168
3141.388272	79.251049
3142.557634	78.638462
3143.725327	76.246154
3144.895835	75.193706
3146.061684	74.069231
3147.231843	74.620280
3148.397344	74.195105
3149.562672	73.657343
3150.727826	72.183217
3151.892806	71.335664
3153.059107	71.445455
3154.220754	71.977622
3155.383722	74.145455
3156.546516	75.464336
3157.709138	74.813986
3158.870095	74.800000
3160.030879	72.443357
3161.191491	70.065734
3162.350440	67.316084
3163.509216	65.540559
3164.667821	64.316084
3165.826254	63.511888
3166.984515	65.987413
3168.141114	67.660140
3169.296052	69.028671
3170.452309	68.901399
3171.606906	69.663636
3172.761331	69.316084
3173.914097	66.764336
3175.066693	66.444755
3176.219118	65.191608
3177.371374	64.797203
3178.523460	63.553846
3179.672399	63.712587
3180.824145	65.831469
3181.974234	66.876923
3183.122665	69.276224
3184.270928	71.286014
3185.419021	71.558741
3186.566946	71.730769
3187.713216	72.382517
3188.859317	72.725874
3190.003763	72.895804
3191.148042	72.437063
3192.292153	70.099301
3193.437582	70.160140
3194.579872	69.188811
3195.721994	69.088112
3196.863950	70.334266
3198.005738	66.374825
3199.147359	63.778322
3200.285844	64.457343
3201.425647	64.839860
3202.566768	63.320280
3203.704754	64.438462
3204.841091	66.387413
3205.977262	65.945455
3207.114751	68.555944
3208.250591	68.705594
3209.387747	66.137762
3210.520291	66.885315
3211.657117	65.133566
3212.789331	66.216084
3213.922863	66.654545
3215.056229	65.997902
3216.186468	68.134965
3217.319505	68.383916
3218.449416	70.451049
3219.580644	67.376224
3220.708746	67.951748
3221.839645	64.447552
3222.968901	62.439860
3224.096512	63.977622
3225.221002	63.016084
3226.349767	60.707692
3227.475410	59.076923
3228.600890	59.917483
3229.724729	64.441958
3230.851362	62.418881
3231.973398	66.290210
3233.096750	65.850350
3234.219940	67.657343
3235.342968	66.843357
3236.464356	68.348951
3237.585583	66.234266
3238.705171	63.195105
3239.824598	59.978322
3240.942387	59.561538
3242.062969	58.351049
3243.180436	61.411888
3244.297744	61.349650
3245.414890	65.649650
3246.530401	66.572028
3247.647227	66.509091
3248.760942	65.316084
3249.877448	63.597203
3250.992318	60.798601
3252.104080	58.943357
3253.215683	56.454545
3254.328600	54.618881
3255.441359	57.047552
3256.551011	61.086713
3257.661978	63.181119
3258.772786	65.811189
3259.881962	66.250350
3260.989507	69.151049
3262.098367	73.921678
3263.207068	74.243357
3264.312667	75.494406
3265.419581	73.666434
3266.524865	70.861538
3267.631463	69.174126
3268.734961	69.443357
3269.839773	68.029371
3270.944428	66.271329
3272.045984	62.704196
3273.147385	60.787413
3274.250099	64.402098
3275.352656	66.810490
3276.452118	65.467133
3277.554362	65.353147
3278.653512	64.611189
3279.751036	62.604196
3280.848405	62.918182
3281.948557	61.881818
3283.045615	62.818881
3284.142518	60.481818
3285.239267	59.370629
3286.331456	59.809091
3287.427895	61.688811
3288.522711	61.244755
3289.617372	61.132867
3290.710412	59.964336
3291.803298	59.365734
3292.894563	55.977622
3293.987141	58.025874
3295.078098	57.194406
3296.167437	58.574825
3297.256621	58.168531
3298.347119	60.096503
3299.434532	60.032867
3300.521793	62.186713
3301.610366	60.277622
3302.698786	59.688112
3303.782659	58.105594
3304.870774	56.129371
3305.955808	53.514685
3307.039226	54.759441
3308.123955	53.618881
3309.207070	54.741259
3310.291496	54.480420
3311.372844	54.214685
3312.455504	52.944755
3313.536550	54.830769
3314.617445	53.858042
3315.696727	55.858741
3316.775858	57.115385
3317.856300	56.741958
3318.933669	57.232168
3320.012349	56.810490
3321.089417	56.136364
3322.166335	55.951748
3323.241642	55.156643
3324.316800	54.658042
3325.393270	54.577622
3326.466668	54.493706
3327.539918	55.100000
3328.614479	55.981119
3329.687430	55.810490
3330.758774	54.623776
3331.831428	52.859441
3332.901015	50.379720
3333.971913	49.937063
3335.041204	50.266434
3336.111806	50.539860
3337.180801	53.728671
3338.248190	53.642657
3339.313974	52.937063
3340.383984	54.983217
3341.450931	57.807692
3342.514816	56.098601
3343.581469	55.168531
3344.646517	51.783916
3345.709963	48.930070
3346.773261	47.260140
3347.836414	44.723776
3348.899420	43.972028
3349.962279	44.648252
3351.023537	41.866434
3352.081738	44.352448
3353.144160	47.685315
3354.203525	51.851748
3355.262745	51.306993
3356.323275	55.014685
3357.379295	53.480420
3358.438080	53.883217
3359.492357	52.727273
3360.549397	49.455245
3361.604840	47.586713
3362.661591	45.224476
3363.716745	43.891608
3364.770301	46.480420
3365.822260	46.226573
3366.876981	49.064336
3367.928653	49.102797
3368.980182	50.545455
3370.033020	48.555245
3371.082810	49.694406
3372.133908	48.306993
3373.181961	46.149650
3374.232774	44.891608
3375.280541	44.806294
3376.328166	45.665734
3377.375649	46.233566
3378.421538	46.297902
3379.468736	47.651748
3380.512892	47.993007
3381.559806	47.153147
3382.605128	46.107692
3383.647410	46.522378
3384.689550	46.193706
3385.732998	46.730070
3386.776306	48.018881
3387.818023	47.972727
3388.859599	49.121678
3389.901035	48.664336
3390.940881	48.922378
3391.979140	50.080420
3393.018706	48.536364
3394.058131	46.803497
3395.095970	44.472727
3396.132221	44.971329
3397.168332	44.624476
3398.205751	45.705594
3399.240137	46.105594
3400.275830	45.806993
3401.311384	48.138462
3402.343907	49.344755
3403.379183	50.122378
3404.411428	52.351049
3405.443535	50.705594
3406.474058	49.702098
3407.505889	47.104196
3408.537580	46.232867
3409.566245	43.326573
3410.594771	43.953147
3411.624605	42.680420
3412.654300	43.790210
3413.680970	44.631469
3414.708947	45.844755
3415.733899	45.641958
3416.761601	47.297203
3417.786280	44.402797
3418.812265	42.251049
3419.836670	40.409091
3420.860939	40.813986
3421.883629	41.739161
3422.906183	44.374825
3423.930043	44.423776
3424.950883	50.048252
3425.971588	52.855145
3426.993598	54.391708
3428.012590	54.082418
3429.031447	51.351748
3430.051609	45.624176
3431.068755	36.324176
