-118.187858	0.548077
-115.518258	2.515385
-112.851593	4.222727
-110.185680	5.644056
-107.522699	6.753322
-104.858289	7.524476
-102.196809	7.931469
-99.533899	5.686014
-96.876097	7.734965
-94.216864	8.187413
-91.558380	5.893007
-88.902821	3.685315
-86.245833	1.025175
-83.593942	-2.739161
-80.940622	-2.804196
-78.290222	0.512587
-75.638392	-0.123776
-72.991653	0.225175
-70.343484	1.198601
-67.696059	4.142657
-65.051547	7.312587
-62.405607	8.851748
-59.764748	6.608392
-57.122460	5.567133
-54.483080	2.138462
-51.842272	3.907692
-49.202204	1.005594
-46.567208	2.698601
-43.930783	2.506993
-41.297262	3.229371
-38.662312	4.723077
-36.032427	9.281119
-33.398950	13.160839
-30.770535	15.632867
-28.142853	14.262937
-25.513744	7.855944
-22.889691	-32.844755
-20.262049	-178.982517
-17.639460	-426.355245
-15.017602	-707.646154
-12.396476	294.070629
-9.776079	2230.996503
-7.158570	3922.167133
-4.539633	5125.274126
-1.923582	5825.345455
0.691741	6020.872727
3.306337	5711.325874
5.918050	4906.029371
8.531192	3625.701399
11.139300	1965.097203
13.750990	261.859441
16.357649	-927.871329
18.965736	-669.406294
21.573099	-95.189510
24.175437	11.802797
26.781353	14.616084
29.382247	13.388811
31.984570	11.474126
34.581874	12.842657
37.182754	12.944755
39.778620	10.840559
42.375913	7.767832
44.972487	9.668531
47.564052	7.957343
50.157045	9.134965
52.747177	10.519580
55.338737	6.225874
57.927437	4.848252
60.517564	2.222378
63.102693	-0.236364
65.689249	1.176923
68.275090	0.072028
70.858078	-2.509790
73.442493	-4.140559
76.019778	-3.556643
78.600630	-4.446154
81.178633	-4.230769
83.755926	-4.055944
86.334645	-2.260839
88.908383	-1.709091
91.483547	-1.335664
94.055868	-1.764336
96.627481	-1.381818
99.196255	0.300000
101.766455	-0.596503
104.333816	0.326573
106.902604	-2.141958
109.468554	-1.814685
112.031670	-3.783217
114.598342	-2.034965
117.155793	0.386713
119.718929	1.992308
122.277106	5.535664
124.838836	12.941958
127.395611	25.277622
129.953811	41.250350
132.507059	60.393706
135.059608	85.821678
137.615708	111.123776
140.166861	139.625175
142.717315	163.319580
145.267073	187.450350
147.814011	206.373427
150.360253	219.390210
152.907922	225.064336
155.454894	228.709790
157.996930	227.377622
160.538273	224.502797
163.078924	221.977622
165.620999	220.664336
168.160264	218.946154
170.696719	217.560140
173.232484	215.798601
175.769674	219.530769
178.306172	218.819580
180.839865	218.148252
183.370755	217.363636
185.900956	217.051748
188.432582	217.934266
190.961407	216.988811
193.487433	215.014685
196.012774	214.842657
198.539539	215.834965
201.063508	216.339161
203.586791	215.857343
206.109390	217.460839
208.629196	214.572028
211.148319	215.932168
213.666759	218.244755
216.186623	224.093007
218.699486	228.809091
221.215880	233.423776
223.731592	238.493706
226.242415	244.659441
228.754662	249.760839
231.264126	254.162238
233.772912	258.540559
236.281020	261.534266
238.790551	260.940559
241.295203	262.447552
243.799178	261.241958
246.304577	265.323077
248.805101	267.943357
251.309148	270.827273
253.806225	270.641958
256.306824	272.963636
258.804652	273.677622
261.301807	275.828671
263.798289	277.481818
266.289909	276.583916
268.785047	276.824476
271.277420	281.119580
273.769122	282.942657
276.258061	288.279720
278.748423	291.641259
281.236024	295.924476
283.720865	300.181818
286.209220	306.688112
288.690636	310.043357
291.175566	318.511888
293.655651	326.740559
296.139248	333.630070
298.618002	341.497902
301.098180	345.858042
303.575605	342.263636
306.052367	341.195105
308.528466	341.636364
311.001816	345.511189
313.474504	345.660140
315.946531	349.533566
318.417897	349.874825
320.886519	352.566434
323.354481	349.657343
325.823866	345.230769
328.288428	335.911189
330.756493	329.000699
333.219739	315.054545
335.682328	311.258741
338.144259	308.027972
340.605534	304.923776
343.064075	304.493706
345.524038	308.092308
347.981269	306.533566
350.437844	302.498601
352.893766	296.130070
355.346959	292.794406
357.801573	286.920280
360.251386	286.101399
362.704696	281.286014
365.153206	280.806993
367.601066	276.634266
370.050347	276.751748
372.494835	281.401399
374.940745	284.844755
377.386006	286.225874
379.828548	283.740559
382.270442	280.294406
384.711688	280.722378
387.150219	276.786014
389.590172	274.353147
392.027411	273.719580
394.461938	271.800699
396.899953	272.278322
399.333191	275.716084
401.767851	274.654545
404.197737	274.300000
406.631109	275.219580
409.059711	271.913986
411.487672	270.375524
413.917053	271.312587
416.341669	268.343357
418.767707	269.050350
421.193104	268.786014
423.617861	271.286713
426.037860	273.233566
428.459280	272.526573
430.878003	270.679720
433.298147	273.258042
435.715596	273.992308
438.134465	270.170629
440.550641	268.255245
442.962070	264.998601
445.376975	263.237762
447.789190	262.744755
450.200771	258.957343
452.611718	256.491608
455.019979	250.568531
457.427607	246.940559
459.834604	245.970629
462.240968	247.172727
464.644650	247.517483
467.047702	246.246853
469.450124	248.928671
471.851917	252.441259
474.251031	259.726573
476.651565	263.213287
479.051470	269.293706
481.446652	278.705594
483.845301	283.697902
486.239230	294.137762
488.632533	303.275524
491.025210	313.716084
493.417262	324.013986
495.810733	326.452448
498.199491	319.602797
500.585583	279.911888
502.973095	180.312587
505.359983	140.312587
507.744208	695.072727
510.129852	2034.662937
512.512833	3737.607692
514.893154	5241.230769
517.274894	6299.944755
519.653975	6844.260839
522.034475	6845.737762
524.412317	6310.028671
526.787504	5267.833566
529.162073	3811.375524
531.538061	2155.618881
533.911395	744.246154
536.286148	112.694406
538.656214	131.490210
541.025665	301.821678
543.396535	343.636364
545.762723	325.929371
548.130330	302.983916
550.495291	280.011189
552.859639	263.497902
555.223375	248.549650
557.588528	238.651049
559.949008	228.945455
562.310907	224.982517
564.670166	220.976224
567.026786	215.766434
569.386851	210.564336
571.740226	205.689510
574.097045	198.144755
576.451228	194.174825
578.804804	188.919580
581.157771	184.618182
583.508107	184.443357
585.859859	180.959441
588.204935	178.123077
590.555475	179.639161
592.899342	178.211888
595.248669	177.863636
597.593349	176.566434
599.935404	179.062937
602.278875	181.446154
604.619724	183.362937
606.959971	183.837063
609.297597	185.874825
611.638658	190.450350
613.975082	192.382517
616.312922	194.911189
618.648144	194.370629
620.980751	193.239161
623.314775	191.669930
625.646184	190.239860
627.976995	189.102797
630.307208	185.501399
632.636823	180.522378
634.961816	174.744056
637.292250	173.120979
639.618062	171.502098
641.941268	171.552448
644.265889	170.558741
646.587906	167.873427
648.909328	167.093706
651.228147	169.382517
653.548382	170.025874
655.868024	172.964336
658.185065	172.881818
660.501515	173.686014
662.815366	173.700000
665.130632	175.811189
667.443302	176.910490
669.757387	177.984615
672.066872	175.809091
674.377773	172.154545
676.686081	170.975524
678.993801	169.719580
681.302936	165.526573
683.607478	164.777622
685.911434	161.402098
688.214803	159.525874
690.519587	157.367133
692.819785	154.288112
695.121398	151.019580
697.422425	150.449650
699.718870	148.302098
702.016731	145.860140
704.314008	144.441958
706.610702	140.874825
708.902820	137.120280
711.198349	137.553846
713.489305	133.937063
715.781675	133.856643
718.071469	133.497203
720.360684	133.874825
722.649318	134.697203
724.935381	138.125175
727.222857	137.880420
729.507763	137.250350
731.792090	137.271329
734.073849	137.635664
736.357023	137.053147
738.639618	139.981119
740.917659	140.918182
743.197113	143.049650
745.475992	144.970629
747.754295	146.608392
750.028049	145.516084
752.303217	143.335664
754.577811	141.312587
756.849846	139.911189
759.123293	141.067133
761.394183	142.783217
763.662517	140.883217
765.932264	145.169930
768.199457	147.093007
770.466079	149.652448
772.732132	150.573427
774.995632	150.997203
777.260546	151.725874
779.524890	151.634266
781.784705	152.999301
784.045933	153.310490
786.306593	155.471329
788.564706	156.183916
790.820275	154.565035
793.079235	156.336364
795.331696	156.313986
797.589524	160.280420
799.842832	157.189510
802.093601	157.337063
804.345782	157.637063
806.595425	156.856643
808.846479	155.223776
811.093022	154.897203
813.340978	158.597203
815.586398	159.361538
817.833230	159.564336
820.079501	158.827972
822.321268	158.148951
824.566417	159.354545
826.805094	155.618881
829.047154	153.999301
831.284715	151.378322
833.523687	148.128671
835.760133	145.781119
837.997991	146.686713
840.233323	147.237762
842.466131	145.865035
844.700351	146.286713
846.932049	145.736364
849.163192	147.843357
851.393780	151.196503
853.623814	152.917483
855.853293	153.511888
858.078291	154.872727
860.306664	155.451748
862.530558	156.101399
864.755862	156.227273
866.976691	153.254545
869.200892	151.163636
871.420620	149.618182
873.641759	148.980420
875.862347	149.518182
878.080425	151.584615
880.299914	152.223776
882.514936	152.230070
884.729410	152.383217
886.943337	155.747552
889.156716	155.374825
891.369549	157.335664
893.581834	155.425175
895.791618	153.649650
898.000856	153.258042
900.209548	152.252448
902.415742	154.996503
904.623345	156.983217
906.828451	157.627273
909.033013	157.646154
911.235079	159.880420
913.438555	164.557343
915.639537	166.510490
917.839978	169.523776
920.041827	168.906993
922.237284	174.373427
924.436101	182.171329
926.630480	200.393007
928.828215	224.320280
931.021515	252.170629
933.216224	286.632168
935.408447	316.886014
937.600132	347.341958
939.791279	374.043357
941.979943	389.017483
944.168070	395.700000
946.353717	396.487413
948.542716	394.790909
950.727292	389.204196
952.911333	388.192308
955.098724	386.169231
957.277812	389.810490
959.460249	392.744755
961.642153	393.955245
963.821583	398.444755
965.998540	403.963636
968.176905	403.271329
970.356676	405.640559
972.530099	409.397203
974.706868	411.350350
976.879231	412.696503
979.053000	411.116783
981.222366	406.665734
983.395077	399.748951
985.565321	385.653846
987.735037	369.862937
989.904224	346.875524
992.069014	323.535664
994.237145	298.176923
996.400882	275.469930
998.566025	256.762937
1000.728710	242.482517
1002.890868	230.080420
1005.050570	221.449650
1007.209748	216.292308
1009.370332	215.949650
1011.528461	211.898601
1013.686066	209.821678
1015.843148	205.405594
1017.999707	202.338462
1020.151886	196.351049
1022.305471	191.760140
1024.458535	187.110490
1026.609151	182.483217
1028.761172	175.933566
1030.908820	172.825874
1033.059800	172.598601
1035.206409	172.151049
1037.352500	170.294406
1039.498071	170.953147
1041.645048	170.614685
1043.785737	168.528671
1045.929754	168.767133
1048.071331	167.990909
1050.212392	165.543357
1052.354857	162.123077
1054.491043	159.085315
1056.630555	157.402098
1058.765711	159.432168
1060.904192	160.125175
1063.038320	159.244755
1065.171933	160.484615
1067.306952	161.839860
1069.437621	163.870629
1071.569695	166.283916
1073.699340	165.593706
1075.828473	161.388811
1077.957094	160.127972
1080.085204	156.360140
1082.210888	152.992308
1084.336062	153.141259
1086.462640	149.723776
1088.584881	145.923776
1090.708525	146.383916
1092.827836	147.763636
1094.952375	150.190210
1097.070669	149.750350
1099.190368	148.976923
1101.307648	147.658042
1103.424422	150.037762
1105.540689	145.376224
1107.654541	141.185315
1109.769796	138.860839
1111.880729	134.930769
1113.994973	133.258741
1116.104897	130.438462
1118.216225	132.291608
1120.327049	132.583217
1122.433556	130.730769
1124.543372	132.688811
1126.648874	134.419580
1128.755779	135.361538
1130.856469	130.863636
1132.962371	130.186014
1135.063964	130.788811
1137.166960	130.390909
1139.269455	130.185315
1141.365744	129.855245
1143.467239	130.910490
1145.564432	127.999301
1147.661126	125.540559
1149.757323	125.090210
1151.853021	125.053846
1153.948222	124.320280
1156.041026	120.424476
1158.135232	122.181119
1160.223247	122.985315
1162.316460	126.724476
1164.403485	128.848951
1166.493810	132.855944
1168.579846	129.902098
1170.669180	127.584615
1172.752333	124.834965
1174.836889	123.875524
1176.922845	123.004196
1179.004520	121.124476
1181.087597	118.459441
1183.168288	120.174825
1185.248487	122.056643
1187.328195	123.162937
1189.407412	124.097203
1191.484247	126.981818
1193.558701	123.896503
1195.636447	123.023077
1197.709922	120.830769
1199.784798	119.611888
1201.855407	118.344056
1203.927418	117.672727
1205.997052	114.497203
1208.068087	115.817483
1210.138634	114.322378
1212.204920	113.144755
1214.272607	115.513287
1216.337922	117.837762
1218.404637	115.352448
1220.467096	113.990210
1222.532840	112.763636
1224.594331	114.804196
1226.657221	116.760140
1228.717744	118.232168
1230.777784	116.059441
1232.837340	117.646154
1234.894531	117.127972
1236.951241	117.134965
1239.005588	115.315385
1241.063215	114.262937
1243.118480	111.854545
1245.169504	111.365734
1247.221928	112.081818
1249.273873	113.829371
1251.323458	114.850350
1253.372565	114.069231
1255.421194	109.035664
1257.469344	110.601399
1259.517016	110.055245
1261.560457	111.982517
1263.607173	111.893007
1265.651537	114.455944
1267.695423	116.826573
1269.736959	119.051748
1271.776145	120.748951
1273.818603	120.227972
1275.856839	117.761538
1277.896474	114.438462
1279.935634	109.919580
1281.970576	108.897902
1284.006916	108.109790
1286.040911	111.853846
1288.076305	113.301399
1290.107485	114.827972
1292.140064	115.616084
1294.172170	118.020979
1296.201936	115.713986
1298.233100	115.772028
1300.260056	115.795105
1302.288410	115.278322
1304.312560	116.055944
1306.339974	115.253147
1308.363187	114.595105
1310.387796	117.155944
1312.410072	116.623077
1314.433745	114.964336
1316.455085	113.778322
1318.475957	112.924476
1320.496363	110.449650
1322.512574	113.362238
1324.530184	113.070629
1326.545465	113.165734
1328.564005	115.402797
1330.578355	114.488112
1332.590380	112.127972
1334.605662	113.547552
1336.616759	111.485315
1338.629253	109.487413
1340.637564	107.642657
1342.649131	108.178322
1344.654658	106.659441
1346.663441	107.821678
1348.668046	107.874126
1350.675905	107.990909
1352.683302	106.936364
1354.684668	107.890210
1356.687431	110.337762
1358.689733	113.076923
1360.691576	113.559441
1362.692960	114.193706
1364.692029	113.760839
1366.690640	114.687413
1368.688793	113.178322
1370.686488	115.625175
1372.680019	116.262937
1374.674947	113.448252
1376.669418	110.138462
1378.663432	110.337762
1380.655139	109.871329
1382.646390	108.099301
1384.635336	105.090909
1386.625677	102.877622
1388.615563	99.174825
1390.603146	99.931469
1392.590275	100.143357
1394.575102	102.531469
1396.561323	106.546853
1398.545245	107.244056
1400.528714	108.085315
1402.511731	110.771329
1404.492450	110.382517
1406.474563	112.847552
1408.454379	112.930070
1410.433745	113.684615
1412.408971	113.149650
1414.387437	113.137063
1416.363609	111.093007
1418.339331	110.422378
1420.314604	110.292308
1422.287586	109.677622
1424.260120	110.778322
1426.232207	110.973427
1428.203845	109.551748
1430.171355	111.968531
1432.143940	110.962238
1434.108718	109.783217
1436.078569	107.548252
1438.044295	106.061538
1440.011415	104.124476
1441.976250	105.160839
1443.936967	106.697902
1445.902751	109.547552
1447.862580	109.909091
1449.823802	110.637762
1451.786417	110.027273
1453.744917	112.250350
1455.702975	108.289510
1457.660590	107.769231
1459.617764	106.309091
1461.572662	108.913287
1463.528952	108.097902
1465.482968	111.159441
1467.436544	112.523776
1469.387847	111.068531
1471.340542	110.446154
1473.290966	112.332867
1475.240951	111.819580
1477.190496	113.824476
1479.137773	110.891608
1481.082783	113.977622
1483.029184	113.986014
1484.975149	116.791608
1486.920675	112.668531
1488.863937	115.160140
1490.806762	113.113287
1492.747324	109.544056
1494.689277	109.542657
1496.628969	108.932867
1498.568225	107.458741
1500.507047	106.364336
1502.443608	105.107692
1504.381561	105.254545
1506.317256	105.198601
1508.252517	104.991608
1510.185521	100.964336
1512.118093	104.565035
1514.050233	104.681119
1515.981941	105.684615
1517.911395	107.843357
1519.842240	109.758741
1521.772654	110.557343
1523.698995	109.306294
1525.626726	109.606294
1527.552207	108.399301
1529.477259	109.253147
1531.401882	108.056643
1533.326076	104.848951
1535.248023	108.888112
1537.171359	110.620280
1539.092450	111.563636
1541.011296	111.749650
1542.931532	112.315385
1544.849524	112.693706
1546.767090	113.324476
1548.682414	112.445455
1550.599128	112.377622
1552.511787	109.855245
1554.427650	107.829371
1556.341273	104.358042
1558.252659	105.081119
1560.165433	105.313287
1562.074158	103.869231
1563.984273	103.134266
1565.893964	102.482517
1567.803231	105.777622
1569.710265	107.502098
1571.615066	109.194406
1573.521256	111.644755
1575.425214	110.495804
1577.328752	111.061538
1579.231868	108.643357
1581.132756	110.485315
1583.035031	112.923077
1584.935079	114.622378
1586.836515	114.388811
1588.733916	115.703497
1590.630899	116.097902
1592.527464	115.632168
1594.425417	114.741958
1596.317535	112.483217
1598.212846	109.981818
1600.107740	107.329371
1602.000412	105.092308
1603.892668	103.284615
1605.782704	104.047552
1607.672324	102.346853
1609.561529	101.809091
1611.450318	103.623776
1613.336891	99.534266
1615.224850	99.327273
1617.108793	98.241259
1618.994124	98.689510
1620.879040	98.897902
1622.761744	98.669231
1624.645833	98.874126
1626.525912	97.310490
1628.407377	97.717483
1630.286632	97.404196
1632.167273	99.173427
1634.042110	101.152448
1635.921929	100.828671
1637.797742	102.474825
1639.673145	103.527273
1641.549935	98.872727
1643.420927	101.086014
1645.295101	105.768531
1647.165277	105.102797
1649.038633	105.448951
1650.909786	106.441958
1652.778737	109.562238
1654.649074	110.688112
1656.515417	110.648252
1658.383146	112.230070
1660.248677	110.530070
1662.115592	107.865734
1663.978519	103.800000
1665.842831	107.285315
1667.704947	109.496503
1669.566659	105.789510
1671.429755	105.980420
1673.290657	108.072727
1675.149365	110.095105
1677.007670	108.000699
1678.867360	103.611888
1680.721283	105.581818
1682.578378	103.032867
1684.435071	100.137063
1686.287788	100.323776
1688.143676	97.560140
1689.995589	100.747552
1691.847102	101.126573
1693.698215	101.519580
1695.548926	105.634965
1697.399237	107.978322
1699.247364	107.611888
1701.096874	105.198601
1702.940636	106.751748
1704.789348	104.179720
1706.632313	101.532867
1708.478444	102.253147
1710.320614	99.385315
1712.165948	100.724476
1714.005542	100.541259
1715.846520	101.364336
1717.688881	102.940559
1719.527286	102.032867
1721.367074	100.202797
1723.204687	99.050350
1725.041904	100.327972
1726.876948	99.725175
1728.713375	100.362238
1730.547630	100.101399
1732.381490	97.576224
1734.214957	99.548252
1736.044477	99.852448
1737.877156	99.464336
1739.705891	97.696503
1741.537784	95.686713
1743.365734	94.248951
1745.193292	95.046154
1747.020458	95.879720
1748.847233	98.045455
1750.673617	99.044755
1752.496064	100.176224
1754.321665	101.779021
1756.143332	103.475524
1757.966381	100.923776
1759.787269	100.127972
1761.607767	99.049650
1763.429647	97.617483
1765.245827	98.338462
1767.065159	99.540559
1768.880564	99.000000
1770.699119	101.551049
1772.513749	100.817483
1774.327993	102.384615
1776.141849	102.411189
1777.955319	101.953846
1779.766636	100.057343
1781.579334	99.655245
1783.391645	98.151049
1785.200039	100.373427
1787.009814	102.296503
1788.815673	103.155944
1790.624679	102.562238
1792.429771	105.015385
1794.236243	100.136364
1796.042332	98.216783
1797.844511	97.669231
1799.649833	96.133566
1801.451247	93.785315
1803.254041	96.805594
1805.052929	95.776923
1806.853198	98.062937
1808.653085	98.259441
1810.450831	99.366434
1812.248196	98.815385
1814.045180	98.686713
1815.841784	92.064336
1817.636249	92.318182
1819.432093	93.384615
1821.222283	93.315385
1823.017369	94.672727
1824.806802	98.076923
1826.599372	98.199301
1828.389807	99.334965
1830.178108	99.632168
1831.969544	97.988811
1833.755334	93.696503
1835.542504	93.103497
1837.327542	90.693007
1839.115714	93.611189
1840.900000	91.946154
1842.682157	91.207692
1844.465692	92.044755
1846.247099	93.326573
1848.029885	92.913986
1849.808791	90.976923
1851.589075	90.404196
1853.367233	88.602098
1855.146770	86.193007
1856.924182	87.838462
1858.699470	88.551049
1860.476137	90.202098
1862.250681	88.621678
1864.026602	88.899301
1865.796904	89.489510
1867.570332	90.265035
1869.341641	87.766434
1871.112580	87.571329
1872.884895	89.004895
1874.651598	90.434965
1876.421425	91.541958
1878.187389	94.523077
1879.956477	99.176923
1881.721703	102.215385
1883.486561	102.268531
1885.252795	103.227972
1887.015171	99.913287
1888.777180	98.999301
1890.538822	94.894406
1892.300096	92.176224
1894.061003	90.224476
1895.821544	88.814685
1897.579975	89.888811
1899.338041	91.106993
1901.093998	93.864336
1902.851333	93.598601
1904.608301	94.697203
1906.363164	95.902098
1908.115921	92.945455
1909.868315	93.168531
1911.622084	91.234965
1913.373750	90.699301
1915.123314	92.404196
1916.874254	93.797902
1918.624830	96.283217
1920.371568	96.021678
1922.119681	96.481119
1923.865695	93.768531
1925.613085	93.370629
1927.358376	93.493007
1929.101570	92.625874
1930.846140	92.068531
1932.588613	90.759441
1934.330726	92.406993
1936.072479	93.727273
1937.813873	93.504895
1939.553173	93.748252
1941.292114	93.023077
1943.030696	92.376923
1944.767186	91.044755
1946.503319	91.776923
1948.240826	94.220979
1949.974512	94.585315
1951.709571	94.956643
1953.442543	94.577622
1955.175158	94.483217
1956.907416	93.731469
1958.639318	91.611888
1960.369134	90.432867
1962.096866	90.391608
1963.825971	89.855245
1965.554722	90.532168
1967.281389	91.205594
1969.007702	91.661538
1970.735388	91.972727
1972.457538	91.113986
1974.182789	94.954545
1975.904234	95.304895
1977.628778	96.807692
1979.351243	95.713287
1981.069904	96.448951
1982.791664	94.997902
1984.509622	93.578322
1986.228954	93.412587
1987.944485	90.447552
1989.664838	87.629371
1991.381391	86.204895
1993.094149	84.462238
1994.810002	89.674825
1996.523782	91.815385
1998.237213	93.485315
1999.948573	93.067832
2001.661306	94.741259
2003.370247	94.925874
2005.082282	94.598601
2006.788807	90.958741
2008.498425	91.139860
2010.205975	94.158741
2011.913178	95.644056
2013.618315	95.597902
2015.323105	99.255944
2017.029267	102.234266
2018.731647	101.295105
2020.435399	99.953846
2022.137087	102.374126
2023.838431	102.160839
2025.539429	98.197902
2027.238367	95.139161
2028.938675	97.672028
2030.635209	100.252448
2032.333114	99.095804
2034.028961	99.402098
2035.727892	100.414685
2037.421338	101.092308
2039.116156	101.423776
2040.810630	101.317483
2042.501336	101.648252
2044.195126	98.347552
2045.885149	96.012587
2047.576543	93.362937
2049.265884	90.977622
2050.956595	90.003497
2052.643544	86.974126
2054.330152	87.248951
2056.018131	87.751748
2057.702350	89.307692
2059.387939	92.590210
2061.073189	94.213986
2062.756391	92.106993
2064.440962	93.801399
2066.120071	95.418881
2067.803965	95.876923
2069.482399	96.720280
2071.163909	98.348252
2072.841669	97.875524
2074.519091	98.291608
2076.197884	97.137762
2077.874633	99.123776
2079.549341	97.038462
2081.225418	94.213287
2082.899455	92.172028
2084.573156	93.609790
2086.246522	91.979720
2087.917850	91.425874
2089.588843	91.773427
2091.259502	93.393007
2092.929826	93.703497
2094.599817	95.200699
2096.267772	94.737063
2097.935394	99.824476
2099.600982	97.390909
2101.267938	98.861538
2102.932861	102.404895
2104.597451	100.428671
2106.260010	98.751049
2107.923937	96.241259
2109.585834	94.019580
2111.247399	93.302797
2112.908634	92.565734
2114.567839	91.711189
2116.226715	91.366434
2117.885260	94.486713
2119.543476	93.354545
2121.197968	95.150350
2122.855525	95.036364
2124.512753	89.164336
2126.166259	89.416783
2127.821133	90.870629
2129.472289	94.106993
2131.126506	95.417483
2132.777007	94.363636
2134.428874	95.927972
2136.075333	98.120280
2137.726547	98.081119
2139.374047	95.379021
2141.022914	95.924476
2142.669763	92.632168
2144.316285	90.022378
2145.962482	88.830070
2147.604971	93.003497
2149.250518	94.040559
2150.892358	93.652448
2152.537255	93.374126
2154.178447	96.378322
2155.819315	95.460140
2157.459860	94.490210
2159.098392	92.730070
2160.738290	95.208392
2162.374488	94.453846
2164.012052	92.764336
2165.649293	90.530070
2167.284525	94.350350
2168.919436	92.992308
2170.554025	94.994406
2172.188292	94.884615
2173.818867	95.959441
2175.452492	94.855245
2177.082426	96.123077
2178.713725	94.836364
2180.343020	96.879720
2181.971994	96.007692
2183.600650	95.016084
2185.228986	95.576224
2186.855319	96.629371
2188.481334	93.654545
2190.105348	92.301399
2191.730726	90.960140
2193.354105	90.661538
2194.978847	89.343357
2196.599909	88.560839
2198.220654	86.637762
2199.842764	87.548951
2201.462876	87.825175
2203.080991	87.865734
2204.698791	89.172028
2206.316276	89.786014
2207.933445	88.683916
2209.550299	90.516783
2211.166838	92.196503
2212.781383	93.295804
2214.393936	92.837762
2216.007853	91.148951
2217.619779	89.378322
2219.233068	89.379720
2220.844367	88.535664
2222.453676	86.126573
2224.064349	87.298601
2225.673033	88.035664
2227.281405	87.930769
2228.887789	89.391608
2230.495537	89.765035
2232.101298	89.911189
2233.706748	87.686713
2235.310214	87.697902
2236.915042	86.576224
2238.517886	85.721678
2240.118747	84.388112
2241.720971	83.483916
2243.321212	86.005594
2244.922816	87.288811
2246.520768	87.933566
2248.120082	88.183916
2249.717416	90.662238
2251.314442	93.335664
2252.912829	93.808392
2254.507568	97.112587
2256.100331	95.084615
2257.694455	93.998601
2259.289941	93.475524
2260.881783	91.590909
2262.473318	89.832168
2264.066214	90.458042
2265.653801	88.669231
2267.246085	88.380420
2268.833061	88.408392
2270.423066	88.152448
2272.007766	86.876224
2273.597160	86.984615
2275.181251	84.320979
2276.766704	84.524476
2278.350187	83.595804
2279.936697	82.709091
2281.519573	84.645455
2283.102145	88.454196
2284.684414	88.777622
2286.263054	89.370280
2287.844717	87.127972
2289.422752	87.101049
2291.003810	85.277622
2292.581242	83.017133
2294.156710	81.273427
2295.735199	81.505245
2297.310065	81.236364
2298.884630	81.719930
2300.458895	82.641958
2302.032859	84.208741
2303.606523	82.958741
2305.179886	82.915385
2306.749631	83.767133
2308.319077	86.062937
2309.891542	85.753147
2311.458731	84.555944
2313.028939	83.244755
2314.595532	86.276224
2316.163485	88.133566
2317.729483	88.957343
2319.295182	88.124476
2320.860585	91.446154
2322.424034	92.634965
2323.988841	95.676923
2325.550041	95.107692
2327.114255	98.702797
2328.673208	97.904196
2330.235174	97.540559
2331.795190	95.082517
2333.354910	95.688112
2334.912681	94.149650
2336.470158	89.011189
2338.027339	87.889510
2339.582574	90.034266
2341.137514	89.315385
2342.692161	87.234266
2344.246514	85.878322
2345.800573	88.977622
2347.354338	89.959441
2348.906160	89.734266
2350.456038	88.446154
2352.008924	87.470629
2353.556568	84.737762
2355.107219	81.557343
2356.654280	84.330769
2358.202698	84.488112
2359.750824	82.721678
2361.295363	82.463636
2362.841259	83.881818
2364.385216	86.855245
2365.930531	85.609091
2367.472261	85.242657
2369.015348	85.900000
2370.556500	87.241958
2372.097362	87.061538
2373.637935	88.013287
2375.178219	88.203497
2376.718214	88.442657
2378.254630	85.231469
2379.794048	84.855245
2381.329889	84.202098
2382.867086	87.530070
2384.400709	86.193007
2385.937331	86.937762
2387.472022	84.590909
2389.004784	86.677622
2390.537260	84.500699
2392.067807	85.157343
2393.601352	84.041259
2395.129686	84.461538
2396.659376	82.115385
2398.188781	84.162937
2399.717900	84.704895
2401.246735	89.040559
2402.770365	87.833566
2404.298630	87.102797
2405.821692	86.632867
2407.349388	88.402797
2408.870245	86.579720
2410.395735	86.346154
2411.917664	85.795804
2413.440949	86.419580
2414.962313	86.493706
2416.481757	88.199301
2418.002556	86.327972
2419.521436	85.706294
2421.040034	82.828671
2422.556715	85.155944
2424.074750	86.985315
2425.592504	86.844755
2427.106707	84.395804
2428.620629	83.208392
2430.134272	84.548252
2431.649268	82.605594
2433.160716	81.681119
2434.673519	81.951748
2436.184409	79.813287
2437.695019	80.827273
2439.203718	81.802098
2440.715404	84.907692
2442.223546	82.751049
2443.731409	82.097902
2445.238995	79.925874
2446.743040	78.999301
2448.250071	77.810490
2449.755193	75.466434
2451.260038	75.955944
2452.762976	77.720280
2454.265637	74.264336
2455.768022	73.551049
2457.268502	74.045455
2458.770335	75.332168
2460.270264	73.927972
2461.769917	75.553147
2463.269295	74.469930
2464.766769	75.972028
2466.262343	78.186014
2467.760896	78.666434
2469.255920	80.473427
2470.752298	82.722378
2472.245149	79.020979
2473.739352	79.649650
2475.233282	82.157343
2476.723689	84.020280
2478.217072	82.462937
2479.708558	81.834266
2481.198147	78.323776
2482.687464	78.797902
2484.174886	78.704895
2485.665283	78.806294
2487.152161	80.807692
2488.640391	82.525175
2490.125105	82.211888
2491.609548	84.354545
2493.095343	85.595105
2494.579245	84.285315
2496.064499	80.965734
2497.544619	79.922378
2499.027711	74.414685
2500.508913	72.953147
2501.989846	71.979720
2503.468890	72.962937
2504.947666	72.669231
2506.426172	74.156643
2507.904411	73.121678
2509.382381	71.986713
2510.856847	70.256643
2512.334281	69.079720
2513.808212	67.159441
2515.283494	69.052448
2516.758508	67.320979
2518.230021	66.762238
2519.702885	69.907692
2521.173865	74.311189
2522.646196	75.970629
2524.113414	79.324476
2525.583597	77.600000
2527.051900	77.495804
2528.519938	77.440559
2529.987711	78.696503
2531.455219	74.623077
2532.922462	76.144056
2534.386213	73.627972
2535.851315	71.472727
2537.314538	69.433566
2538.779112	69.007692
2540.240196	66.291608
2541.702630	66.573427
2543.164801	67.473427
2544.623486	70.216783
2546.086743	71.477622
2547.544903	75.053147
2549.004412	75.600699
2550.458828	79.695105
2551.917813	78.491608
2553.374927	78.174825
2554.830170	76.935664
2556.285152	77.468531
2557.738264	73.253846
2559.192725	72.183916
2560.645317	73.022378
2562.097649	72.393007
2563.548113	71.401399
2565.001533	72.082517
2566.449871	69.342657
2567.901165	67.988112
2569.350592	67.054545
2570.796548	69.322378
2572.245458	67.986713
2573.690897	68.436364
2575.137685	68.138462
2576.582609	70.199301
2578.027276	72.888811
2579.473290	74.427273
2580.915837	74.596503
2582.359732	75.083217
2583.800162	71.031469
2585.241940	73.393706
2586.681857	73.506294
2588.123122	73.666434
2589.560926	70.484615
2591.001679	73.216084
2592.437369	70.811189
2593.876009	70.655245
2595.312792	71.056643
2596.747718	71.050350
2598.185593	69.925874
2599.618410	69.067832
2601.052573	65.344056
2602.484883	69.396503
2603.918539	67.089510
2605.350342	67.095105
2606.781892	66.575524
2608.213188	67.000000
2609.642633	62.586713
2611.071825	64.964336
2612.499166	67.145455
2613.927854	68.895105
2615.356289	68.834965
2616.781277	70.613986
2618.207612	71.704196
2619.632098	75.244755
2621.057930	74.012587
2622.480318	74.431469
2623.904052	73.957343
2625.325940	70.827972
2626.747577	67.834965
2628.167369	68.300699
2629.588507	65.845455
2631.009395	65.653147
2632.426845	65.206993
2633.847234	66.788112
2635.264186	67.016084
2636.680890	58.013986
2638.097345	69.062937
2639.513552	76.804196
2640.929510	84.551748
2642.343628	89.784615
2643.757499	93.281119
2645.169530	94.975524
2646.582906	91.423077
2647.992852	91.104895
2649.405733	86.487413
2650.815187	79.489510
2652.224394	69.779021
2653.631765	59.590210
2655.042070	67.516783
2656.450539	66.732867
2657.857173	69.325175
2659.263562	71.185315
2660.668117	69.887413
2662.074016	70.690909
2663.478082	70.689510
2664.881904	69.281119
2666.285481	68.308392
2667.687226	69.688112
2669.090315	71.203497
2670.489987	74.437063
2671.891001	73.968531
2673.288600	76.962238
2674.689129	77.686713
2676.086243	75.386014
2677.484700	72.802098
2678.881329	72.855944
2680.277716	69.244755
2681.673862	63.414685
2683.068181	60.514685
2684.463843	60.167133
2685.856095	59.037063
2687.249691	59.088112
2688.641462	57.364336
2690.034575	60.549650
2691.425865	61.530769
2692.815332	63.407692
2694.204560	65.452448
2695.593547	67.659441
2696.983877	66.779720
2698.369222	66.861538
2699.757491	65.596503
2701.143940	64.510490
2702.530150	64.715385
2703.916122	63.923776
2705.298695	64.155944
2706.682609	66.837063
2708.066286	66.274825
2709.449725	68.422378
2710.829768	64.492308
2712.211153	65.170629
2713.590722	63.646154
2714.971633	63.308392
2716.350729	63.685315
2717.728010	63.367832
2719.106633	64.966434
2720.483443	66.395105
2721.860017	66.327972
2723.236355	68.339860
2724.610881	67.748951
2725.986748	68.071329
2727.359228	65.916084
2728.734625	67.175524
2730.105060	65.067133
2731.476837	65.309790
2732.848380	66.480420
2734.218114	66.433566
2735.589188	65.530769
2736.958455	64.930070
2738.327488	62.513287
2739.694714	63.193706
2741.061708	62.364336
2742.428469	63.108392
2743.794997	64.595804
2745.159720	64.989510
2746.524212	63.506294
2747.888471	65.429371
2749.252499	64.786713
2750.616294	63.211888
2751.976716	60.113986
2753.340049	59.004196
2754.698439	56.860140
2756.059739	58.192308
2757.417668	60.823776
2758.778507	61.826573
2760.137545	62.455944
2761.493215	58.911189
2762.851793	63.669930
2764.207005	68.225175
2765.561987	69.560839
2766.915172	71.378322
2768.271264	71.440559
2769.623992	70.956643
2770.976491	68.013287
2772.328762	70.831469
2773.682372	67.424476
2775.032620	61.787413
2776.381075	60.420280
2777.732434	57.756643
2779.080434	61.888112
2780.429773	62.807692
2781.777319	64.091608
2783.124638	64.698601
2784.471731	62.462238
2785.817033	59.966434
2787.162109	58.739860
2788.506959	60.618182
2789.851582	57.975524
2791.192854	59.823077
2792.535464	61.945455
2793.877848	62.264336
2795.220008	62.217483
2796.558818	65.104196
2797.900527	62.688112
2799.238889	62.637762
2800.578588	59.657343
2801.916501	56.988112
2803.252630	58.467832
2804.588536	59.486014
2805.925778	60.738462
2807.261237	63.167133
2808.596473	62.574825
2809.929927	64.600000
2811.264717	65.666434
2812.596166	64.711189
2813.930511	60.344056
2815.259958	63.532168
2816.590742	60.244056
2817.921304	59.273427
2819.250087	61.927972
2820.580207	62.870629
2821.908547	63.113287
2823.236667	64.659441
2824.563010	63.900699
2825.890688	65.316783
2827.215034	64.370629
2828.540715	63.544755
2829.864621	62.807692
2831.188308	65.438462
2832.513330	61.733566
2833.835023	59.919580
2835.156496	58.532168
2836.477751	58.857343
2837.798787	55.782517
2839.118051	58.218182
2840.438650	55.490909
2841.757477	56.305594
2843.076086	55.597203
2844.392925	58.023776
2845.709546	57.697902
2847.025949	59.989510
2848.340584	59.088112
2849.656553	58.738462
2850.969202	56.618881
2852.283187	58.057343
2853.596955	56.639860
2854.910506	58.846853
2856.222290	58.414685
2857.532309	60.782517
2858.843661	60.106294
2860.151699	60.730769
2861.461072	59.552448
2862.770229	57.994406
2864.079171	56.065734
2865.386350	55.729371
2866.691765	52.816783
2867.998515	53.589510
2869.303502	54.587413
2870.608276	57.579021
2871.911288	60.300699
2873.217182	63.984615
2874.518220	62.132168
2875.820593	64.216084
2877.121206	63.679720
2878.423153	60.742657
2879.724887	59.471329
2881.023317	60.109091
2882.323080	58.172727
2883.621085	58.483916
2884.918879	58.020280
2886.214917	58.903497
2887.512288	58.480420
2888.807903	60.587413
2890.103307	57.378322
2891.398501	61.697902
2892.690396	61.123776
2893.985168	60.421678
2895.276643	58.579021
2896.569452	59.181119
2897.862049	58.677622
2899.151353	60.180420
2900.441989	58.420280
2901.730874	56.419580
2903.021092	56.793706
2904.308018	58.516783
2905.596276	55.500699
2906.882784	58.937762
2908.169085	57.669231
2909.455177	57.769231
2910.739521	53.667832
2912.026737	57.379021
2913.309126	59.939161
2914.592846	62.239860
2915.874821	63.291608
2917.156589	62.856643
2918.436611	65.421678
2919.719503	66.333566
2921.000650	63.505594
2922.278515	64.836364
2923.559249	62.728671
2924.836702	61.415385
2926.113950	57.490909
2927.389455	61.748252
2928.667828	63.289510
2929.941386	62.431469
2931.217812	62.511189
2932.492497	61.220979
2933.765442	61.190210
2935.039717	60.025175
2936.312253	57.348252
2937.584585	57.034965
2938.853644	54.128671
2940.125567	52.606294
2941.395753	50.287413
2942.665736	50.608392
2943.935515	48.663636
2945.203557	47.096503
2946.469864	47.972028
2947.735968	52.448951
2949.003402	54.377622
2950.269102	57.002098
2951.534599	58.870629
2952.799894	61.385315
2954.061924	59.938462
2955.325285	60.139860
2956.588444	58.468531
2957.849870	55.143357
2959.112626	50.744755
2960.373651	50.483916
2961.632945	49.866434
2962.892038	51.265035
2964.150931	50.334266
2965.409624	50.976224
2966.668117	51.139860
2967.924881	52.032867
2969.181445	52.754545
2970.436282	53.763636
2971.692448	52.034965
2972.945358	50.665035
2974.199598	51.346853
2975.453639	52.339161
2976.705954	53.055944
2977.958071	53.518182
2979.208463	54.238462
2980.461710	54.053846
2981.710180	53.543357
2982.961504	55.000699
2984.209580	55.555944
2985.457458	52.069231
2986.705139	49.399301
2987.952624	50.121678
2989.198387	51.019580
2990.443953	49.386014
2991.690848	50.099301
2992.934497	49.024476
2994.179475	49.751748
2995.421210	51.544755
2996.665796	50.639860
2997.908662	53.139860
2999.148288	53.934965
3000.390765	52.377622
3001.630001	52.290909
3002.870565	51.227273
3004.109412	51.115385
3005.348065	50.003497
3006.585002	50.809790
3007.823266	50.578322
3009.059816	50.769231
3010.296171	51.006993
3011.532333	50.318881
3012.766782	51.551049
3014.001037	52.313287
3015.235099	51.982517
3016.467449	51.837063
3017.698087	50.614685
3018.931571	51.485315
3020.163343	51.259441
3021.393405	51.873427
3022.623275	52.677622
3023.851435	51.597203
3025.080921	51.795105
3026.308699	52.176224
3027.536285	54.039860
3028.765197	53.009790
3029.989367	53.349650
3031.216380	53.576923
3032.440170	52.210490
3033.665285	49.028671
3034.888694	47.843357
3036.111914	47.318182
3037.333428	45.993007
3038.557783	44.799301
3039.777403	47.506294
3040.998348	51.227972
3042.219105	55.333566
3043.438158	55.926573
3044.658537	57.656643
3045.875699	57.470629
3047.094186	57.225175
3048.310972	52.966434
3049.527569	50.381119
3050.743979	46.309790
3051.957175	44.079720
3053.173209	42.775524
3054.386031	44.458042
3055.601690	43.350350
3056.812626	44.022378
3058.024887	44.072727
3059.236962	44.704196
3060.448850	44.527972
3061.659040	45.990909
3062.869045	43.940909
3064.078863	42.783916
3065.286985	41.419930
3066.494921	42.967133
3067.701163	42.215035
3068.908728	42.840559
3070.114600	41.163986
3071.320286	44.842657
3072.525787	46.040210
3073.729596	49.023077
3074.934728	49.643706
3076.138167	51.503497
3077.339914	50.772378
3078.541478	49.194406
3079.742858	48.906294
3080.944054	50.618182
3082.143560	47.877622
3083.342882	51.139161
3084.543528	51.927972
3085.742485	54.879720
3086.938246	52.677622
3088.136837	52.279021
3089.332234	51.417483
3090.528954	49.809790
3091.722482	47.148252
3092.918839	44.913986
3094.113508	42.171329
3095.304987	43.624476
3096.500797	40.234965
3097.691914	44.045455
3098.884353	42.944056
3100.073605	45.555245
3101.265683	44.029371
3102.456076	45.953846
3103.643284	47.188811
3104.831815	47.490210
3106.021668	47.093706
3107.208336	43.662238
3108.394825	43.810490
3109.581134	46.616084
3110.768765	42.946154
3111.953215	40.809091
3113.135984	39.267133
3114.321577	40.239161
3115.505489	39.504196
3116.687723	40.272028
3117.869779	39.453846
3119.051656	39.455944
3120.233355	38.091608
3121.413376	37.318182
3122.591721	40.920979
3123.772887	40.145455
3124.950877	39.160140
3126.128690	39.096503
3127.306326	41.392308
3128.482287	43.499301
3129.658072	44.790210
3130.835177	44.113986
3132.010608	43.016783
3133.184366	43.525175
3134.356452	42.095105
3135.529858	41.947552
3136.703089	39.009790
3137.874647	37.391608
3139.047527	38.294406
3140.217239	39.673427
3141.388272	37.920280
3142.557634	38.269231
3143.725327	37.072028
3144.895835	36.547552
3146.061684	37.738462
3147.231843	40.669930
3148.397344	39.727972
3149.562672	40.039860
3150.727826	39.962238
3151.892806	42.151748
3153.059107	44.617483
3154.220754	46.792308
3155.383722	44.833566
3156.546516	43.104895
3157.709138	40.865734
3158.870095	40.968531
3160.030879	39.395105
3161.191491	38.460839
3162.350440	33.613287
3163.509216	32.148252
3164.667821	31.144056
3165.826254	32.751748
3166.984515	34.805594
3168.141114	37.106294
3169.296052	38.275524
3170.452309	35.948951
3171.606906	37.574126
3172.761331	38.174126
3173.914097	38.646154
3175.066693	39.541958
3176.219118	40.275524
3177.371374	42.839161
3178.523460	42.612587
3179.672399	43.701399
3180.824145	40.761538
3181.974234	42.610490
3183.122665	43.062238
3184.270928	41.719580
3185.419021	41.548951
3186.566946	39.404895
3187.713216	40.286713
3188.859317	38.644056
3190.003763	38.332168
3191.148042	39.032168
3192.292153	37.335664
3193.437582	36.625175
3194.579872	36.018881
3195.721994	38.087413
3196.863950	38.627273
3198.005738	39.708392
3199.147359	39.646853
3200.285844	39.321678
3201.425647	38.495804
3202.566768	37.572028
3203.704754	37.999301
3204.841091	39.105594
3205.977262	38.758741
3207.114751	37.943357
3208.250591	36.356643
3209.387747	34.085315
3210.520291	34.411189
3211.657117	32.386014
3212.789331	31.304196
3213.922863	32.062937
3215.056229	36.257343
3216.186468	39.973427
3217.319505	43.207692
3218.449416	43.953147
3219.580644	45.312587
3220.708746	45.600699
3221.839645	43.726573
3222.968901	43.172028
3224.096512	43.713287
3225.221002	39.975524
3226.349767	36.535664
3227.475410	36.306993
3228.600890	38.919580
3229.724729	37.916084
3230.851362	37.113986
3231.973398	35.155245
3233.096750	33.072028
3234.219940	32.582517
3235.342968	30.344755
3236.464356	31.780420
3237.585583	32.251049
3238.705171	29.981818
3239.824598	31.036364
3240.942387	35.130769
3242.062969	37.906993
3243.180436	39.144755
3244.297744	38.706993
3245.414890	39.902098
3246.530401	40.156643
3247.647227	41.095804
3248.760942	40.486014
3249.877448	40.622378
3250.992318	37.339860
3252.104080	36.231469
3253.215683	37.724476
3254.328600	35.413986
3255.441359	33.043357
3256.551011	31.727972
3257.661978	31.409091
3258.772786	31.861538
3259.881962	29.541958
3260.989507	35.455245
3262.098367	41.215385
3263.207068	45.072028
3264.312667	46.212587
3265.419581	45.655944
3266.524865	46.969930
3267.631463	45.239860
3268.734961	43.433566
3269.839773	41.835664
3270.944428	37.459441
3272.045984	32.227972
3273.147385	28.951748
3274.250099	34.896503
3275.352656	36.481818
3276.452118	38.247552
3277.554362	36.822378
3278.653512	34.134266
3279.751036	36.197902
3280.848405	36.329371
3281.948557	33.272028
3283.045615	33.601399
3284.142518	31.440559
3285.239267	32.881119
3286.331456	34.836364
3287.427895	37.317483
3288.522711	38.625874
3289.617372	39.081119
3290.710412	38.226573
3291.803298	37.520979
3292.894563	35.104895
3293.987141	34.921678
3295.078098	31.604196
3296.167437	32.685315
3297.256621	32.503497
3298.347119	33.953147
3299.434532	32.305594
3300.521793	29.512587
3301.610366	27.062937
3302.698786	26.764336
3303.782659	27.221678
3304.870774	29.936364
3305.955808	28.761538
3307.039226	30.625874
3308.123955	31.497203
3309.207070	34.451049
3310.291496	34.131469
3311.372844	33.429371
3312.455504	30.480420
3313.536550	29.636364
3314.617445	28.581818
3315.696727	28.373427
3316.775858	27.895105
3317.856300	30.888112
3318.933669	29.688811
3320.012349	30.292308
3321.089417	29.913287
3322.166335	28.083217
3323.241642	26.024476
3324.316800	24.729371
3325.393270	23.066434
3326.466668	24.482517
3327.539918	23.593007
3328.614479	23.463636
3329.687430	25.611189
3330.758774	28.544056
3331.831428	28.282517
3332.901015	28.970629
3333.971913	27.477622
3335.041204	25.568531
3336.111806	24.325874
3337.180801	25.890909
3338.248190	26.699301
3339.313974	25.670629
3340.383984	26.601399
3341.450931	28.000000
3342.514816	28.596503
3343.581469	26.930070
3344.646517	24.618182
3345.709963	24.920280
3346.773261	21.154545
3347.836414	19.112587
3348.899420	18.285315
3349.962279	21.916783
3351.023537	19.827273
3352.081738	19.276923
3353.144160	23.742657
3354.203525	27.176224
3355.262745	28.171329
3356.323275	29.241958
3357.379295	30.144755
3358.438080	29.211888
3359.492357	23.878322
3360.549397	21.162937
3361.604840	18.860839
3362.661591	17.624476
3363.716745	13.685315
3364.770301	13.755245
3365.822260	14.716084
3366.876981	18.813986
3367.928653	19.590210
3368.980182	22.814685
3370.033020	22.726573
3371.082810	22.393706
3372.133908	19.986014
3373.181961	22.366434
3374.232774	23.937063
3375.280541	24.727273
3376.328166	24.136364
3377.375649	24.147552
3378.421538	25.312587
3379.468736	28.611189
3380.512892	27.516783
3381.559806	28.672727
3382.605128	23.748252
3383.647410	23.345455
3384.689550	21.288112
3385.732998	20.880420
3386.776306	20.049650
3387.818023	19.355944
3388.859599	18.313986
3389.901035	20.541259
3390.940881	22.085315
3391.979140	24.494406
3393.018706	24.802098
3394.058131	26.484615
3395.095970	24.500000
3396.132221	24.823077
3397.168332	21.786713
3398.205751	18.847552
3399.240137	17.536364
3400.275830	15.343357
3401.311384	14.676224
3402.343907	15.529371
3403.379183	14.453147
3404.411428	17.256643
3405.443535	19.297902
3406.474058	20.795105
3407.505889	19.636364
3408.537580	21.955944
3409.566245	21.216084
3410.594771	21.186713
3411.624605	21.504895
3412.654300	21.132168
3413.680970	20.979720
3414.708947	21.650350
3415.733899	21.680420
3416.761601	23.672028
3417.786280	22.395804
3418.812265	22.609790
3419.836670	22.124476
3420.860939	25.154545
3421.883629	21.716084
3422.906183	23.247552
3423.930043	22.024476
3424.950883	21.755245
3425.971588	21.607692
3426.993598	21.290210
3428.012590	20.682517
3429.031447	19.664336
3430.051609	18.115385
3431.068755	15.915385
