-118.187858	-9.368407
-115.518258	-0.385714
-112.851593	5.290559
-110.185680	8.225974
-107.522699	8.986089
-104.858289	8.136464
-102.196809	6.242657
-99.533899	4.190210
-96.876097	3.532867
-94.216864	2.918182
-91.558380	1.262238
-88.902821	-1.261538
-86.245833	-1.872028
-83.593942	-1.456643
-80.940622	2.804196
-78.290222	2.885315
-75.638392	3.465035
-72.991653	3.565035
-70.343484	3.398601
-67.696059	2.378322
-65.051547	4.613287
-62.405607	3.711888
-59.764748	3.479021
-57.122460	2.547552
-54.483080	1.023077
-51.842272	4.788112
-49.202204	7.039860
-46.567208	8.915385
-43.930783	10.657343
-41.297262	9.144056
-38.662312	9.981818
-36.032427	9.974126
-33.398950	12.372727
-30.770535	12.368531
-28.142853	12.753846
-25.513744	7.665035
-22.889691	-36.965035
-20.262049	-184.349650
-17.639460	-417.793007
-15.017602	-615.806294
-12.396476	256.413986
-9.776079	2189.729371
-7.158570	3885.736364
-4.539633	5087.438462
-1.923582	5787.669930
0.691741	5989.686014
3.306337	5688.237063
5.918050	4891.934965
8.531192	3619.944056
11.139300	1982.155944
13.750990	309.639860
16.357649	-852.888112
18.965736	-730.516783
21.573099	-101.172028
24.175437	7.280420
26.781353	9.281119
29.382247	7.072028
31.984570	7.967133
34.581874	9.161538
37.182754	10.786713
39.778620	10.332168
42.375913	10.450350
44.972487	9.932867
47.564052	8.176224
50.157045	6.230769
52.747177	3.448951
55.338737	-1.079021
57.927437	-2.778322
60.517564	-3.815385
63.102693	-3.349650
65.689249	-1.267832
68.275090	1.906993
70.858078	4.268531
73.442493	7.845455
76.019778	8.867133
78.600630	8.158042
81.178633	8.890210
83.755926	6.773427
86.334645	5.644056
88.908383	2.625874
91.483547	1.421678
94.055868	-0.216084
96.627481	-1.988811
99.196255	1.117483
101.766455	3.000699
104.333816	4.667133
106.902604	4.983217
109.468554	7.004895
112.031670	8.480420
114.598342	11.523077
117.155793	11.763636
119.718929	13.251748
122.277106	15.928671
124.838836	25.499301
127.395611	40.334266
129.953811	64.971329
132.507059	95.505594
135.059608	131.609091
137.615708	171.289510
140.166861	210.802098
142.717315	248.846853
145.267073	286.395105
147.814011	312.841259
150.360253	331.937762
152.907922	340.901399
155.454894	348.500699
157.996930	351.163636
160.538273	352.476224
163.078924	350.833566
165.620999	347.502797
168.160264	341.223077
170.696719	334.778322
173.232484	332.762937
175.769674	333.401399
178.306172	328.697902
180.839865	326.442657
183.370755	323.930070
185.900956	326.749650
188.432582	326.720979
190.961407	327.483916
193.487433	328.729371
196.012774	327.039860
198.539539	325.106294
201.063508	327.573427
203.586791	328.620979
206.109390	331.276224
208.629196	330.980420
211.148319	333.303497
213.666759	335.509790
216.186623	342.526573
218.699486	345.850350
221.215880	352.580420
223.731592	359.008392
226.242415	363.669930
228.754662	369.565035
231.264126	378.608392
233.772912	384.870629
236.281020	391.623077
238.790551	393.075524
241.295203	395.527972
243.799178	398.511888
246.304577	403.540559
248.805101	402.881818
251.309148	406.823077
253.806225	409.090909
256.306824	408.351049
258.804652	407.139161
261.301807	406.960839
263.798289	411.763636
266.289909	412.558741
268.785047	411.786014
271.277420	416.555245
273.769122	419.469930
276.258061	425.202797
278.748423	426.557343
281.236024	434.288811
283.720865	438.353846
286.209220	440.929371
288.690636	445.743357
291.175566	451.917483
293.655651	466.267133
296.139248	475.035664
298.618002	480.141958
301.098180	489.450350
303.575605	491.723077
306.052367	495.542657
308.528466	495.666434
311.001816	498.742657
313.474504	500.327273
315.946531	501.813287
318.417897	499.170629
320.886519	496.662238
323.354481	493.909091
325.823866	485.725175
328.288428	476.564336
330.756493	467.183916
333.219739	454.653846
335.682328	444.760839
338.144259	437.897902
340.605534	436.306993
343.064075	438.296503
345.524038	436.975524
347.981269	432.834266
350.437844	428.904196
352.893766	425.306993
355.346959	422.238462
357.801573	418.702797
360.251386	414.323077
362.704696	410.688811
365.153206	406.160140
367.601066	407.116084
370.050347	408.171329
372.494835	410.090909
374.940745	411.132867
377.386006	409.895804
379.828548	410.518881
382.270442	407.388811
384.711688	406.082517
387.150219	402.488112
389.590172	401.499301
392.027411	398.280420
394.461938	396.979720
396.899953	395.579021
399.333191	396.720280
401.767851	396.730070
404.197737	395.011189
406.631109	393.541259
409.059711	393.695804
411.487672	392.029371
413.917053	394.854545
416.341669	392.264336
418.767707	393.972727
421.193104	395.482517
423.617861	399.211888
426.037860	401.761538
428.459280	405.055245
430.878003	403.917483
433.298147	402.127972
435.715596	399.822378
438.134465	397.710490
440.550641	395.285315
442.962070	388.835664
445.376975	378.599301
447.789190	374.072727
450.200771	367.472727
452.611718	363.679720
455.019979	360.462238
457.427607	358.579720
459.834604	358.302098
462.240968	358.265734
464.644650	358.896503
467.047702	362.631469
469.450124	366.293007
471.851917	370.523077
474.251031	376.047552
476.651565	383.274126
479.051470	390.704895
481.446652	402.191608
483.845301	412.849650
486.239230	425.470629
488.632533	434.834266
491.025210	444.277622
493.417262	453.880420
495.810733	460.036364
498.199491	451.140559
500.585583	411.747552
502.973095	303.940559
505.359983	333.220979
507.744208	1057.660839
510.129852	2664.847552
512.512833	4671.261538
514.893154	6455.367832
517.274894	7724.400699
519.653975	8381.650350
522.034475	8389.132168
524.412317	7744.986713
526.787504	6494.950350
529.162073	4759.973427
531.538061	2797.822378
533.911395	1161.618881
536.286148	394.344755
538.656214	358.348252
541.025665	502.395105
543.396535	534.298601
545.762723	510.159441
548.130330	480.404196
550.495291	451.737063
552.859639	425.582517
555.223375	407.893007
557.588528	389.980420
559.949008	374.983217
562.310907	362.394406
564.670166	353.193007
567.026786	343.321678
569.386851	336.237063
571.740226	328.382517
574.097045	323.344755
576.451228	318.747552
578.804804	313.269231
581.157771	308.412587
583.508107	304.974126
585.859859	300.588112
588.204935	296.504196
590.555475	295.172727
592.899342	295.241958
595.248669	292.961538
597.593349	293.327273
599.935404	294.314685
602.278875	297.346154
604.619724	298.654545
606.959971	298.311189
609.297597	297.590909
611.638658	299.534965
613.975082	300.990210
616.312922	300.966434
618.648144	302.490210
620.980751	297.848252
623.314775	295.053147
625.646184	291.073427
627.976995	289.202098
630.307208	285.634965
632.636823	281.872727
634.961816	278.015385
637.292250	274.225874
639.618062	271.544755
641.941268	269.133566
644.265889	267.835664
646.587906	266.365734
648.909328	265.873427
651.228147	268.390909
653.548382	268.846154
655.868024	271.628671
658.185065	273.470629
660.501515	278.065035
662.815366	278.555944
665.130632	275.951049
667.443302	272.737762
669.757387	269.800699
672.066872	265.788112
674.377773	264.090210
676.686081	266.318881
678.993801	263.683217
681.302936	261.832168
683.607478	260.486713
685.911434	258.506993
688.214803	258.236364
690.519587	253.590909
692.819785	249.517483
695.121398	245.787413
697.422425	243.113986
699.718870	240.113287
702.016731	240.046853
704.314008	239.679021
706.610702	236.607692
708.902820	235.089510
711.198349	232.829371
713.489305	232.388811
715.781675	232.121678
718.071469	230.944056
720.360684	231.778322
722.649318	231.869231
724.935381	233.578322
727.222857	234.446853
729.507763	236.379720
731.792090	237.192308
734.073849	238.311189
736.357023	234.744056
738.639618	232.981119
740.917659	234.318182
743.197113	235.292308
745.475992	233.794406
747.754295	233.427273
750.028049	232.218182
752.303217	232.406993
754.577811	233.896503
756.849846	237.482517
759.123293	236.955944
761.394183	238.843357
763.662517	237.614685
765.932264	239.189510
768.199457	242.206993
770.466079	244.667133
772.732132	243.161538
774.995632	244.521678
777.260546	248.496503
779.524890	250.242657
781.784705	252.030769
784.045933	255.322378
786.306593	253.967133
788.564706	256.195105
790.820275	255.358042
793.079235	253.982517
795.331696	256.922378
797.589524	259.430070
799.842832	260.393007
802.093601	262.893007
804.345782	264.498601
806.595425	263.537762
808.846479	263.804895
811.093022	265.969930
813.340978	263.919580
815.586398	259.968531
817.833230	255.481119
820.079501	252.412587
822.321268	251.591608
824.566417	251.200699
826.805094	250.806993
829.047154	250.488811
831.284715	248.932867
833.523687	248.552448
835.760133	247.861538
837.997991	248.481119
840.233323	247.982517
842.466131	244.925175
844.700351	243.689510
846.932049	241.949650
849.163192	243.160140
851.393780	243.455245
853.623814	244.780420
855.853293	244.983217
858.078291	243.443357
860.306664	241.467832
862.530558	241.374825
864.755862	242.943357
866.976691	242.343357
869.200892	241.780420
871.420620	242.109790
873.641759	243.966434
875.862347	245.779021
878.080425	246.734266
880.299914	250.105594
882.514936	253.228671
884.729410	252.638462
886.943337	252.607692
889.156716	253.723776
891.369549	252.257343
893.581834	250.220979
895.791618	250.258741
898.000856	249.211189
900.209548	249.776224
902.415742	250.576224
904.623345	253.054545
906.828451	253.241259
909.033013	254.464336
911.235079	252.995804
913.438555	252.997203
915.639537	254.264336
917.839978	255.888811
920.041827	259.731469
922.237284	269.503497
924.436101	280.914685
926.630480	304.620979
928.828215	335.669231
931.021515	371.869930
933.216224	410.024476
935.408447	448.062238
937.600132	483.304895
939.791279	514.960839
941.979943	538.070629
944.168070	549.092308
946.353717	555.685315
948.542716	556.211888
950.727292	550.103497
952.911333	549.744755
955.098724	547.515385
957.277812	548.088811
959.460249	551.795804
961.642153	554.809790
963.821583	559.648951
965.998540	567.404196
968.176905	570.204196
970.356676	569.529371
972.530099	573.618881
974.706868	574.813287
976.879231	573.028671
979.053000	570.561538
981.222366	562.551748
983.395077	551.800699
985.565321	536.406993
987.735037	513.537063
989.904224	485.153846
992.069014	459.561538
994.237145	430.801399
996.400882	402.574126
998.566025	380.262937
1000.728710	364.495105
1002.890868	351.181818
1005.050570	341.974825
1007.209748	336.207692
1009.370332	332.551049
1011.528461	326.757343
1013.686066	322.179720
1015.843148	317.441958
1017.999707	315.213986
1020.151886	310.041259
1022.305471	305.586014
1024.458535	299.427972
1026.609151	294.848252
1028.761172	290.955245
1030.908820	287.277622
1033.059800	285.551748
1035.206409	282.502098
1037.352500	279.695804
1039.498071	278.032168
1041.645048	276.135664
1043.785737	273.488112
1045.929754	271.182517
1048.071331	269.472028
1050.212392	265.940559
1052.354857	262.255245
1054.491043	262.095804
1056.630555	262.223077
1058.765711	262.906993
1060.904192	263.548951
1063.038320	264.793007
1065.171933	265.988811
1067.306952	267.650350
1069.437621	265.923776
1071.569695	265.608392
1073.699340	262.203497
1075.828473	257.890909
1077.957094	253.201399
1080.085204	251.006993
1082.210888	248.477622
1084.336062	245.643357
1086.462640	240.328671
1088.584881	238.882517
1090.708525	238.885315
1092.827836	239.893007
1094.952375	238.923077
1097.070669	241.213287
1099.190368	239.157343
1101.307648	240.600000
1103.424422	239.529371
1105.540689	238.377622
1107.654541	237.919580
1109.769796	236.274825
1111.880729	233.914685
1113.994973	233.723776
1116.104897	231.777622
1118.216225	233.114685
1120.327049	230.144056
1122.433556	230.116783
1124.543372	226.863636
1126.648874	228.456643
1128.755779	225.611189
1130.856469	224.327273
1132.962371	223.319580
1135.063964	222.456643
1137.166960	220.999301
1139.269455	220.322378
1141.365744	220.330769
1143.467239	220.136364
1145.564432	218.574126
1147.661126	218.004196
1149.757323	216.737762
1151.853021	218.284615
1153.948222	216.872727
1156.041026	216.510490
1158.135232	216.030070
1160.223247	217.337063
1162.316460	217.641958
1164.403485	219.149650
1166.493810	218.977622
1168.579846	216.347552
1170.669180	215.420979
1172.752333	212.037063
1174.836889	211.116084
1176.922845	210.460839
1179.004520	210.406294
1181.087597	210.441259
1183.168288	210.731469
1185.248487	212.993007
1187.328195	213.564336
1189.407412	213.075524
1191.484247	212.120979
1193.558701	211.306993
1195.636447	210.744755
1197.709922	209.394406
1199.784798	209.849650
1201.855407	208.727972
1203.927418	208.529371
1205.997052	207.229371
1208.068087	205.901399
1210.138634	206.125175
1212.204920	207.774126
1214.272607	208.913986
1216.337922	207.862238
1218.404637	208.058042
1220.467096	207.011189
1222.532840	203.950350
1224.594331	203.930769
1226.657221	202.427273
1228.717744	202.998601
1230.777784	203.340559
1232.837340	202.411888
1234.894531	203.625175
1236.951241	206.504895
1239.005588	208.692308
1241.063215	207.454545
1243.118480	207.032867
1245.169504	207.235664
1247.221928	207.600000
1249.273873	208.556643
1251.323458	206.115385
1253.372565	205.665035
1255.421194	204.159441
1257.469344	203.047552
1259.517016	200.367832
1261.560457	202.473427
1263.607173	201.966434
1265.651537	202.650350
1267.695423	202.572028
1269.736959	207.641259
1271.776145	208.874825
1273.818603	207.517483
1275.856839	203.337063
1277.896474	202.757343
1279.935634	201.951049
1281.970576	199.552448
1284.006916	194.459441
1286.040911	197.627273
1288.076305	197.955944
1290.107485	200.286713
1292.140064	200.455944
1294.172170	202.278322
1296.201936	200.813986
1298.233100	200.597203
1300.260056	201.001399
1302.288410	201.897902
1304.312560	198.941958
1306.339974	196.216783
1308.363187	194.609790
1310.387796	197.883217
1312.410072	200.256643
1314.433745	200.825175
1316.455085	200.845455
1318.475957	200.098601
1320.496363	198.937762
1322.512574	199.674825
1324.530184	200.405594
1326.545465	198.060839
1328.564005	196.128671
1330.578355	197.804196
1332.590380	196.621678
1334.605662	196.139860
1336.616759	195.852448
1338.629253	195.551049
1340.637564	195.071329
1342.649131	194.277622
1344.654658	191.363636
1346.663441	194.589510
1348.668046	194.127972
1350.675905	195.375524
1352.683302	195.683916
1354.684668	197.267832
1356.687431	194.809091
1358.689733	193.872028
1360.691576	193.899301
1362.692960	195.237063
1364.692029	194.456643
1366.690640	196.246853
1368.688793	194.851049
1370.686488	196.637063
1372.680019	194.305594
1374.674947	194.583916
1376.669418	192.420979
1378.663432	190.884615
1380.655139	187.410490
1382.646390	185.923077
1384.635336	185.612587
1386.625677	187.867832
1388.615563	187.855944
1390.603146	192.622378
1392.590275	191.169231
1394.575102	191.457343
1396.561323	193.432867
1398.545245	195.017483
1400.528714	193.613986
1402.511731	195.876923
1404.492450	194.279021
1406.474563	192.575524
1408.454379	191.004196
1410.433745	192.468531
1412.408971	191.864336
1414.387437	192.982517
1416.363609	188.739860
1418.339331	189.188112
1420.314604	189.561538
1422.287586	190.810490
1424.260120	191.558042
1426.232207	196.739161
1428.203845	195.306993
1430.171355	196.127972
1432.143940	196.558042
1434.108718	199.066434
1436.078569	199.789510
1438.044295	199.295804
1440.011415	196.607692
1441.976250	197.717483
1443.936967	197.993007
1445.902751	200.295105
1447.862580	200.188811
1449.823802	200.268531
1451.786417	198.012587
1453.744917	197.373427
1455.702975	196.677622
1457.660590	195.983217
1459.617764	194.703497
1461.572662	193.902098
1463.528952	191.853147
1465.482968	192.338462
1467.436544	196.034266
1469.387847	197.293007
1471.340542	197.562238
1473.290966	198.637762
1475.240951	197.115385
1477.190496	198.210490
1479.137773	197.783217
1481.082783	198.398601
1483.029184	197.236364
1484.975149	197.095105
1486.920675	192.473427
1488.863937	193.288112
1490.806762	194.876923
1492.747324	192.140559
1494.689277	192.236364
1496.628969	194.327972
1498.568225	193.986713
1500.507047	196.125175
1502.443608	195.525874
1504.381561	196.134266
1506.317256	194.746853
1508.252517	194.813287
1510.185521	192.670629
1512.118093	194.212587
1514.050233	191.310490
1515.981941	190.822378
1517.911395	192.374825
1519.842240	194.653147
1521.772654	194.468531
1523.698995	192.895105
1525.626726	192.318182
1527.552207	191.216084
1529.477259	192.228671
1531.401882	192.200699
1533.326076	189.373427
1535.248023	189.906993
1537.171359	190.162238
1539.092450	193.288112
1541.011296	195.485315
1542.931532	196.539860
1544.849524	195.960140
1546.767090	198.295105
1548.682414	201.425874
1550.599128	201.146853
1552.511787	200.097203
1554.427650	197.484615
1556.341273	193.708392
1558.252659	195.509091
1560.165433	193.353846
1562.074158	192.336364
1563.984273	190.651748
1565.893964	187.665035
1567.803231	188.852448
1569.710265	193.651748
1571.615066	194.932168
1573.521256	195.129371
1575.425214	192.662238
1577.328752	192.390909
1579.231868	189.161538
1581.132756	190.269231
1583.035031	188.625874
1584.935079	188.679021
1586.836515	186.730769
1588.733916	187.452448
1590.630899	190.442657
1592.527464	192.240559
1594.425417	191.491608
1596.317535	190.837063
1598.212846	189.151748
1600.107740	190.313287
1602.000412	185.258042
1603.892668	185.497203
1605.782704	186.833566
1607.672324	186.391608
1609.561529	187.195804
1611.450318	189.515385
1613.336891	188.683916
1615.224850	189.813287
1617.108793	188.646853
1618.994124	189.062238
1620.879040	188.951049
1622.761744	190.002098
1624.645833	186.686713
1626.525912	186.631469
1628.407377	186.246154
1630.286632	184.804895
1632.167273	183.323077
1634.042110	182.227972
1635.921929	183.026573
1637.797742	186.483217
1639.673145	185.852448
1641.549935	184.530070
1643.420927	187.615385
1645.295101	193.221678
1647.165277	194.208392
1649.038633	195.443357
1650.909786	195.754545
1652.778737	194.758042
1654.649074	189.865734
1656.515417	185.939860
1658.383146	185.832168
1660.248677	183.454545
1662.115592	179.176923
1663.978519	177.169930
1665.842831	179.442657
1667.704947	181.749650
1669.566659	179.424476
1671.429755	182.064336
1673.290657	183.902797
1675.149365	182.681818
1677.007670	179.816084
1678.867360	179.633566
1680.721283	180.574126
1682.578378	180.902797
1684.435071	180.200699
1686.287788	181.176923
1688.143676	179.969231
1689.995589	179.614685
1691.847102	177.812587
1693.698215	177.723776
1695.548926	178.493706
1697.399237	177.896503
1699.247364	178.176224
1701.096874	179.698601
1702.940636	179.600699
1704.789348	180.320280
1706.632313	179.322378
1708.478444	180.383217
1710.320614	178.951049
1712.165948	175.141259
1714.005542	174.705594
1715.846520	173.214685
1717.688881	174.439860
1719.527286	173.921678
1721.367074	175.186014
1723.204687	177.488811
1725.041904	178.684615
1726.876948	181.513986
1728.713375	183.323776
1730.547630	183.491608
1732.381490	178.711189
1734.214957	176.503497
1736.044477	176.734965
1737.877156	174.354545
1739.705891	175.638462
1741.537784	175.787413
1743.365734	176.581119
1745.193292	176.327972
1747.020458	176.878322
1748.847233	179.791608
1750.673617	181.018182
1752.496064	179.020979
1754.321665	176.630070
1756.143332	176.328671
1757.966381	173.880420
1759.787269	174.612587
1761.607767	174.944755
1763.429647	172.901399
1765.245827	173.458042
1767.065159	172.311888
1768.880564	173.923077
1770.699119	175.223077
1772.513749	175.735664
1774.327993	174.823776
1776.141849	174.690909
1777.955319	173.090210
1779.766636	170.658042
1781.579334	171.667133
1783.391645	168.872727
1785.200039	169.604895
1787.009814	170.532867
1788.815673	169.794406
1790.624679	170.617483
1792.429771	172.737762
1794.236243	173.711189
1796.042332	172.318182
1797.844511	174.583916
1799.649833	175.283916
1801.451247	175.218881
1803.254041	177.301399
1805.052929	178.550350
1806.853198	179.918881
1808.653085	177.912587
1810.450831	177.909790
1812.248196	176.935664
1814.045180	177.070629
1815.841784	174.659441
1817.636249	171.492308
1819.432093	173.574126
1821.222283	172.544755
1823.017369	173.518182
1824.806802	173.470629
1826.599372	173.800000
1828.389807	172.835664
1830.178108	172.362238
1831.969544	172.296503
1833.755334	170.732168
1835.542504	171.237063
1837.327542	170.422378
1839.115714	171.875524
1840.900000	173.665734
1842.682157	172.606294
1844.465692	173.540559
1846.247099	172.594406
1848.029885	170.846154
1849.808791	168.059441
1851.589075	167.944056
1853.367233	166.046853
1855.146770	164.317483
1856.924182	162.839860
1858.699470	162.581818
1860.476137	164.323776
1862.250681	166.869231
1864.026602	166.827273
1865.796904	168.641259
1867.570332	168.098601
1869.341641	167.621678
1871.112580	165.900000
1872.884895	164.531469
1874.651598	165.616783
1876.421425	163.934266
1878.187389	164.257343
1879.956477	166.744755
1881.721703	167.286713
1883.486561	165.757343
1885.252795	164.961538
1887.015171	163.855245
1888.777180	164.624476
1890.538822	164.151049
1892.300096	162.081119
1894.061003	163.670629
1895.821544	166.027972
1897.579975	166.860839
1899.338041	170.979021
1901.093998	173.707692
1902.851333	174.128671
1904.608301	172.103497
1906.363164	173.669231
1908.115921	172.562238
1909.868315	173.115385
1911.622084	169.423077
1913.373750	169.650350
1915.123314	167.870629
1916.874254	162.866434
1918.624830	162.565734
1920.371568	163.569930
1922.119681	163.776923
1923.865695	165.802098
1925.613085	164.715385
1927.358376	166.119580
1929.101570	166.088811
1930.846140	167.704895
1932.588613	167.716084
1934.330726	169.369930
1936.072479	165.045804
1937.813873	161.446154
1939.553173	162.127622
1941.292114	163.475524
1943.030696	163.131818
1944.767186	164.945455
1946.503319	164.961189
1948.240826	166.220979
1949.974512	166.145804
1951.709571	169.100000
1953.442543	168.615734
1955.175158	168.925175
1956.907416	166.164685
1958.639318	162.958741
1960.369134	164.006993
1962.096866	166.060839
1963.825971	167.355245
1965.554722	168.901399
1967.281389	170.472727
1969.007702	170.479720
1970.735388	169.602098
1972.457538	169.846853
1974.182789	169.831469
1975.904234	169.298601
1977.628778	167.417483
1979.351243	162.669930
1981.069904	164.384615
1982.791664	164.529371
1984.509622	165.103497
1986.228954	165.323776
1987.944485	166.271329
1989.664838	166.640559
1991.381391	165.188811
1993.094149	167.304895
1994.810002	170.668531
1996.523782	171.662937
1998.237213	171.806294
1999.948573	171.918182
2001.661306	174.386713
2003.370247	174.177622
2005.082282	174.975524
2006.788807	170.007692
2008.498425	170.876923
2010.205975	170.579021
2011.913178	169.982517
2013.618315	172.360140
2015.323105	172.702098
2017.029267	173.650350
2018.731647	172.874825
2020.435399	171.593706
2022.137087	172.839161
2023.838431	173.118881
2025.539429	170.741958
2027.238367	165.786713
2028.938675	169.130769
2030.635209	171.178322
2032.333114	170.907692
2034.028961	171.958741
2035.727892	171.690210
2037.421338	172.730070
2039.116156	171.421678
2040.810630	170.127273
2042.501336	172.088112
2044.195126	170.056643
2045.885149	165.408392
2047.576543	163.818182
2049.265884	165.111888
2050.956595	165.855944
2052.643544	162.839161
2054.330152	163.632168
2056.018131	163.197203
2057.702350	163.509091
2059.387939	164.906294
2061.073189	165.551049
2062.756391	163.644755
2064.440962	163.746853
2066.120071	162.592308
2067.803965	164.127972
2069.482399	166.065035
2071.163909	166.989510
2072.841669	165.397203
2074.519091	165.536364
2076.197884	162.839161
2077.874633	164.279720
2079.549341	163.885315
2081.225418	163.052448
2082.899455	160.966434
2084.573156	161.755944
2086.246522	162.467832
2087.917850	164.379720
2089.588843	165.798601
2091.259502	165.196503
2092.929826	163.551049
2094.599817	165.063636
2096.267772	165.397203
2097.935394	167.799301
2099.600982	166.016783
2101.267938	166.628671
2102.932861	169.011888
2104.597451	166.636364
2106.260010	168.087413
2107.923937	168.049650
2109.585834	167.056643
2111.247399	166.439860
2112.908634	166.862238
2114.567839	168.118182
2116.226715	167.365734
2117.885260	168.861538
2119.543476	168.925874
2121.197968	171.075524
2122.855525	173.075524
2124.512753	168.910490
2126.166259	170.269231
2127.821133	171.706993
2129.472289	171.472028
2131.126506	171.476923
2132.777007	170.555944
2134.428874	169.827972
2136.075333	169.035664
2137.726547	168.855944
2139.374047	166.502098
2141.022914	167.028671
2142.669763	166.979021
2144.316285	166.288811
2145.962482	167.673427
2147.604971	170.164336
2149.250518	170.022378
2150.892358	170.544755
2152.537255	169.062937
2154.178447	167.763636
2155.819315	165.190909
2157.459860	164.099301
2159.098392	162.135664
2160.738290	162.235664
2162.374488	160.894406
2164.012052	162.090909
2165.649293	161.193706
2167.284525	161.948252
2168.919436	163.181818
2170.554025	162.995804
2172.188292	162.186713
2173.818867	160.613986
2175.452492	159.015385
2177.082426	160.294406
2178.713725	158.727273
2180.343020	159.065734
2181.971994	160.089510
2183.600650	162.577622
2185.228986	160.933566
2186.855319	160.649650
2188.481334	161.862238
2190.105348	162.448252
2191.730726	162.846154
2193.354105	164.084615
2194.978847	163.545455
2196.599909	162.520979
2198.220654	160.288811
2199.842764	159.357343
2201.462876	157.411189
2203.080991	156.443357
2204.698791	154.706294
2206.316276	153.815385
2207.933445	153.590909
2209.550299	157.336364
2211.166838	160.595804
2212.781383	162.536364
2214.393936	161.766434
2216.007853	161.069231
2217.619779	160.470629
2219.233068	158.411888
2220.844367	156.722378
2222.453676	155.660140
2224.064349	155.837063
2225.673033	157.172727
2227.281405	158.466434
2228.887789	163.134965
2230.495537	165.035664
2232.101298	165.941259
2233.706748	167.490909
2235.310214	169.111888
2236.915042	168.374126
2238.517886	166.590210
2240.118747	165.014685
2241.720971	161.733566
2243.321212	160.515385
2244.922816	158.892308
2246.520768	156.959441
2248.120082	157.821678
2249.717416	157.500000
2251.314442	156.972028
2252.912829	157.980420
2254.507568	157.095105
2256.100331	157.310490
2257.694455	159.545455
2259.289941	160.135664
2260.881783	160.441259
2262.473318	158.459441
2264.066214	157.153147
2265.653801	158.952448
2267.246085	160.988811
2268.833061	159.035664
2270.423066	157.848951
2272.007766	154.712587
2273.597160	153.544755
2275.181251	152.872028
2276.766704	153.527972
2278.350187	152.028671
2279.936697	151.923077
2281.519573	150.332168
2283.102145	152.861888
2284.684414	157.860839
2286.263054	158.951399
2287.844717	158.697203
2289.422752	158.115734
2291.003810	156.015385
2292.581242	157.232517
2294.156710	152.121678
2295.735199	151.077972
2297.310065	149.203497
2298.884630	149.290559
2300.458895	149.035664
2302.032859	150.615035
2303.606523	151.206993
2305.179886	148.725175
2306.749631	149.232867
2308.319077	149.389510
2309.891542	148.435664
2311.458731	148.320979
2313.028939	144.011189
2314.595532	147.251748
2316.163485	149.476923
2317.729483	152.479021
2319.295182	152.183916
2320.860585	156.522378
2322.424034	160.939860
2323.988841	163.974825
2325.550041	169.098601
2327.114255	171.550350
2328.673208	171.039161
2330.235174	169.585315
2331.795190	164.215385
2333.354910	163.049650
2334.912681	160.069231
2336.470158	155.739860
2338.027339	153.482517
2339.582574	153.718182
2341.137514	153.263636
2342.692161	153.068531
2344.246514	154.478322
2345.800573	153.981119
2347.354338	153.157343
2348.906160	149.829371
2350.456038	148.670629
2352.008924	148.377622
2353.556568	147.760140
2355.107219	145.311888
2356.654280	144.611888
2358.202698	141.595804
2359.750824	142.012587
2361.295363	141.812587
2362.841259	143.257343
2364.385216	144.474825
2365.930531	146.395105
2367.472261	146.882517
2369.015348	150.158042
2370.556500	151.989510
2372.097362	150.698601
2373.637935	148.346154
2375.178219	147.105594
2376.718214	146.571329
2378.254630	147.157343
2379.794048	148.211888
2381.329889	147.511189
2382.867086	151.568531
2384.400709	151.135664
2385.937331	152.269930
2387.472022	151.993706
2389.004784	151.344056
2390.537260	148.551748
2392.067807	150.693706
2393.601352	148.944056
2395.129686	148.426573
2396.659376	147.586014
2398.188781	147.895105
2399.717900	144.982517
2401.246735	147.192308
2402.770365	143.189510
2404.298630	142.740559
2405.821692	140.280420
2407.349388	138.029371
2408.870245	139.423776
2410.395735	144.698601
2411.917664	142.833566
2413.440949	144.255245
2414.962313	144.495105
2416.481757	144.706993
2418.002556	145.572727
2419.521436	145.601399
2421.040034	145.502098
2422.556715	148.048252
2424.074750	148.080420
2425.592504	148.439161
2427.106707	149.131469
2428.620629	150.780420
2430.134272	147.874126
2431.649268	145.922378
2433.160716	144.734965
2434.673519	143.314685
2436.184409	143.355944
2437.695019	142.256643
2439.203718	143.969231
2440.715404	146.809790
2442.223546	146.729371
2443.731409	147.465035
2445.238995	145.128671
2446.743040	146.152448
2448.250071	143.348951
2449.755193	142.925874
2451.260038	142.304895
2452.762976	142.544755
2454.265637	141.758741
2455.768022	140.641259
2457.268502	141.444056
2458.770335	141.024476
2460.270264	140.789510
2461.769917	139.481119
2463.269295	136.085315
2464.766769	134.429371
2466.262343	134.139161
2467.760896	135.277622
2469.255920	134.139860
2470.752298	136.564336
2472.245149	135.342657
2473.739352	135.682517
2475.233282	137.538462
2476.723689	140.977622
2478.217072	142.111888
2479.708558	141.756643
2481.198147	137.337063
2482.687464	138.358741
2484.174886	139.786014
2485.665283	140.216084
2487.152161	138.848252
2488.640391	139.935664
2490.125105	136.220979
2491.609548	137.237063
2493.095343	136.390210
2494.579245	138.053147
2496.064499	135.077622
2497.544619	132.406993
2499.027711	129.136364
2500.508913	130.236364
2501.989846	130.930070
2503.468890	132.301399
2504.947666	132.618881
2506.426172	133.783916
2507.904411	130.846853
2509.382381	131.837063
2510.856847	130.139860
2512.334281	131.828671
2513.808212	131.900699
2515.283494	134.862937
2516.758508	136.187413
2518.230021	136.317483
2519.702885	138.980420
2521.173865	140.420280
2522.646196	140.063636
2524.113414	139.039860
2525.583597	136.227972
2527.051900	135.065035
2528.519938	133.334266
2529.987711	132.716783
2531.455219	132.323776
2532.922462	133.534266
2534.386213	132.397203
2535.851315	132.239860
2537.314538	132.932168
2538.779112	132.847552
2540.240196	131.820979
2541.702630	131.702797
2543.164801	132.686014
2544.623486	134.129371
2546.086743	132.586713
2547.544903	132.312587
2549.004412	132.837063
2550.458828	135.224476
2551.917813	136.443357
2553.374927	137.711888
2554.830170	136.127972
2556.285152	134.400000
2557.738264	132.162937
2559.192725	129.958741
2560.645317	129.162937
2562.097649	128.795804
2563.548113	125.841958
2565.001533	126.007692
2566.449871	128.066434
2567.901165	131.192308
2569.350592	132.416084
2570.796548	133.502797
2572.245458	131.211888
2573.690897	132.480420
2575.137685	130.543357
2576.582609	129.742657
2578.027276	128.593007
2579.473290	128.227273
2580.915837	127.654545
2582.359732	126.544755
2583.800162	127.123776
2585.241940	129.048951
2586.681857	129.393007
2588.123122	128.811888
2589.560926	128.087413
2591.001679	129.320979
2592.437369	127.263636
2593.876009	128.601399
2595.312792	127.007692
2596.747718	128.044056
2598.185593	128.635664
2599.618410	129.618182
2601.052573	130.163636
2602.484883	132.392308
2603.918539	133.502098
2605.350342	134.814685
2606.781892	133.103497
2608.213188	132.285315
2609.642633	129.758741
2611.071825	128.427273
2612.499166	124.862937
2613.927854	122.479720
2615.356289	121.117483
2616.781277	122.872028
2618.207612	120.880420
2619.632098	123.607692
2621.057930	125.269231
2622.480318	126.001399
2623.904052	124.531469
2625.325940	125.022378
2626.747577	123.601399
2628.167369	122.410490
2629.588507	119.778322
2631.009395	119.444755
2632.426845	118.898601
2633.847234	118.730769
2635.264186	120.728671
2636.680890	117.373427
2638.097345	126.858042
2639.513552	135.024476
2640.929510	139.716084
2642.343628	144.604196
2643.757499	147.195804
2645.169530	147.281119
2646.582906	144.171329
2647.992852	141.048951
2649.405733	133.686014
2650.815187	126.439161
2652.224394	118.444755
2653.631765	107.377622
2655.042070	113.974126
2656.450539	113.524476
2657.857173	114.709091
2659.263562	116.050350
2660.668117	118.009091
2662.074016	119.199301
2663.478082	122.204196
2664.881904	124.694406
2666.285481	125.688112
2667.687226	126.924476
2669.090315	126.600000
2670.489987	126.334266
2671.891001	126.345455
2673.288600	127.145455
2674.689129	124.434266
2676.086243	121.817483
2677.484700	120.472028
2678.881329	120.578322
2680.277716	120.497203
2681.673862	120.725874
2683.068181	121.008392
2684.463843	121.152448
2685.856095	121.376923
2687.249691	122.554545
2688.641462	121.048951
2690.034575	122.033566
2691.425865	120.493007
2692.815332	123.402797
2694.204560	122.555245
2695.593547	123.571329
2696.983877	120.757343
2698.369222	122.662238
2699.757491	122.283217
2701.143940	119.579720
2702.530150	120.773427
2703.916122	121.051049
2705.298695	117.718182
2706.682609	117.823776
2708.066286	118.126573
2709.449725	119.171329
2710.829768	115.400000
2712.211153	115.827972
2713.590722	113.886014
2714.971633	115.239161
2716.350729	117.962937
2717.728010	117.173427
2719.106633	121.681119
2720.483443	123.068531
2721.860017	123.306294
2723.236355	123.981119
2724.610881	124.780420
2725.986748	124.827273
2727.359228	120.525175
2728.734625	119.342657
2730.105060	118.201399
2731.476837	117.385315
2732.848380	118.277622
2734.218114	116.105594
2735.589188	115.255944
2736.958455	113.407692
2738.327488	111.514685
2739.694714	111.098601
2741.061708	111.148252
2742.428469	110.179021
2743.794997	108.896503
2745.159720	112.176923
2746.524212	115.274825
2747.888471	116.648951
2749.252499	120.022378
2750.616294	121.109091
2751.976716	120.141259
2753.340049	123.613986
2754.698439	123.937063
2756.059739	126.562238
2757.417668	125.131469
2758.778507	124.101399
2760.137545	121.305594
2761.493215	117.768531
2762.851793	117.582517
2764.207005	117.581818
2765.561987	118.655245
2766.915172	119.203497
2768.271264	119.802098
2769.623992	121.994406
2770.976491	119.824476
2772.328762	119.295804
2773.682372	113.680420
2775.032620	111.069930
2776.381075	106.174126
2777.732434	106.150350
2779.080434	108.039860
2780.429773	108.612587
2781.777319	110.693706
2783.124638	111.508392
2784.471731	112.731469
2785.817033	112.865035
2787.162109	110.895105
2788.506959	112.723077
2789.851582	111.823077
2791.192854	112.763636
2792.535464	112.239161
2793.877848	115.398601
2795.220008	114.446154
2796.558818	116.171329
2797.900527	116.333566
2799.238889	117.735664
2800.578588	118.625175
2801.916501	118.919580
2803.252630	120.361538
2804.588536	121.380420
2805.925778	118.960839
2807.261237	117.056643
2808.596473	112.241259
2809.929927	112.423776
2811.264717	109.333566
2812.596166	105.571329
2813.930511	103.255944
2815.259958	107.841958
2816.590742	108.526573
2817.921304	113.621678
2819.250087	116.674126
2820.580207	115.999301
2821.908547	115.510490
2823.236667	116.041958
2824.563010	114.134266
2825.890688	114.422378
2827.215034	112.694406
2828.540715	112.365734
2829.864621	111.937762
2831.188308	115.813287
2832.513330	114.423077
2833.835023	116.997902
2835.156496	116.027273
2836.477751	115.280420
2837.798787	113.411888
2839.118051	112.411888
2840.438650	109.016783
2841.757477	106.851049
2843.076086	104.960839
2844.392925	103.717483
2845.709546	100.605594
2847.025949	102.190210
2848.340584	100.588811
2849.656553	103.576923
2850.969202	104.410490
2852.283187	107.546154
2853.596955	107.835664
2854.910506	109.112587
2856.222290	107.983916
2857.532309	108.335664
2858.843661	104.869231
2860.151699	104.304196
2861.461072	102.879720
2862.770229	102.439860
2864.079171	101.883916
2865.386350	102.388112
2866.691765	101.565035
2867.998515	102.753147
2869.303502	102.175524
2870.608276	101.988112
2871.911288	100.341958
2873.217182	101.388112
2874.518220	99.995105
2875.820593	106.658042
2877.121206	108.092308
2878.423153	107.998601
2879.724887	108.993706
2881.023317	109.613986
2882.323080	109.770629
2883.621085	109.087413
2884.918879	107.248951
2886.214917	106.155245
2887.512288	104.446154
2888.807903	105.390909
2890.103307	105.359441
2891.398501	109.953147
2892.690396	107.410490
2893.985168	105.969231
2895.276643	104.569930
2896.569452	105.379021
2897.862049	104.437762
2899.151353	105.158042
2900.441989	106.495105
2901.730874	107.695804
2903.021092	108.493706
2904.308018	111.011888
2905.596276	108.720979
2906.882784	110.535664
2908.169085	109.180420
2909.455177	108.723776
2910.739521	105.758042
2912.026737	106.176923
2913.309126	105.955245
2914.592846	109.113986
2915.874821	108.334965
2917.156589	107.139860
2918.436611	109.169231
2919.719503	111.970629
2921.000650	108.440559
2922.278515	109.010490
2923.559249	107.086713
2924.836702	105.862937
2926.113950	102.402797
2927.389455	103.145455
2928.667828	102.261538
2929.941386	103.629371
2931.217812	101.046154
2932.492497	102.276923
2933.765442	102.447552
2935.039717	102.105594
2936.312253	97.362937
2937.584585	98.056643
2938.853644	98.166434
2940.125567	98.488112
2941.395753	96.693007
2942.665736	99.837762
2943.935515	99.823776
2945.203557	101.988112
2946.469864	104.122378
2947.735968	109.114685
2949.003402	107.268531
2950.269102	107.980420
2951.534599	106.923077
2952.799894	107.353147
2954.061924	106.418881
2955.325285	104.520979
2956.588444	101.573427
2957.849870	102.905594
2959.112626	100.227972
2960.373651	98.779720
2961.632945	99.965035
2962.892038	100.229371
2964.150931	100.964336
2965.409624	101.958042
2966.668117	102.778322
2967.924881	100.896503
2969.181445	100.053147
2970.436282	99.413287
2971.692448	98.881119
2972.945358	100.260839
2974.199598	97.203497
2975.453639	96.161538
2976.705954	96.747552
2977.958071	98.858741
2979.208463	103.191608
2980.461710	103.681119
2981.710180	105.333566
2982.961504	104.622378
2984.209580	104.593706
2985.457458	104.666434
2986.705139	103.220280
2987.952624	101.525874
2989.198387	97.876224
2990.443953	97.204895
2991.690848	96.271329
2992.934497	97.827273
2994.179475	95.309790
2995.421210	95.509091
2996.665796	93.606993
2997.908662	96.358741
2999.148288	98.418182
3000.390765	99.372028
3001.630001	97.770629
3002.870565	97.751049
3004.109412	97.812587
3005.348065	97.483916
3006.585002	97.695804
3007.823266	97.875524
3009.059816	95.955944
3010.296171	96.705594
3011.532333	94.539161
3012.766782	96.100000
3014.001037	97.726573
3015.235099	96.591608
3016.467449	94.474126
3017.698087	92.919580
3018.931571	92.584615
3020.163343	91.795105
3021.393405	92.622378
3022.623275	93.386713
3023.851435	93.431469
3025.080921	95.249650
3026.308699	95.510490
3027.536285	95.197902
3028.765197	96.638462
3029.989367	95.472028
3031.216380	92.634965
3032.440170	89.888811
3033.665285	91.495804
3034.888694	90.582517
3036.111914	91.695804
3037.333428	92.830070
3038.557783	94.476224
3039.777403	97.732168
3040.998348	100.233566
3042.219105	102.584615
3043.438158	102.396503
3044.658537	100.560140
3045.875699	96.467133
3047.094186	94.881119
3048.310972	93.548951
3049.527569	91.282517
3050.743979	89.300699
3051.957175	87.345455
3053.173209	88.427273
3054.386031	88.544755
3055.601690	90.565035
3056.812626	92.004196
3058.024887	89.873427
3059.236962	90.016084
3060.448850	88.551049
3061.659040	88.261538
3062.869045	87.565035
3064.078863	87.534965
3065.286985	85.180420
3066.494921	85.500000
3067.701163	86.308392
3068.908728	84.955245
3070.114600	83.974825
3071.320286	84.806993
3072.525787	84.731469
3073.729596	87.332867
3074.934728	86.888112
3076.138167	89.764336
3077.339914	89.482517
3078.541478	87.988811
3079.742858	87.473427
3080.944054	88.909091
3082.143560	87.365035
3083.342882	85.643357
3084.543528	84.436364
3085.742485	87.625175
3086.938246	87.219580
3088.136837	86.948252
3089.332234	87.741958
3090.528954	90.651748
3091.722482	88.012587
3092.918839	87.074126
3094.113508	86.669930
3095.304987	85.486014
3096.500797	83.923776
3097.691914	84.069930
3098.884353	82.514685
3100.073605	83.421678
3101.265683	81.097902
3102.456076	82.478322
3103.643284	84.476923
3104.831815	86.838462
3106.021668	87.380420
3107.208336	85.904196
3108.394825	85.932867
3109.581134	85.092308
3110.768765	85.237762
3111.953215	83.316783
3113.135984	79.276923
3114.321577	80.248252
3115.505489	81.239860
3116.687723	84.249650
3117.869779	82.246154
3119.051656	85.243357
3120.233355	82.753846
3121.413376	79.535664
3122.591721	79.635664
3123.772887	76.353147
3124.950877	76.091608
3126.128690	75.986713
3127.306326	76.953846
3128.482287	81.051049
3129.658072	83.111189
3130.835177	85.423776
3132.010608	82.718881
3133.184366	87.032168
3134.356452	85.042657
3135.529858	85.343357
3136.703089	82.666434
3137.874647	80.945455
3139.047527	82.008392
3140.217239	79.758042
3141.388272	77.311888
3142.557634	76.267133
3143.725327	74.881818
3144.895835	74.099301
3146.061684	72.900000
3147.231843	76.762937
3148.397344	76.372727
3149.562672	77.738462
3150.727826	75.277622
3151.892806	77.018881
3153.059107	76.618881
3154.220754	74.774126
3155.383722	75.016783
3156.546516	74.842657
3157.709138	75.109790
3158.870095	76.323077
3160.030879	76.915385
3161.191491	78.737063
3162.350440	77.708392
3163.509216	77.205594
3164.667821	74.449650
3165.826254	74.289510
3166.984515	74.092308
3168.141114	75.181119
3169.296052	75.848252
3170.452309	74.067832
3171.606906	76.779720
3172.761331	77.641259
3173.914097	78.562937
3175.066693	81.125874
3176.219118	80.144056
3177.371374	82.400699
3178.523460	81.304196
3179.672399	80.493007
3180.824145	80.174126
3181.974234	79.604895
3183.122665	78.397203
3184.270928	76.196503
3185.419021	75.331469
3186.566946	72.931469
3187.713216	72.245455
3188.859317	72.847552
3190.003763	72.781119
3191.148042	76.474126
3192.292153	77.186014
3193.437582	78.568531
3194.579872	79.916783
3195.721994	78.914685
3196.863950	76.693706
3198.005738	74.262238
3199.147359	70.464336
3200.285844	70.323077
3201.425647	69.832867
3202.566768	70.126573
3203.704754	70.797902
3204.841091	74.594406
3205.977262	77.138462
3207.114751	78.407692
3208.250591	77.737762
3209.387747	74.744755
3210.520291	72.416084
3211.657117	69.312587
3212.789331	65.965035
3213.922863	66.969930
3215.056229	66.574126
3216.186468	68.412587
3217.319505	70.720280
3218.449416	74.975524
3219.580644	76.364336
3220.708746	77.523776
3221.839645	78.729371
3222.968901	78.225874
3224.096512	77.158042
3225.221002	74.981119
3226.349767	74.332867
3227.475410	74.605594
3228.600890	72.516783
3229.724729	74.103497
3230.851362	75.062238
3231.973398	74.867832
3233.096750	73.676224
3234.219940	73.537063
3235.342968	72.390210
3236.464356	69.108392
3237.585583	68.157343
3238.705171	66.693007
3239.824598	69.072727
3240.942387	67.853846
3242.062969	67.332168
3243.180436	70.453846
3244.297744	70.400699
3245.414890	69.987413
3246.530401	71.121678
3247.647227	71.395105
3248.760942	70.842657
3249.877448	69.783916
3250.992318	71.799301
3252.104080	72.537762
3253.215683	75.025175
3254.328600	73.627273
3255.441359	72.810490
3256.551011	72.599301
3257.661978	70.771329
3258.772786	70.692308
3259.881962	67.334965
3260.989507	68.774126
3262.098367	72.411888
3263.207068	73.553846
3264.312667	76.981119
3265.419581	76.230070
3266.524865	75.050350
3267.631463	74.623776
3268.734961	72.316084
3269.839773	72.064336
3270.944428	70.456643
3272.045984	68.100000
3273.147385	63.869231
3274.250099	68.088112
3275.352656	69.741259
3276.452118	68.293007
3277.554362	68.926573
3278.653512	67.803497
3279.751036	67.539860
3280.848405	66.738462
3281.948557	64.274126
3283.045615	65.854545
3284.142518	65.123077
3285.239267	65.155944
3286.331456	65.360140
3287.427895	66.878322
3288.522711	66.426573
3289.617372	66.160140
3290.710412	68.230769
3291.803298	69.476923
3292.894563	68.374126
3293.987141	67.383916
3295.078098	68.197902
3296.167437	69.682517
3297.256621	66.574126
3298.347119	67.276923
3299.434532	68.242657
3300.521793	65.312587
3301.610366	63.479021
3302.698786	64.532867
3303.782659	64.550350
3304.870774	63.493706
3305.955808	62.311189
3307.039226	63.235664
3308.123955	64.193007
3309.207070	63.316084
3310.291496	60.347552
3311.372844	62.395105
3312.455504	59.543357
3313.536550	58.348951
3314.617445	58.398601
3315.696727	59.595105
3316.775858	57.325874
3317.856300	57.422378
3318.933669	59.175524
3320.012349	61.446154
3321.089417	62.069930
3322.166335	62.349650
3323.241642	60.795105
3324.316800	60.705594
3325.393270	58.174126
3326.466668	59.486713
3327.539918	58.439161
3328.614479	57.995804
3329.687430	57.477622
3330.758774	60.251049
3331.831428	61.353846
3332.901015	61.707692
3333.971913	61.144056
3335.041204	61.966434
3336.111806	59.388112
3337.180801	60.908392
3338.248190	61.737762
3339.313974	60.872028
3340.383984	61.702797
3341.450931	64.908392
3342.514816	67.741259
3343.581469	69.020280
3344.646517	69.460140
3345.709963	65.746853
3346.773261	65.362937
3347.836414	63.500699
3348.899420	58.553147
3349.962279	59.318881
3351.023537	55.385315
3352.081738	53.777622
3353.144160	54.641259
3354.203525	57.641958
3355.262745	58.460140
3356.323275	58.433566
3357.379295	59.653846
3358.438080	57.266434
3359.492357	58.529371
3360.549397	57.304895
3361.604840	54.477622
3362.661591	54.883217
3363.716745	54.643357
3364.770301	54.995105
3365.822260	54.259441
3366.876981	54.762937
3367.928653	54.623077
3368.980182	55.329371
3370.033020	56.194406
3371.082810	55.971329
3372.133908	52.221678
3373.181961	51.047552
3374.232774	49.175524
3375.280541	50.197203
3376.328166	52.143357
3377.375649	49.689510
3378.421538	49.888112
3379.468736	51.439161
3380.512892	52.975524
3381.559806	54.430769
3382.605128	54.518182
3383.647410	54.524476
3384.689550	53.609790
3385.732998	54.906993
3386.776306	54.539860
3387.818023	54.274825
3388.859599	55.286713
3389.901035	53.855944
3390.940881	53.412587
3391.979140	54.551748
3393.018706	53.995105
3394.058131	53.017483
3395.095970	53.103497
3396.132221	52.739161
3397.168332	53.074126
3398.205751	51.637762
3399.240137	49.851049
3400.275830	48.802797
3401.311384	48.627972
3402.343907	46.841958
3403.379183	45.547552
3404.411428	48.210490
3405.443535	50.009091
3406.474058	51.170629
3407.505889	52.058741
3408.537580	53.239860
3409.566245	54.486713
3410.594771	57.106294
3411.624605	57.272028
3412.654300	56.564336
3413.680970	54.260839
3414.708947	52.930070
3415.733899	52.031469
3416.761601	53.067133
3417.786280	51.941958
3418.812265	49.982517
3419.836670	51.351748
3420.860939	51.803497
3421.883629	50.731469
3422.906183	53.452448
3423.930043	51.893706
3424.950883	51.562238
3425.971588	51.133267
3426.993598	50.306618
3428.012590	48.935265
3429.031447	46.872178
3430.051609	43.970330
3431.068755	40.082692
