-118.702670	46.443956
-116.033069	37.676923
-113.366404	31.192607
-110.700491	26.811988
-108.037511	24.356044
-105.373100	23.645754
-102.711620	24.502098
-100.048711	28.942657
-97.390908	31.609790
-94.731676	38.735664
-92.073192	38.920280
-89.417633	43.639161
-86.760644	40.441958
-84.108754	40.697902
-81.455434	34.211189
-78.805033	33.769231
-76.153204	26.448951
-73.506465	25.441958
-70.858296	21.609790
-68.210870	21.271329
-65.566359	20.787413
-62.920418	27.518881
-60.279559	30.116084
-57.637271	35.365035
-54.997892	33.373427
-52.357084	38.239161
-49.717015	39.099301
-47.082020	41.507692
-44.445595	40.967832
-41.812073	39.788811
-39.177123	33.401399
-36.547239	34.623776
-33.913761	34.917483
-31.285346	39.986014
-28.657665	39.815385
-26.028555	34.531469
-23.404503	6.258741
-20.776860	-81.437762
-18.154272	-296.506294
-15.532414	-208.739860
-12.911287	471.787413
-10.290891	1506.090909
-7.673382	2360.123077
-5.054445	2950.363636
-2.438394	3262.123077
0.176930	3297.748252
2.791525	3056.791608
5.403239	2550.737063
8.016381	1794.025175
10.624489	860.272727
13.236178	-48.062937
15.842837	-411.809790
18.450925	-253.088112
21.058287	3.053147
23.660625	40.916084
26.266542	45.352448
28.867436	45.082517
31.469758	42.426573
34.067062	40.521678
36.667943	44.815385
39.263808	45.544056
41.861101	51.962238
44.457675	50.889510
47.049240	54.998601
49.642234	53.232168
52.232366	56.020979
54.823925	58.440559
57.412626	64.373427
60.002753	65.289510
62.587881	67.239161
65.174437	68.005594
67.760278	71.379021
70.343266	69.158042
72.927681	71.990210
75.504967	67.623776
78.085818	65.730070
80.663822	68.781818
83.241114	71.367832
85.819834	72.233566
88.393571	78.174825
90.968735	78.181818
93.541056	83.972028
96.112670	87.704895
98.681443	94.820979
101.251643	97.265734
103.819004	105.895105
106.387792	111.739860
108.953743	132.061538
111.516859	155.413986
114.083531	184.320280
116.640981	229.889510
119.204117	313.342657
121.762294	471.665734
124.324025	755.285315
126.880799	1226.676923
129.438999	1965.015385
131.992247	2966.141259
134.544797	4210.363636
137.100897	5622.184615
139.652049	7098.033566
142.202504	8518.948252
144.752261	9784.300699
147.299199	10772.612587
149.845442	11488.016783
152.393110	11910.584615
154.940082	12075.938462
157.482118	12087.369231
160.023462	12031.808392
162.564112	11959.847552
165.106187	11858.897902
167.645452	11766.707692
170.181907	11721.267133
172.717672	11678.457343
175.254862	11648.525874
177.791361	11600.374825
180.325054	11588.546853
182.855943	11575.001399
185.386144	11539.683916
187.917771	11522.072727
190.446596	11495.299301
192.972622	11490.472727
195.497962	11459.283916
198.024727	11440.486713
200.548696	11456.777622
203.071979	11425.955245
205.594578	11415.892308
208.114384	11406.625175
210.633507	11426.289510
213.151947	11448.586014
215.671812	11457.479720
218.184674	11475.783217
220.701068	11485.311888
223.216781	11522.476923
225.727603	11561.661538
228.239850	11600.661538
230.749314	11620.446154
233.258100	11622.422378
235.766208	11651.987413
238.275740	11672.925874
240.780391	11704.991608
243.284366	11722.236364
245.789765	11750.523077
248.290289	11766.405594
250.794336	11781.556643
253.291413	11807.570629
255.792012	11827.713287
258.289840	11838.598601
260.786995	11839.384615
263.283478	11836.365035
265.775097	11837.681119
268.270236	11824.332867
270.762608	11816.900699
273.254310	11799.222378
275.743249	11780.374825
278.233611	11761.139860
280.721212	11755.451748
283.206053	11759.128671
285.694409	11748.006993
288.175825	11745.927273
290.660755	11759.039161
293.140839	11757.802797
295.624436	11778.206993
298.103191	11790.481119
300.583368	11807.204196
303.060794	11809.867133
305.537556	11813.008392
308.013654	11823.598601
310.487004	11875.404196
312.959693	11894.043357
315.431720	11909.627972
317.903085	11925.169231
320.371707	11942.244755
322.839669	11955.099301
325.309054	11950.674126
327.773616	11932.534266
330.241682	11904.991608
332.704927	11879.900699
335.167516	11869.472727
337.629448	11848.180420
340.090723	11858.879720
342.549263	11817.681119
345.009226	11790.946853
347.466457	11740.995804
349.923033	11697.637762
352.378955	11638.829371
354.832147	11543.791608
357.286762	11462.739860
359.736575	11368.008392
362.189884	11281.664336
364.638394	11182.718881
367.086254	11079.963636
369.535536	11011.854545
371.980023	10924.853147
374.425933	10857.816783
376.871194	10784.981818
379.313736	10717.640559
381.755630	10638.451748
384.196876	10559.381818
386.635408	10487.290909
389.075360	10407.686713
391.512599	10315.054545
393.947127	10223.106294
396.385141	10143.170629
398.818380	10087.945455
401.253039	10019.397203
403.682926	9973.102098
406.116298	9919.535664
408.544900	9883.966434
410.972860	9840.173427
413.402241	9816.984615
415.826858	9794.809790
418.252895	9789.423776
420.678293	9782.053147
423.103050	9781.013986
425.523048	9778.458741
427.944468	9784.257343
430.363192	9768.984615
432.783335	9759.860140
435.200784	9744.506294
437.619654	9733.103497
440.035829	9721.527273
442.447258	9719.113287
444.862163	9716.081119
447.274378	9711.055944
449.685960	9711.137063
452.096907	9706.867133
454.505167	9700.153846
456.912796	9686.668531
459.319792	9658.504895
461.726157	9636.400000
464.129839	9604.766434
466.532891	9587.497902
468.935313	9570.311888
471.337105	9559.162238
473.736219	9539.286713
476.136753	9521.083916
478.536658	9497.295105
480.931841	9498.790210
483.330489	9490.941259
485.724418	9479.008392
488.117721	9460.377622
490.510399	9433.320280
492.902451	9408.562238
495.295921	9390.770629
497.684679	9356.110490
500.070771	9348.923077
502.458283	9293.511888
504.845172	9271.777622
507.229396	9240.664336
509.615040	9256.797203
511.998022	9237.545455
514.378342	9232.141259
516.760083	9223.790210
519.139164	9231.928671
521.519663	9225.050350
523.897506	9212.741259
526.272692	9202.144056
528.647261	9186.784615
531.023249	9146.890909
533.396584	9124.153846
535.771336	9088.206993
538.141402	9052.425175
540.510854	8990.337063
542.881723	8933.871329
545.247911	8887.467133
547.615518	8839.549650
549.980479	8761.313287
552.344828	8681.833566
554.708563	8597.826573
557.073716	8523.657343
559.434197	8438.247552
561.796095	8351.955245
564.155354	8270.517483
566.511974	8180.851748
568.872040	8087.611189
571.225414	8000.770629
573.582233	7937.395804
575.936417	7866.076923
578.289992	7788.539860
580.642960	7701.634965
582.993295	7627.844755
585.345048	7572.716084
587.690124	7504.700699
590.040663	7439.225175
592.384530	7374.513287
594.733858	7300.622378
597.078537	7239.696503
599.420592	7189.918881
601.764064	7161.637762
604.104913	7145.774825
606.445159	7106.903497
608.782785	7090.023776
611.123846	7075.765035
613.460270	7077.995804
615.798110	7073.914685
618.133333	7058.155245
620.465939	7052.114685
622.799963	7044.620979
625.131372	7053.058741
627.462183	7051.068531
629.792396	7056.658741
632.122012	7055.068531
634.447004	7037.700699
636.777438	7047.749650
639.103251	7041.474126
641.426456	7057.116084
643.751078	7063.816783
646.073094	7074.972028
648.394516	7087.962238
650.713335	7109.812587
653.033571	7124.165035
655.353212	7139.201399
657.670254	7155.681119
659.986703	7180.876923
662.300554	7220.725874
664.615821	7252.601399
666.928491	7287.678322
669.242576	7331.132867
671.552061	7385.570629
673.862962	7426.430769
676.171270	7452.995804
678.478989	7504.885315
680.788124	7534.325874
683.092666	7583.527273
685.396622	7634.153846
687.699991	7705.525874
690.004776	7770.215385
692.304973	7829.274126
694.606586	7894.458741
696.907613	7950.897902
699.204059	8001.523077
701.501920	8040.514685
703.799197	8083.139860
706.095891	8135.391608
708.388009	8167.572028
710.683538	8219.513287
712.974493	8263.124476
715.266863	8324.250350
717.556657	8360.146853
719.845872	8397.096503
722.134507	8438.969231
724.420569	8477.433566
726.708045	8511.088112
728.992951	8562.395804
731.277279	8608.692308
733.559038	8667.229371
735.842211	8724.197203
738.124807	8783.100699
740.402847	8841.731469
742.682301	8914.055944
744.961180	8962.488112
747.239484	9015.906294
749.513237	9083.597203
751.788405	9144.843357
754.062999	9205.889510
756.335034	9269.156643
758.608482	9323.286713
760.879372	9383.918881
763.147706	9431.685315
765.417453	9478.251748
767.684645	9527.676923
769.951268	9590.600000
772.217320	9620.528671
774.480821	9649.889510
776.745734	9692.047552
779.010079	9746.303497
781.269893	9791.051748
783.531121	9846.509091
785.791781	9881.874126
788.049895	9927.981818
790.305464	9979.581818
792.564423	10007.711888
794.816884	10042.741259
797.074712	10093.281119
799.328021	10111.580420
801.578790	10114.868531
803.830971	10146.813986
806.080613	10178.425175
808.331667	10190.532867
810.578210	10203.932867
812.826166	10216.081119
815.071586	10248.110490
817.318419	10276.295105
819.564689	10298.387413
821.806456	10346.668531
824.051605	10402.393007
826.290283	10444.233566
828.532342	10463.121678
830.769903	10513.433566
833.008876	10569.257343
835.245322	10600.625175
837.483179	10634.486713
839.718511	10685.386014
841.951320	10761.595804
844.185539	10840.745455
846.417237	10942.195804
848.648380	11040.534266
850.878968	11155.893706
853.109002	11273.227972
855.338481	11397.083916
857.563480	11550.313287
859.791852	11716.798601
862.015746	11859.353846
864.241051	12013.251748
866.461880	12172.046154
868.686081	12364.579021
870.905809	12524.311888
873.126947	12693.548252
875.347535	12853.074126
877.565614	13037.889510
879.785102	13200.360839
882.000124	13364.118881
884.214598	13523.106294
886.428525	13646.400000
888.641904	13730.934266
890.854737	13810.798601
893.067022	13873.237762
895.276806	13906.408392
897.486044	13883.095105
899.694737	13874.648951
901.900930	13842.749650
904.108533	13783.532867
906.313639	13681.616783
908.518201	13577.924476
910.720268	13451.984615
912.923744	13268.973427
915.124726	13070.520280
917.325166	12876.160839
919.527015	12633.910490
921.722473	12391.976224
923.921289	12122.783217
926.115668	11887.855944
928.313404	11643.623776
930.506704	11393.412587
932.701413	11186.953846
934.893635	11014.012587
937.085320	10842.748252
939.276467	10692.471329
941.465131	10578.723077
943.653259	10485.892308
945.838905	10415.429371
948.027905	10386.548252
950.212480	10339.432168
952.396521	10321.678322
954.583913	10319.258741
956.763000	10326.983217
958.945438	10343.802797
961.127342	10348.261538
963.306771	10342.928671
965.483728	10355.139860
967.662093	10342.598601
969.841865	10319.602797
972.015288	10292.653147
974.192057	10246.089510
976.364419	10175.339860
978.538189	10103.615385
980.707555	10032.018182
982.880265	9950.966434
985.050510	9843.055944
987.220225	9739.057343
989.389412	9647.020979
991.554202	9545.472727
993.722334	9434.904895
995.886070	9323.191608
998.051214	9217.327273
1000.213898	9108.029371
1002.376057	8999.714685
1004.535759	8891.868531
1006.694936	8767.411189
1008.855520	8672.447552
1011.013649	8553.730070
1013.171255	8458.658741
1015.328337	8365.111888
1017.484895	8260.423776
1019.637074	8179.365035
1021.790660	8108.790210
1023.943724	8041.166434
1026.094339	7984.837762
1028.246360	7928.711888
1030.394009	7878.444755
1032.544989	7819.860140
1034.691598	7797.717483
1036.837688	7743.251748
1038.983260	7701.025175
1041.130237	7636.566434
1043.270925	7598.006993
1045.414942	7547.988811
1047.556520	7516.969231
1049.697580	7484.165035
1051.840046	7455.935664
1053.976231	7410.685315
1056.115743	7368.502098
1058.250899	7318.331469
1060.389380	7295.240559
1062.523508	7240.348252
1064.657122	7176.762238
1066.792140	7119.886713
1068.922810	7092.015385
1071.054884	7036.518881
1073.184528	7022.190210
1075.313661	6993.488112
1077.442283	6958.362238
1079.570393	6917.402797
1081.696077	6881.751049
1083.821251	6837.237762
1085.947829	6788.528671
1088.070069	6710.974825
1090.193714	6635.788811
1092.313024	6559.100699
1094.437563	6498.927273
1096.555858	6420.493706
1098.675556	6353.752448
1100.792837	6279.000000
1102.909610	6224.137063
1105.025877	6166.574825
1107.139729	6108.939860
1109.254984	6039.474126
1111.365917	5971.005594
1113.480162	5906.660140
1115.590086	5853.427972
1117.701413	5789.460140
1119.812237	5739.113287
1121.918744	5673.724476
1124.028560	5609.556643
1126.134062	5555.816783
1128.240968	5517.061538
1130.341658	5456.783217
1132.447560	5400.030769
1134.549153	5350.051748
1136.652148	5300.846154
1138.754644	5252.286713
1140.850932	5200.728671
1142.952427	5144.531469
1145.049620	5085.000000
1147.146314	5031.443357
1149.242511	4978.176224
1151.338209	4931.851748
1153.433410	4897.241958
1155.526214	4851.820979
1157.620420	4823.358042
1159.708435	4800.008392
1161.801648	4772.293706
1163.888674	4739.730070
1165.978998	4704.765035
1168.065034	4672.906294
1170.154368	4631.837762
1172.237521	4599.232168
1174.322077	4566.121678
1176.408034	4525.416783
1178.489709	4502.176224
1180.572785	4480.598601
1182.653476	4466.606993
1184.733676	4444.661538
1186.813384	4412.801399
1188.892601	4393.248951
1190.969435	4379.685315
1193.043889	4347.394406
1195.121635	4330.507692
1197.195110	4313.041958
1199.269987	4302.409790
1201.340596	4287.342657
1203.412606	4296.025175
1205.482240	4294.290909
1207.553275	4286.784615
1209.623822	4276.556643
1211.690109	4271.941259
1213.757796	4266.299301
1215.823110	4251.997203
1217.889825	4236.332867
1219.952284	4233.401399
1222.018029	4205.646154
1224.079519	4201.278322
1226.142410	4196.804196
1228.202932	4194.212587
1230.262972	4178.247552
1232.322528	4172.811189
1234.379720	4179.995804
1236.436429	4188.062937
1238.490776	4181.510490
1240.548403	4176.851748
1242.603668	4178.497902
1244.654693	4164.230769
1246.707117	4143.682517
1248.759061	4141.793007
1250.808647	4133.962238
1252.857754	4122.240559
1254.906382	4112.187413
1256.954532	4114.725874
1259.002204	4132.669930
1261.045645	4129.461538
1263.092362	4122.805594
1265.136725	4123.727273
1267.180611	4128.244755
1269.222147	4123.833566
1271.261333	4122.393007
1273.303792	4115.264336
1275.342028	4107.215385
1277.381663	4103.597203
1279.420822	4097.165035
1281.455764	4096.703497
1283.492104	4108.162238
1285.526100	4093.981818
1287.561493	4094.781818
1289.592673	4097.169231
1291.625252	4095.930070
1293.657359	4091.352448
1295.687125	4096.492308
1297.718288	4088.917483
1299.745244	4083.644755
1301.773599	4091.553846
1303.797748	4089.850350
1305.825163	4096.313287
1307.848375	4105.506294
1309.872985	4112.202797
1311.895260	4125.317483
1313.918933	4136.327273
1315.940273	4143.530070
1317.961146	4144.847552
1319.981551	4146.000000
1321.997763	4140.825175
1324.015372	4132.806993
1326.030653	4139.965035
1328.049193	4129.605594
1330.063543	4131.495105
1332.075568	4121.986014
1334.090851	4119.380420
1336.101948	4119.651748
1338.114441	4128.393007
1340.122752	4124.565035
1342.134319	4117.906294
1344.139847	4116.208392
1346.148630	4126.928671
1348.153235	4130.566434
1350.161094	4147.229371
1352.168491	4146.520280
1354.169857	4141.106294
1356.172619	4135.074126
1358.174922	4130.758042
1360.176765	4126.278322
1362.178148	4117.131469
1364.177217	4099.930070
1366.175828	4095.400000
1368.173981	4087.061538
1370.171676	4095.395804
1372.165208	4090.053147
1374.160135	4097.033566
1376.154606	4081.106294
1378.148620	4067.661538
1380.140327	4066.165035
1382.131578	4062.109091
1384.120524	4055.805594
1386.110865	4056.846154
1388.100752	4046.993007
1390.088334	4052.862937
1392.075463	4054.939860
1394.060290	4057.923077
1396.046512	4046.897902
1398.030433	4049.455944
1400.013902	4034.479720
1401.996919	4034.938462
1403.977638	4026.805594
1405.959751	4026.159441
1407.939567	4029.337063
1409.918933	4036.868531
1411.894160	4027.535664
1413.872625	4039.976224
1415.848797	4041.595804
1417.824519	4039.447552
1419.799792	4039.332867
1421.772775	4050.219580
1423.745309	4054.605594
1425.717395	4063.524476
1427.689034	4059.478322
1429.656544	4072.201399
1431.629128	4083.955245
1433.593906	4087.167832
1435.563757	4077.050350
1437.529483	4061.829371
1439.496603	4047.970629
1441.461439	4038.665734
1443.422155	4023.527273
1445.387939	4009.686713
1447.347768	4002.230769
1449.308991	3994.450350
1451.271605	3985.011189
1453.230105	4009.255944
1455.188163	4013.756643
1457.145779	4011.952448
1459.102952	3997.149650
1461.057850	3982.839161
1463.014141	3980.053147
1464.968157	3965.696503
1466.921732	3960.800000
1468.873035	3948.374825
1470.825730	3948.279720
1472.776154	3947.639161
1474.726139	3950.942657
1476.675685	3975.839161
1478.622962	3980.110490
1480.567971	3981.170629
1482.514373	3975.686713
1484.460337	3973.563636
1486.405864	3972.595804
1488.349125	3953.387413
1490.291950	3950.521678
1492.232512	3929.819580
1494.174466	3926.211189
1496.114157	3920.601399
1498.053413	3919.093706
1499.992235	3927.809790
1501.928797	3931.104895
1503.866750	3932.376224
1505.802444	3935.018182
1507.737705	3942.109091
1509.670709	3939.337063
1511.603281	3928.974825
1513.535421	3927.984615
1515.467129	3924.837762
1517.396584	3928.027972
1519.327429	3919.619580
1521.257842	3917.570629
1523.184183	3919.406993
1525.111914	3917.271329
1527.037396	3920.027972
1528.962448	3912.451748
1530.887070	3907.111888
1532.811264	3900.597203
1534.733211	3900.587413
1536.656548	3894.160839
1538.577638	3900.993007
1540.496484	3895.114685
1542.416720	3895.144056
1544.334712	3894.475524
1546.252278	3905.974825
1548.167603	3910.623776
1550.084317	3909.366434
1551.996975	3900.843357
1553.912838	3900.081119
1555.826462	3889.321678
1557.737847	3876.327273
1559.650622	3861.033566
1561.559347	3856.514685
1563.469461	3831.932867
1565.379152	3834.893706
1567.288420	3829.738462
1569.195453	3837.572028
1571.100254	3831.914685
1573.006444	3832.118881
1574.910403	3837.914685
1576.813940	3838.134266
1578.717057	3823.158042
1580.617944	3828.139860
1582.520220	3827.360839
1584.420267	3827.241958
1586.321703	3808.696503
1588.219104	3812.436364
1590.116088	3808.483916
1592.012653	3808.730070
1593.910605	3802.552448
1595.802723	3799.783217
1597.698035	3796.232168
1599.592928	3792.886713
1601.485601	3783.665734
1603.377856	3789.060140
1605.267892	3797.616783
1607.157512	3803.358042
1609.046717	3805.405594
1610.935506	3820.798601
1612.822079	3825.434965
1614.710039	3830.303497
1616.593982	3826.997203
1618.479312	3821.393007
1620.364229	3815.444755
1622.246932	3809.295105
1624.131022	3791.956643
1626.011100	3789.934266
1627.892566	3788.587413
1629.771820	3780.867133
1631.652462	3772.534266
1633.527299	3762.440559
1635.407117	3748.834965
1637.282930	3751.532867
1639.158334	3749.490909
1641.035123	3748.461538
1642.906115	3752.822378
1644.780290	3762.462937
1646.650465	3763.356643
1648.523821	3775.310490
1650.394974	3775.794406
1652.263925	3771.325874
1654.134262	3756.907692
1656.000606	3741.220979
1657.868335	3738.584615
1659.733865	3730.113287
1661.600781	3713.088112
1663.463707	3709.748252
1665.328020	3705.774825
1667.190136	3707.271329
1669.051847	3706.497902
1670.914943	3710.117483
1672.775845	3705.903497
1674.634554	3697.600000
1676.492859	3692.826573
1678.352548	3687.330070
1680.206471	3684.806993
1682.063567	3671.451748
1683.920259	3667.490909
1685.772976	3666.738462
1687.628864	3660.232168
1689.480778	3662.478322
1691.332291	3664.548252
1693.183403	3664.068531
1695.034114	3656.609790
1696.884425	3656.311888
1698.732552	3651.443357
1700.582063	3642.851748
1702.425824	3638.409790
1704.274536	3644.622378
1706.117501	3644.780420
1707.963632	3644.679720
1709.805802	3649.625175
1711.651137	3655.809790
1713.490730	3655.460140
1715.331709	3643.713287
1717.174070	3634.737063
1719.012474	3632.667133
1720.852262	3618.253147
1722.689875	3619.110490
1724.527093	3625.772028
1726.362137	3631.815385
1728.198564	3631.574825
1730.032818	3635.836364
1731.866679	3629.393007
1733.700145	3624.212587
1735.529665	3608.973427
1737.362345	3596.002797
1739.191079	3594.932867
1741.022972	3586.584615
1742.850922	3582.078322
1744.678480	3587.857343
1746.505647	3594.465734
1748.332422	3597.127273
1750.158805	3596.560839
1751.981252	3594.197203
1753.806854	3589.669930
1755.628520	3599.317483
1757.451569	3594.376224
1759.272457	3605.099301
1761.092955	3607.580420
1762.914835	3609.418182
1764.731015	3608.937063
1766.550347	3614.749650
1768.365752	3623.910490
1770.184308	3618.787413
1771.998938	3602.313287
1773.813181	3602.423776
1775.627038	3594.776224
1777.440508	3588.303497
1779.251824	3570.672727
1781.064522	3566.737063
1782.876834	3554.769231
1784.685227	3555.619580
1786.495002	3550.563636
1788.300861	3559.218182
1790.109867	3562.320280
1791.914959	3559.774825
1793.721432	3558.489510
1795.527520	3569.633566
1797.329699	3561.563636
1799.135021	3552.647552
1800.936435	3543.292308
1802.739230	3533.966434
1804.538118	3519.781818
1806.338387	3515.000000
1808.138274	3510.707692
1809.936019	3494.330070
1811.733384	3491.032168
1813.530368	3491.337063
1815.326972	3494.218182
1817.121437	3488.083916
1818.917282	3476.634965
1820.707471	3475.620979
1822.502557	3474.765035
1824.291990	3482.581818
1826.084561	3488.439161
1827.874996	3499.723077
1829.663296	3507.106294
1831.454732	3500.630769
1833.240523	3510.351049
1835.027692	3511.932867
1836.812731	3510.591608
1838.600902	3502.413986
1840.385188	3499.418182
1842.167345	3503.173427
1843.950881	3501.693706
1845.732288	3501.820979
1847.515073	3502.861538
1849.293979	3501.928671
1851.074263	3495.995804
1852.852422	3491.483916
1854.631958	3489.728671
1856.409370	3477.939860
1858.184659	3470.307692
1859.961325	3467.446154
1861.735869	3467.727273
1863.511790	3472.239161
1865.282092	3462.200000
1867.055521	3451.213986
1868.826830	3455.520280
1870.597768	3454.433566
1872.370084	3455.671329
1874.136786	3464.640559
1875.906613	3475.669930
1877.672577	3483.762238
1879.441665	3488.330070
1881.206891	3497.165035
1882.971749	3497.682517
1884.737983	3496.902098
1886.500359	3475.069930
1888.262368	3464.365035
1890.024010	3455.391608
1891.785284	3439.281119
1893.546192	3428.577622
1895.306732	3421.671329
1897.065164	3419.987413
1898.823229	3420.188811
1900.579187	3412.120280
1902.336521	3409.149650
1904.093490	3402.630769
1905.848352	3406.310490
1907.601109	3396.067133
1909.353503	3396.637762
1911.107273	3398.409790
1912.858939	3402.179021
1914.608502	3397.082517
1916.359442	3395.250350
1918.110018	3392.688112
1919.856756	3391.244755
1921.604869	3375.925874
1923.350883	3370.072727
1925.098273	3366.374825
1926.843564	3368.711888
1928.586758	3361.739860
1930.331328	3361.001399
1932.073801	3360.570629
1933.815914	3364.876923
1935.557668	3363.960839
1937.299061	3370.862937
1939.038361	3377.986014
1940.777302	3374.780420
1942.515884	3371.302098
1944.252375	3383.142657
1945.988507	3390.071329
1947.726015	3397.283916
1949.459700	3393.837762
1951.194760	3392.941259
1952.927731	3386.625175
1954.660346	3396.100699
1956.392604	3396.513287
1958.124506	3397.562238
1959.854323	3401.089510
1961.582054	3397.184615
1963.311160	3403.211189
1965.039910	3407.841958
1966.766577	3408.411189
1968.492890	3398.653147
1970.220577	3388.034965
1971.942727	3381.888112
1973.667978	3367.777622
1975.389422	3375.216783
1977.113966	3359.320280
1978.836431	3356.651748
1980.555092	3358.320280
1982.276852	3359.836364
1983.994811	3361.546853
1985.714142	3365.839161
1987.429674	3370.606993
1989.150026	3372.439161
1990.866580	3371.255944
1992.579337	3364.576224
1994.295190	3355.928671
1996.008971	3361.946853
1997.722402	3357.041958
1999.433762	3358.937063
2001.146494	3355.990210
2002.855435	3359.346853
2004.567470	3363.774825
2006.273995	3366.867133
2007.983613	3373.362238
2009.691163	3381.327273
2011.398366	3375.697902
2013.103503	3380.288112
2014.808293	3386.344056
2016.514456	3390.981818
2018.216835	3392.544056
2019.920587	3383.437762
2021.622276	3376.825175
2023.323619	3375.620979
2025.024618	3364.482517
2026.723555	3356.695105
2028.423864	3359.545455
2030.120397	3362.348252
2031.818302	3357.886713
2033.514149	3369.237762
2035.213081	3372.944056
2036.906527	3382.553846
2038.601344	3382.023776
2040.295818	3381.352448
2041.986525	3375.106294
2043.680314	3376.413986
2045.370338	3364.647552
2047.061731	3358.949650
2048.751072	3354.993007
2050.441784	3343.064336
2052.128732	3327.780420
2053.815340	3324.404196
2055.503319	3316.015385
2057.187538	3315.523077
2058.873127	3299.980420
2060.558377	3293.794406
2062.241579	3281.366434
2063.926151	3282.914685
2065.605259	3277.532867
2067.289154	3286.499301
2068.967587	3283.158042
2070.649098	3285.391608
2072.326857	3275.566434
2074.004280	3284.268531
2075.683072	3285.546853
2077.359821	3288.625175
2079.034529	3285.883916
2080.710607	3276.181818
2082.384643	3263.882517
2084.058345	3258.572028
2085.731711	3260.304895
2087.403038	3258.412587
2089.074031	3242.386014
2090.744690	3240.316084
2092.415015	3221.406993
2094.085006	3229.349650
2095.752960	3232.211189
2097.420582	3238.194406
2099.086170	3244.945455
2100.753126	3242.594406
2102.418049	3247.310490
2104.082640	3252.071329
2105.745199	3258.383217
2107.409126	3262.193007
2109.071022	3262.633566
2110.732587	3262.160839
2112.393822	3259.355245
2114.053027	3265.709091
2115.711903	3260.546853
2117.370448	3262.370629
2119.028664	3268.446154
2120.683157	3266.490909
2122.340714	3272.416783
2123.997941	3268.942657
2125.651448	3268.132867
2127.306322	3264.972028
2128.957477	3257.095105
2130.611695	3253.795804
2132.262195	3250.958042
2133.914063	3251.795804
2135.560522	3230.292308
2137.211735	3236.090909
2138.859236	3233.440559
2140.508103	3229.972028
2142.154951	3229.897902
2143.801474	3228.772028
2145.447671	3220.083916
2147.090159	3216.265734
2148.735706	3216.465734
2150.377546	3214.721678
2152.022443	3216.825175
2153.663635	3215.170629
2155.304503	3199.475524
2156.945048	3205.668531
2158.583580	3194.857343
2160.223478	3187.342657
2161.859676	3175.608392
2163.497240	3171.208392
2165.134482	3153.002797
2166.769714	3153.583217
2168.404624	3156.967832
2170.039213	3149.432168
2171.673481	3150.275524
2173.304055	3149.248951
2174.937681	3153.048951
2176.567614	3153.748252
2178.198914	3155.034965
2179.828208	3157.679720
2181.457183	3158.388811
2183.085838	3157.026573
2184.714174	3149.234965
2186.340507	3150.963636
2187.966522	3154.086713
2189.590536	3148.938462
2191.215915	3145.117483
2192.839293	3139.211189
2194.464036	3126.097902
2196.085098	3117.124476
2197.705843	3107.422378
2199.327952	3103.664336
2200.948064	3096.502098
2202.566180	3080.977622
2204.183980	3074.981818
2205.801464	3072.405594
2207.418634	3079.777622
2209.035487	3091.158042
2210.652026	3090.433566
2212.266571	3100.103497
2213.879125	3099.934266
2215.493042	3112.721678
2217.104968	3113.118881
2218.718257	3118.339860
2220.329555	3108.427972
2221.938865	3096.595804
2223.549537	3091.325874
2225.158221	3086.655944
2226.766593	3084.500699
2228.372978	3081.780420
2229.980725	3085.962238
2231.586487	3098.234965
2233.191937	3092.163636
2234.795402	3097.847552
2236.400230	3094.949650
2238.003074	3095.246154
2239.603935	3079.823776
2241.206159	3079.250350
2242.806401	3076.618182
2244.408005	3068.535664
2246.005956	3064.511888
2247.605270	3066.606993
2249.202604	3073.797203
2250.799630	3071.167832
2252.398017	3060.995804
2253.992757	3065.461538
2255.585519	3056.847552
2257.179644	3059.665734
2258.775130	3042.286713
2260.366971	3046.892308
2261.958506	3045.026573
2263.551402	3047.110490
2265.138990	3053.247552
2266.731273	3054.351049
2268.318249	3056.262937
2269.908254	3052.172028
2271.492954	3050.074126
2273.082348	3049.945455
2274.666439	3030.132867
2276.251892	3024.114685
2277.835376	3007.055944
2279.421885	3001.409790
2281.004761	2991.527273
2282.587334	2985.964336
2284.169603	2977.468531
2285.748242	2968.676224
2287.329906	2962.539860
2288.907941	2960.590909
2290.488999	2961.313287
2292.066430	2963.988112
2293.641898	2960.061538
2295.220388	2963.368531
2296.795254	2966.434965
2298.369819	2963.193706
2299.944083	2953.854545
2301.518047	2957.106993
2303.091711	2956.388811
2304.665075	2955.328671
2306.234820	2948.872727
2307.804266	2958.668531
2309.376730	2955.541259
2310.943920	2956.993007
2312.514127	2952.878322
2314.080721	2948.539860
2315.648673	2941.787413
2317.214671	2942.093706
2318.780371	2940.327273
2320.345773	2945.676923
2321.909222	2947.923077
2323.474030	2963.532867
2325.035229	2957.450350
2326.599443	2978.406993
2328.158396	2970.015385
2329.720362	2973.243357
2331.280378	2969.067133
2332.840098	2962.420979
2334.397870	2955.534266
2335.955346	2958.690909
2337.512528	2942.903497
2339.067762	2939.800000
2340.622702	2938.716084
2342.177349	2950.524476
2343.731702	2933.043357
2345.285761	2942.683916
2346.839527	2931.549650
2348.391348	2936.208392
2349.941226	2927.611189
2351.494113	2928.492308
2353.041756	2921.890909
2354.592407	2919.054545
2356.139468	2911.611189
2357.687886	2917.593007
2359.236013	2917.314685
2360.780551	2917.209790
2362.326447	2909.685315
2363.870404	2915.942657
2365.415719	2917.351049
2366.957449	2914.200000
2368.500537	2911.516084
2370.041688	2924.243357
2371.582550	2911.570629
2373.123123	2915.120280
2374.663407	2912.120280
2376.203402	2908.693706
2377.739818	2898.390210
2379.279236	2887.104895
2380.815077	2883.257343
2382.352275	2878.808392
2383.885897	2868.205594
2385.422519	2869.911888
2386.957211	2873.967832
2388.489972	2887.033566
2390.022448	2878.786014
2391.552995	2888.539860
2393.086540	2884.503497
2394.614874	2885.549650
2396.144564	2876.514685
2397.673969	2879.141259
2399.203089	2878.588811
2400.731923	2875.900699
2402.255553	2875.268531
2403.783818	2876.678322
2405.306880	2877.725874
2406.834577	2879.916084
2408.355434	2879.974825
2409.880923	2879.085315
2411.402853	2873.661538
2412.926137	2873.934266
2414.447501	2870.616783
2415.966945	2870.374825
2417.487744	2864.734266
2419.006624	2854.591608
2420.525223	2846.552448
2422.041903	2841.330070
2423.559939	2837.237762
2425.077693	2833.594406
2426.591895	2834.169231
2428.105818	2837.030769
2429.619460	2836.338462
2431.134456	2836.071329
2432.645905	2834.113287
2434.158707	2833.051748
2435.669597	2836.717483
2437.180208	2832.994406
2438.688907	2828.202797
2440.200592	2818.702098
2441.708734	2805.690909
2443.216598	2800.323077
2444.724183	2793.362238
2446.228229	2792.979021
2447.735259	2790.918881
2449.240381	2779.565035
2450.745226	2769.627972
2452.248164	2769.567832
2453.750825	2770.658741
2455.253211	2758.320280
2456.753690	2745.443357
2458.255524	2732.847552
2459.755452	2732.923077
2461.255105	2724.292308
2462.754483	2718.078322
2464.251958	2725.181818
2465.747531	2722.841958
2467.246084	2710.896503
2468.741109	2703.172028
2470.237486	2707.206993
2471.730337	2703.595804
2473.224541	2700.327273
2474.718471	2702.394406
2476.208877	2708.331469
2477.702261	2706.302098
2479.193747	2695.303497
2480.683336	2701.051748
2482.172653	2707.395804
2483.660074	2689.938462
2485.150471	2691.386014
2486.637350	2684.027972
2488.125580	2691.149650
2489.610293	2687.083916
2491.094736	2696.517483
2492.580531	2692.384615
2494.064434	2695.818182
2495.549687	2687.118881
2497.029807	2688.671329
2498.512899	2697.579021
2499.994102	2689.320280
2501.475035	2679.002797
2502.954078	2685.879720
2504.432854	2681.295105
2505.911361	2677.271329
2507.389599	2674.854545
2508.867570	2682.412587
2510.342035	2680.481119
2511.819470	2684.952448
2513.293400	2683.858741
2514.768682	2684.482517
2516.243696	2682.229371
2517.715209	2683.269930
2519.188073	2688.531469
2520.659054	2694.949650
2522.131385	2691.253147
2523.598602	2687.808392
2525.068786	2697.064336
2526.537089	2697.406993
2528.005126	2699.186014
2529.472899	2699.342657
2530.940407	2700.868531
2532.407651	2698.230769
2533.871402	2701.665734
2535.336503	2706.643357
2536.799727	2709.630769
2538.264300	2707.606993
2539.725385	2698.434965
2541.187819	2699.211189
2542.649990	2700.644755
2544.108674	2691.195804
2545.571931	2686.422378
2547.030091	2689.812587
2548.489601	2696.963636
2549.944016	2702.260140
2551.403002	2700.664336
2552.860116	2693.401399
2554.315358	2685.244755
2555.770340	2676.772028
2557.223452	2675.432168
2558.677913	2666.675524
2560.130505	2661.190210
2561.582837	2655.102098
2563.033301	2655.878322
2564.486722	2665.037762
2565.935060	2673.204196
2567.386353	2678.937063
2568.835780	2669.855944
2570.281736	2664.370629
2571.730646	2655.139860
2573.176085	2658.068531
2574.622873	2654.702098
2576.067797	2636.244755
2577.512464	2621.888112
2578.958478	2623.862937
2580.401025	2624.120280
2581.844920	2622.605594
2583.285350	2630.583217
2584.727128	2632.732867
2586.167046	2627.440559
2587.608311	2628.318881
2589.046114	2628.581818
2590.486867	2636.648951
2591.922558	2627.055944
2593.361197	2613.497902
2594.797980	2600.000000
2596.232907	2607.006993
2597.670781	2603.579021
2599.103598	2599.213986
2600.537762	2596.854545
2601.970071	2590.583217
2603.403728	2578.362238
2604.835530	2570.379021
2606.267080	2564.991608
2607.698376	2566.258741
2609.127821	2555.920280
2610.557013	2558.627972
2611.984354	2562.686713
2613.413042	2560.626573
2614.841477	2560.393007
2616.266466	2556.991608
2617.692800	2549.380420
2619.117287	2554.139860
2620.543118	2541.241958
2621.965507	2537.858741
2623.389240	2533.713287
2624.811128	2532.184615
2626.232765	2531.227972
2627.652558	2534.984615
2629.073696	2532.861538
2630.494584	2523.892308
2631.912033	2527.869930
2633.332422	2523.257343
2634.749374	2519.509091
2636.166078	2526.255944
2637.582533	2520.332867
2638.998740	2520.695105
2640.414699	2520.699301
2641.828817	2515.727273
2643.242687	2515.219580
2644.654718	2515.669930
2646.068094	2519.208392
2647.478040	2517.156643
2648.890922	2515.562238
2650.300375	2511.379021
2651.709582	2513.553846
2653.116953	2515.531469
2654.527258	2514.625175
2655.935727	2515.111888
2657.342362	2516.546853
2658.748750	2511.415385
2660.153306	2512.587413
2661.559205	2523.574825
2662.963270	2525.069930
2664.367092	2531.149650
2665.770669	2533.748252
2667.172415	2533.109091
2668.575504	2534.700699
2669.975175	2534.616783
2671.376190	2533.243357
2672.773789	2518.654545
2674.174317	2505.612587
2675.571431	2488.779021
2676.969888	2478.683916
2678.366517	2473.026573
2679.762905	2460.714685
2681.159050	2463.839161
2682.553369	2462.215385
2683.949031	2455.193007
2685.341284	2454.376224
2686.734879	2457.531469
2688.126650	2460.472727
2689.519764	2454.397203
2690.911053	2454.879720
2692.300521	2450.064336
2693.689748	2447.545455
2695.078735	2450.107692
2696.469065	2443.563636
2697.854411	2446.485315
2699.242680	2437.198601
2700.629129	2423.806993
2702.015339	2415.401399
2703.401310	2409.306294
2704.783883	2409.479720
2706.167798	2412.160839
2707.551474	2405.092308
2708.934913	2408.945455
2710.314956	2409.023776
2711.696341	2419.839161
2713.075910	2413.264336
2714.456821	2410.988811
2715.835917	2404.662937
2717.213199	2399.907692
2718.591822	2400.899301
2719.968631	2399.415385
2721.345205	2403.485315
2722.721543	2408.309091
2724.096069	2401.229371
2725.471936	2411.965035
2726.844416	2411.306294
2728.219813	2413.623776
2729.590249	2403.395804
2730.962025	2395.945455
2732.333568	2386.278322
2733.703302	2379.113287
2735.074376	2375.434965
2736.443643	2367.334266
2737.812676	2363.254545
2739.179903	2364.454545
2740.546896	2359.257343
2741.913657	2362.862937
2743.280185	2355.429371
2744.644909	2355.647552
2746.009400	2355.170629
2747.373659	2356.977622
2748.737687	2354.330070
2750.101482	2353.386014
2751.461905	2349.233566
2752.825237	2355.422378
2754.183627	2353.693706
2755.544927	2351.706294
2756.902857	2346.801399
2758.263695	2341.710490
2759.622733	2328.717483
2760.978403	2333.390210
2762.336982	2325.300699
2763.692193	2320.862937
2765.047175	2314.717483
2766.400360	2309.451748
2767.756452	2305.953846
2769.109180	2318.318881
2770.461679	2312.152448
2771.813951	2311.220979
2773.167560	2308.784615
2774.517808	2305.812587
2775.866263	2293.977622
2777.217622	2291.963636
2778.565622	2275.437762
2779.914961	2268.958042
2781.262507	2264.812587
2782.609827	2262.987413
2783.956919	2260.436364
2785.302221	2268.734266
2786.647297	2258.786014
2787.992147	2262.714685
2789.336771	2265.257343
2790.678043	2266.970629
2792.020652	2257.548252
2793.363037	2254.188811
2794.705196	2245.193007
2796.044006	2247.780420
2797.385716	2249.281119
2798.724077	2252.565035
2800.063776	2254.552448
2801.401689	2255.696503
2802.737818	2249.551049
2804.073724	2262.841958
2805.410967	2267.036364
2806.746425	2268.204196
2808.081661	2255.921678
2809.415115	2249.879720
2810.749905	2240.367832
2812.081354	2239.886713
2813.415699	2233.593007
2814.745146	2230.826573
2816.075930	2235.966434
2817.406492	2238.830769
2818.735275	2235.818182
2820.065395	2240.465734
2821.393736	2230.344056
2822.721855	2221.366434
2824.048198	2202.544056
2825.375876	2200.991608
2826.700222	2198.546853
2828.025904	2198.791608
2829.349810	2187.356643
2830.673496	2196.590210
2831.998518	2207.383217
2833.320211	2211.753846
2834.641685	2208.271329
2835.962939	2208.081119
2837.283975	2196.248951
2838.603239	2189.516084
2839.923838	2170.267133
2841.242665	2171.401399
2842.561274	2165.201399
2843.878113	2161.288112
2845.194734	2151.962238
2846.511138	2163.669930
2847.825772	2164.462937
2849.141741	2166.581818
2850.454391	2164.025175
2851.768375	2165.616783
2853.082143	2158.517483
2854.395694	2152.567832
2855.707479	2138.467133
2857.017497	2138.816783
2858.328850	2137.064336
2859.636888	2143.832168
2860.946260	2142.337063
2862.255417	2147.061538
2863.564359	2152.634965
2864.871538	2158.632168
2866.176953	2165.348252
2867.483703	2171.923077
2868.788691	2169.377622
2870.093464	2172.289510
2871.396477	2166.124476
2872.702370	2170.001399
2874.003409	2171.436364
2875.305781	2174.620979
2876.606395	2171.054545
2877.908341	2174.593007
2879.210075	2181.507692
2880.508505	2185.406993
2881.808268	2184.850350
2883.106274	2178.104895
2884.404068	2160.542657
2885.700105	2152.893706
2886.997476	2138.815385
2888.293092	2138.076923
2889.588496	2129.511888
2890.883689	2122.454545
2892.175585	2119.163636
2893.470356	2122.360839
2894.761832	2121.763636
2896.054640	2124.290909
2897.347238	2121.000000
2898.636541	2121.186014
2899.927178	2115.359441
2901.216063	2115.503497
2902.506280	2116.265734
2903.793206	2113.837762
2905.081464	2110.258741
2906.367973	2097.958042
2907.654273	2094.900699
2908.940365	2093.967832
2910.224709	2083.012587
2911.511925	2081.832168
2912.794314	2080.453147
2914.078035	2086.156643
2915.360009	2081.569231
2916.641777	2079.216783
2917.921799	2085.516084
2919.204691	2089.036364
2920.485838	2091.567832
2921.763703	2088.539860
2923.044437	2088.981818
2924.321890	2086.054545
2925.599138	2071.156643
2926.874643	2072.937063
2928.153016	2075.146853
2929.426575	2075.623776
2930.703001	2064.422378
2931.977685	2069.081119
2933.250630	2067.781818
2934.524906	2067.548252
2935.797441	2057.018182
2937.069773	2056.535664
2938.338832	2046.646154
2939.610756	2037.481119
2940.880942	2027.979021
2942.150924	2034.619580
2943.420703	2036.953846
2944.688746	2035.019580
2945.955052	2040.416783
2947.221156	2044.839161
2948.488591	2035.537063
2949.754290	2035.422378
2951.019788	2030.149650
2952.285083	2032.186014
2953.547113	2018.675524
2954.810473	2011.243357
2956.073632	2006.272727
2957.335058	2009.525874
2958.597815	2008.190210
2959.858839	2004.310490
2961.118133	2010.311888
2962.377226	2011.437762
2963.636120	2012.692308
2964.894812	2024.791608
2966.153305	2023.811189
2967.410069	2026.998601
2968.666634	2015.337063
2969.921470	2012.097902
2971.177636	2009.047552
2972.430547	2007.276923
2973.684786	2000.627972
2974.938827	1993.805594
2976.191142	1992.525874
2977.443259	1995.829371
2978.693651	1996.138462
2979.946898	2000.090909
2981.195368	1991.893706
2982.446693	1988.823776
2983.694768	1984.869930
2984.942646	1992.605594
2986.190328	1986.295105
2987.437812	1981.664336
2988.683575	1976.313287
2989.929141	1977.386014
2991.176036	1977.506294
2992.419686	1983.300699
2993.664663	1981.727273
2994.906398	1975.241958
2996.150984	1970.495105
2997.393851	1970.011189
2998.633477	1967.148252
2999.875953	1969.485315
3001.115189	1957.173427
3002.355753	1957.425175
3003.594600	1958.765035
3004.833253	1967.972028
3006.070190	1962.061538
3007.308455	1963.051748
3008.545004	1958.623776
3009.781360	1953.282517
3011.017522	1952.004196
3012.251970	1946.783217
3013.486225	1942.332867
3014.720287	1940.518881
3015.952637	1937.296503
3017.183275	1937.492308
3018.416759	1940.753846
3019.648532	1940.158042
3020.878593	1936.914685
3022.108463	1936.495105
3023.336623	1936.195804
3024.566110	1932.489510
3025.793887	1926.507692
3027.021473	1931.002797
3028.250385	1937.791608
3029.474555	1937.296503
3030.701568	1934.205594
3031.925358	1927.633566
3033.150473	1923.131469
3034.373883	1916.668531
3035.597102	1917.264336
3036.818616	1908.682517
3038.042971	1904.616783
3039.262591	1902.113287
3040.483537	1896.079720
3041.704293	1909.078322
3042.923347	1914.569231
3044.143725	1919.787413
3045.360887	1915.130070
3046.579374	1912.639161
3047.796160	1905.752448
3049.012757	1902.439161
3050.229167	1900.202797
3051.442363	1903.469930
3052.658397	1902.737063
3053.871219	1904.167832
3055.086878	1894.158042
3056.297814	1897.366434
3057.510076	1891.611189
3058.722150	1893.113287
3059.934038	1890.713287
3061.144229	1888.576224
3062.354233	1882.769930
3063.564051	1879.160839
3064.772173	1873.372727
3065.980110	1877.958042
3067.186351	1875.929371
3068.393917	1869.688112
3069.599788	1862.803497
3070.805474	1864.162238
3072.010976	1861.867832
3073.214784	1867.808392
3074.419916	1869.126573
3075.623355	1867.755245
3076.825102	1862.327972
3078.026666	1860.972028
3079.228046	1853.290909
3080.429242	1853.600000
3081.628748	1854.886713
3082.828071	1847.237762
3084.028717	1844.000000
3085.227673	1842.206993
3086.423434	1838.801399
3087.622025	1836.672727
3088.817422	1834.039161
3090.014143	1837.025175
3091.207671	1837.044755
3092.404027	1844.434965
3093.598696	1845.307692
3094.790175	1840.703497
3095.985986	1833.868531
3097.177102	1828.397203
3098.369542	1825.555245
3099.558793	1827.253147
3100.750871	1820.160839
3101.941265	1819.257343
3103.128473	1813.945455
3104.317003	1827.061538
3105.506856	1826.005594
3106.693524	1829.078322
3107.880013	1827.125874
3109.066323	1815.109091
3110.253954	1807.496503
3111.438403	1808.552448
3112.621173	1811.180420
3113.806765	1813.437762
3114.990678	1808.011189
3116.172911	1806.759441
3117.354967	1804.318881
3118.536844	1811.376224
3119.718543	1810.553846
3120.898565	1810.630769
3122.076910	1808.253147
3123.258075	1800.400000
3124.436065	1798.186014
3125.613878	1790.186014
3126.791514	1782.955245
3127.967475	1781.767832
3129.143260	1770.339860
3130.320365	1755.296503
3131.495797	1748.832168
3132.669555	1748.446154
3133.841640	1749.046154
3135.015046	1755.191608
3136.188277	1757.643357
3137.359836	1761.372028
3138.532715	1770.804196
3139.702427	1770.300699
3140.873460	1770.938462
3142.042822	1774.072727
3143.210515	1766.092308
3144.381023	1759.279720
3145.546872	1761.878322
3146.717031	1769.261538
3147.882532	1770.267133
3149.047860	1785.827972
3150.213014	1785.963636
3151.377995	1787.875524
3152.544295	1785.844755
3153.705942	1777.941259
3154.868910	1768.897902
3156.031705	1754.186014
3157.194326	1740.395804
3158.355283	1731.402797
3159.516068	1723.411189
3160.676680	1725.074126
3161.835628	1722.016783
3162.994405	1726.528671
3164.153009	1724.138462
3165.311442	1724.208392
3166.469703	1720.016783
3167.626303	1719.278322
3168.781241	1709.953846
3169.937498	1701.934266
3171.092094	1695.993007
3172.246520	1687.970629
3173.399285	1680.170629
3174.551881	1685.358042
3175.704307	1678.467133
3176.856562	1680.949650
3178.008648	1688.769231
3179.157587	1690.493706
3180.309333	1690.309091
3181.459422	1694.591608
3182.607853	1692.946853
3183.756116	1696.128671
3184.904210	1700.408392
3186.052135	1702.086713
3187.198404	1700.829371
3188.344505	1709.767832
3189.488952	1708.591608
3190.633230	1713.398601
3191.777341	1710.039161
3192.922770	1699.163636
3194.065060	1691.191608
3195.207182	1693.440559
3196.349138	1689.741259
3197.490926	1689.206993
3198.632547	1694.040559
3199.771033	1699.321678
3200.910836	1694.057343
3202.051956	1697.174825
3203.189943	1691.458741
3204.326279	1694.047552
3205.462451	1689.323077
3206.599939	1692.654545
3207.735779	1694.565035
3208.872936	1699.860140
3210.005480	1687.629371
3211.142305	1686.959441
3212.274520	1684.297902
3213.408051	1681.674126
3214.541417	1663.455944
3215.671657	1655.490909
3216.804694	1643.457343
3217.934605	1638.615385
3219.065832	1630.886713
3220.193934	1628.546853
3221.324834	1617.422378
3222.454089	1612.358042
3223.581701	1605.763636
3224.706190	1614.728671
3225.834955	1616.800000
3226.960598	1622.707692
3228.086078	1621.683916
3229.209917	1628.570629
3230.336551	1627.667133
3231.458587	1629.944056
3232.581939	1627.860140
3233.705128	1628.840559
3234.828156	1623.218182
3235.949544	1624.630769
3237.070771	1622.457343
3238.190359	1624.079720
3239.309786	1619.204196
3240.427576	1628.120280
3241.548157	1626.034965
3242.665625	1628.229371
3243.782932	1630.995804
3244.900079	1634.344056
3246.015589	1634.406993
3247.132415	1639.509091
3248.246130	1637.479720
3249.362636	1639.830769
3250.477506	1640.984615
3251.589268	1641.767832
3252.700871	1635.061538
3253.813789	1636.818182
3254.926547	1632.990210
3256.036199	1632.227972
3257.147166	1627.591608
3258.257974	1622.822378
3259.367150	1619.730070
3260.474695	1622.391608
3261.583555	1622.951049
3262.692256	1636.015385
3263.797855	1638.193007
3264.904769	1638.469930
3266.010053	1631.152448
3267.116651	1627.672727
3268.220149	1628.562238
3269.324961	1624.316084
3270.429616	1620.474126
3271.531173	1616.265734
3272.632573	1615.367832
3273.735287	1615.911888
3274.837845	1611.318881
3275.937306	1617.643357
3277.039551	1616.993007
3278.138700	1617.751049
3279.236224	1612.802797
3280.333594	1613.497902
3281.433745	1616.765035
3282.530804	1607.159441
3283.627707	1601.762238
3284.724455	1601.078322
3285.816644	1596.246154
3286.913083	1591.265734
3288.007899	1579.734266
3289.102560	1588.770629
3290.195600	1588.916084
3291.288486	1586.820979
3292.379751	1585.558042
3293.472329	1591.254545
3294.563287	1592.454545
3295.652625	1586.093706
3296.741810	1588.033566
3297.832307	1588.577622
3298.919721	1587.601399
3300.006981	1591.829371
3301.095554	1586.661538
3302.183974	1593.006993
3303.267848	1584.356643
3304.355963	1585.958042
3305.440996	1584.622378
3306.524414	1586.618182
3307.609144	1584.675524
3308.692258	1586.127273
3309.776684	1587.206993
3310.858033	1584.559441
3311.940693	1586.963636
3313.021738	1587.261538
3314.102633	1575.834965
3315.181915	1570.053147
3316.261046	1565.604196
3317.341489	1567.372028
3318.418857	1565.563636
3319.497537	1568.013986
3320.574605	1567.441958
3321.651523	1573.000000
3322.726831	1573.779021
3323.801989	1578.446154
3324.878458	1576.892308
3325.951857	1572.548252
3327.025106	1564.793007
3328.099667	1560.573427
3329.172619	1548.874126
3330.243962	1543.158042
3331.316616	1540.966434
3332.386203	1536.227972
3333.457101	1529.097902
3334.526393	1528.055944
3335.596994	1522.386014
3336.665989	1522.565035
3337.733379	1518.819580
3338.799163	1522.019580
3339.869173	1522.138462
3340.936120	1517.776224
3342.000005	1509.904895
3343.066657	1515.986014
3344.131706	1522.050350
3345.195151	1523.594406
3346.258450	1524.945455
3347.321602	1528.144056
3348.384608	1528.197203
3349.447468	1529.598601
3350.508725	1529.991608
3351.566926	1539.187413
3352.629348	1531.959441
3353.688714	1529.874126
3354.747934	1527.408392
3355.808463	1526.997203
3356.864484	1526.325874
3357.923268	1516.889510
3358.977545	1506.127273
3360.034586	1506.310490
3361.090028	1500.688112
3362.146780	1505.993007
3363.201933	1509.215385
3364.255489	1515.095105
3365.307448	1516.455944
3366.362170	1525.325874
3367.413842	1528.296503
3368.465370	1529.545455
3369.518208	1526.878322
3370.567998	1512.948252
3371.619097	1501.483916
3372.667149	1500.612587
3373.717962	1494.535664
3374.765729	1500.365035
3375.813354	1499.633566
3376.860837	1497.906294
3377.906727	1496.534266
3378.953925	1499.903497
3379.998080	1503.660140
3381.044995	1503.700699
3382.090317	1497.169231
3383.132598	1484.027972
3384.174738	1473.709091
3385.218187	1478.225175
3386.261494	1475.967832
3387.303211	1481.949650
3388.344788	1478.289510
3389.386223	1477.239161
3390.426070	1476.639161
3391.464328	1488.145455
3392.503894	1491.239161
3393.543320	1483.979021
3394.581158	1478.316084
3395.617409	1466.188811
3396.653520	1466.390210
3397.690939	1472.580420
3398.725325	1468.092308
3399.761019	1473.458741
3400.796573	1466.597203
3401.829095	1478.139860
3402.864371	1483.023776
3403.896617	1485.735664
3404.928723	1479.352448
3405.959247	1470.855944
3406.991077	1465.700699
3408.022769	1455.278322
3409.051433	1458.362238
3410.079960	1460.834965
3411.109793	1455.068531
3412.139489	1459.174825
3413.166159	1460.286713
3414.194135	1473.415385
3415.219087	1465.913287
3416.246790	1468.057343
3417.271468	1470.137063
3418.297453	1469.068531
3419.321859	1461.860140
3420.346128	1458.903497
3421.368818	1463.218182
3422.391372	1464.619580
3423.415232	1454.934266
3424.436072	1451.601399
3425.456776	1445.991409
3426.478786	1440.584515
3427.497778	1435.926873
3428.516635	1432.564635
3429.536798	1431.043956
3430.553944	1431.910989
