-118.702670	5.800000
-116.033069	34.400000
-113.366404	21.400000
-110.700491	23.600000
-108.037511	57.200000
-105.373100	32.600000
-102.711620	10.000000
-100.048711	31.200000
-97.390908	24.000000
-94.731676	10.400000
-92.073192	22.600000
-89.417633	76.400000
-86.760644	8.800000
-84.108754	36.000000
-81.455434	0.000000
-78.805033	27.600000
-76.153204	22.600000
-73.506465	38.800000
-70.858296	24.400000
-68.210870	21.200000
-65.566359	34.000000
-62.920418	33.400000
-60.279559	22.800000
-57.637271	24.200000
-54.997892	25.400000
-52.357084	45.400000
-49.717015	12.600000
-47.082020	68.400000
-44.445595	15.400000
-41.812073	35.200000
-39.177123	46.800000
-36.547239	32.000000
-33.913761	31.600000
-31.285346	53.600000
-28.657665	23.000000
-26.028555	63.400000
-23.404503	18.600000
-20.776860	26.800000
-18.154272	58.000000
-15.532414	109.200000
-12.911287	121.400000
-10.290891	257.800000
-7.673382	781.400000
-5.054445	2319.800000
-2.438394	5197.000000
0.176930	6301.800000
2.791525	3843.000000
5.403239	749.000000
8.016381	93.400000
10.624489	53.000000
13.236178	47.800000
15.842837	71.000000
18.450925	45.400000
21.058287	47.000000
23.660625	25.000000
26.266542	64.400000
28.867436	51.600000
31.469758	55.800000
34.067062	37.200000
36.667943	27.800000
39.263808	30.400000
41.861101	66.200000
44.457675	62.000000
47.049240	58.200000
49.642234	68.000000
52.232366	52.400000
54.823925	45.800000
57.412626	67.600000
60.002753	47.800000
62.587881	62.000000
65.174437	41.800000
67.760278	61.600000
70.343266	55.000000
72.927681	72.800000
75.504967	58.600000
78.085818	86.000000
80.663822	55.800000
83.241114	75.800000
85.819834	55.200000
88.393571	96.000000
90.968735	60.200000
93.541056	71.000000
96.112670	74.000000
98.681443	64.200000
101.251643	92.000000
103.819004	82.600000
106.387792	115.600000
108.953743	134.400000
111.516859	154.600000
114.083531	210.000000
116.640981	243.600000
119.204117	365.800000
121.762294	510.800000
124.324025	798.600000
126.880799	1139.200000
129.438999	1709.800000
131.992247	2547.200000
134.544797	3779.400000
137.100897	5360.800000
139.652049	7276.000000
142.202504	9006.200000
144.752261	10301.000000
147.299199	11199.400000
149.845442	11653.000000
152.393110	12118.200000
154.940082	12166.400000
157.482118	12187.600000
160.023462	12035.800000
162.564112	12019.200000
165.106187	11864.000000
167.645452	11997.800000
170.181907	11862.400000
172.717672	11759.800000
175.254862	11839.200000
177.791361	11777.800000
180.325054	11734.600000
182.855943	11753.600000
185.386144	11624.200000
187.917771	11626.000000
190.446596	11611.400000
192.972622	11683.600000
195.497962	11595.600000
198.024727	11625.400000
200.548696	11619.400000
203.071979	11652.000000
205.594578	11597.600000
208.114384	11627.400000
210.633507	11607.000000
213.151947	11367.600000
215.671812	11538.800000
218.184674	11501.000000
220.701068	11595.200000
223.216781	11595.800000
225.727603	11546.400000
228.239850	11702.800000
230.749314	11703.800000
233.258100	11606.000000
235.766208	11691.200000
238.275740	11765.800000
240.780391	11828.000000
243.284366	11689.600000
245.789765	11745.800000
248.290289	11815.200000
250.794336	11964.800000
253.291413	11852.600000
255.792012	11933.000000
258.289840	11932.600000
260.786995	11888.600000
263.283478	11944.200000
265.775097	11939.800000
268.270236	11977.800000
270.762608	11807.400000
273.254310	11938.200000
275.743249	11800.400000
278.233611	11940.800000
280.721212	11749.800000
283.206053	12012.600000
285.694409	11851.600000
288.175825	11890.600000
290.660755	11851.200000
293.140839	11947.000000
295.624436	11864.000000
298.103191	11932.600000
300.583368	11922.800000
303.060794	11975.800000
305.537556	11936.400000
308.013654	11911.400000
310.487004	11857.400000
312.959693	12011.600000
315.431720	11987.200000
317.903085	12101.400000
320.371707	12252.400000
322.839669	12196.200000
325.309054	12026.000000
327.773616	12113.800000
330.241682	11985.800000
332.704927	12010.000000
335.167516	11987.600000
337.629448	11898.400000
340.090723	12018.000000
342.549263	11847.800000
345.009226	11874.600000
347.466457	11815.200000
349.923033	11805.400000
352.378955	11624.400000
354.832147	11643.800000
357.286762	11642.800000
359.736575	11510.200000
362.189884	11461.200000
364.638394	11235.600000
367.086254	11227.000000
369.535536	11189.400000
371.980023	11035.400000
374.425933	11026.400000
376.871194	10863.600000
379.313736	10874.200000
381.755630	10870.000000
384.196876	10702.000000
386.635408	10530.600000
389.075360	10453.400000
391.512599	10368.400000
393.947127	10410.400000
396.385141	10274.400000
398.818380	10163.400000
401.253039	10075.000000
403.682926	10086.800000
406.116298	10080.000000
408.544900	10067.000000
410.972860	9930.800000
413.402241	9921.400000
415.826858	9889.600000
418.252895	9974.800000
420.678293	9852.600000
423.103050	9803.800000
425.523048	9808.800000
427.944468	9891.000000
430.363192	9848.400000
432.783335	9876.400000
435.200784	9870.200000
437.619654	9879.200000
440.035829	9905.400000
442.447258	9883.000000
444.862163	9717.400000
447.274378	9835.400000
449.685960	9803.200000
452.096907	9837.400000
454.505167	9735.200000
456.912796	9733.600000
459.319792	9779.200000
461.726157	9788.800000
464.129839	9675.400000
466.532891	9713.800000
468.935313	9765.600000
471.337105	9580.000000
473.736219	9578.200000
476.136753	9691.400000
478.536658	9702.600000
480.931841	9601.200000
483.330489	9660.000000
485.724418	9490.800000
488.117721	9447.800000
490.510399	9472.800000
492.902451	9548.400000
495.295921	9456.400000
497.684679	9355.200000
500.070771	9453.200000
502.458283	9407.600000
504.845172	9403.200000
507.229396	9253.200000
509.615040	9386.400000
511.998022	9340.400000
514.378342	9253.200000
516.760083	9346.000000
519.139164	9341.800000
521.519663	9313.000000
523.897506	9287.800000
526.272692	9319.000000
528.647261	9304.600000
531.023249	9330.000000
533.396584	9237.000000
535.771336	9158.400000
538.141402	9219.800000
540.510854	9080.000000
542.881723	9049.600000
545.247911	8810.200000
547.615518	8895.800000
549.980479	8730.600000
552.344828	8765.600000
554.708563	8705.400000
557.073716	8724.400000
559.434197	8630.600000
561.796095	8506.400000
564.155354	8321.400000
566.511974	8288.400000
568.872040	8258.200000
571.225414	8164.600000
573.582233	8076.000000
575.936417	8098.600000
578.289992	7887.800000
580.642960	7757.600000
582.993295	7836.800000
585.345048	7711.600000
587.690124	7521.600000
590.040663	7486.600000
592.384530	7425.200000
594.733858	7443.200000
597.078537	7400.600000
599.420592	7326.600000
601.764064	7311.600000
604.104913	7245.800000
606.445159	7227.000000
608.782785	7249.000000
611.123846	7104.400000
613.460270	7146.200000
615.798110	7137.200000
618.133333	7125.400000
620.465939	7134.000000
622.799963	7222.800000
625.131372	7267.400000
627.462183	7123.200000
629.792396	7145.800000
632.122012	7212.000000
634.447004	7184.800000
636.777438	7279.400000
639.103251	7173.800000
641.426456	7251.800000
643.751078	7174.600000
646.073094	7226.400000
648.394516	7133.400000
650.713335	7301.000000
653.033571	7217.400000
655.353212	7264.000000
657.670254	7235.800000
659.986703	7314.200000
662.300554	7386.400000
664.615821	7382.400000
666.928491	7410.000000
669.242576	7443.000000
671.552061	7609.200000
673.862962	7540.000000
676.171270	7466.200000
678.478989	7640.800000
680.788124	7745.600000
683.092666	7829.800000
685.396622	7783.400000
687.699991	7849.200000
690.004776	7894.000000
692.304973	7959.400000
694.606586	7978.200000
696.907613	8086.200000
699.204059	8093.800000
701.501920	8229.600000
703.799197	8186.400000
706.095891	8314.200000
708.388009	8323.800000
710.683538	8366.000000
712.974493	8439.400000
715.266863	8371.400000
717.556657	8508.000000
719.845872	8530.600000
722.134507	8621.000000
724.420569	8590.800000
726.708045	8701.800000
728.992951	8722.400000
731.277279	8710.200000
733.559038	8839.200000
735.842211	8836.400000
738.124807	8862.400000
740.402847	8880.000000
742.682301	9028.800000
744.961180	9078.000000
747.239484	9152.200000
749.513237	9215.000000
751.788405	9358.200000
754.062999	9356.400000
756.335034	9397.600000
758.608482	9524.400000
760.879372	9458.000000
763.147706	9524.200000
765.417453	9713.200000
767.684645	9681.000000
769.951268	9778.000000
772.217320	9732.600000
774.480821	9778.800000
776.745734	9912.200000
779.010079	9911.800000
781.269893	9928.800000
783.531121	10005.000000
785.791781	10055.000000
788.049895	10137.000000
790.305464	10143.000000
792.564423	10246.400000
794.816884	10219.800000
797.074712	10156.600000
799.328021	10155.600000
801.578790	10280.200000
803.830971	10230.800000
806.080613	10431.000000
808.331667	10331.200000
810.578210	10266.400000
812.826166	10311.600000
815.071586	10440.400000
817.318419	10477.600000
819.564689	10563.000000
821.806456	10424.400000
824.051605	10588.200000
826.290283	10542.800000
828.532342	10642.000000
830.769903	10577.400000
833.008876	10700.800000
835.245322	10743.000000
837.483179	10761.000000
839.718511	10803.400000
841.951320	10958.200000
844.185539	10993.400000
846.417237	11042.400000
848.648380	11224.600000
850.878968	11310.000000
853.109002	11424.400000
855.338481	11577.000000
857.563480	11723.600000
859.791852	11758.000000
862.015746	11939.200000
864.241051	12108.000000
866.461880	12408.200000
868.686081	12435.800000
870.905809	12610.200000
873.126947	12827.000000
875.347535	12963.600000
877.565614	13290.800000
879.785102	13463.800000
882.000124	13582.000000
884.214598	13683.600000
886.428525	13855.200000
888.641904	13889.600000
890.854737	13876.400000
893.067022	14030.600000
895.276806	14116.600000
897.486044	14062.600000
899.694737	13989.400000
901.900930	13967.400000
904.108533	13832.000000
906.313639	13801.400000
908.518201	13687.600000
910.720268	13614.400000
912.923744	13483.600000
915.124726	13206.400000
917.325166	12997.000000
919.527015	12696.000000
921.722473	12539.200000
923.921289	12242.400000
926.115668	11949.800000
928.313404	11738.600000
930.506704	11603.600000
932.701413	11299.000000
934.893635	11116.600000
937.085320	11001.800000
939.276467	10804.400000
941.465131	10703.200000
943.653259	10665.800000
945.838905	10495.200000
948.027905	10503.200000
950.212480	10453.800000
952.396521	10477.000000
954.583913	10416.600000
956.763000	10527.400000
958.945438	10446.200000
961.127342	10424.200000
963.306771	10469.400000
965.483728	10471.000000
967.662093	10493.800000
969.841865	10474.400000
972.015288	10465.600000
974.192057	10336.600000
976.364419	10297.200000
978.538189	10321.200000
980.707555	10183.800000
982.880265	10113.600000
985.050510	10045.600000
987.220225	9892.200000
989.389412	9737.200000
991.554202	9699.200000
993.722334	9551.800000
995.886070	9415.600000
998.051214	9278.600000
1000.213898	9220.200000
1002.376057	9115.600000
1004.535759	9085.600000
1006.694936	8946.600000
1008.855520	8870.800000
1011.013649	8719.800000
1013.171255	8664.000000
1015.328337	8453.000000
1017.484895	8428.200000
1019.637074	8364.000000
1021.790660	8201.200000
1023.943724	8207.400000
1026.094339	8141.200000
1028.246360	8098.200000
1030.394009	8064.400000
1032.544989	7884.600000
1034.691598	7834.400000
1036.837688	7863.400000
1038.983260	7795.200000
1041.130237	7820.600000
1043.270925	7716.000000
1045.414942	7708.400000
1047.556520	7674.000000
1049.697580	7604.200000
1051.840046	7587.400000
1053.976231	7565.000000
1056.115743	7506.800000
1058.250899	7468.400000
1060.389380	7421.000000
1062.523508	7258.000000
1064.657122	7300.800000
1066.792140	7304.200000
1068.922810	7259.800000
1071.054884	7221.000000
1073.184528	7157.200000
1075.313661	7188.800000
1077.442283	7045.000000
1079.570393	7025.600000
1081.696077	6983.800000
1083.821251	6909.600000
1085.947829	6854.200000
1088.070069	6856.400000
1090.193714	6754.600000
1092.313024	6797.000000
1094.437563	6633.400000
1096.555858	6628.400000
1098.675556	6497.400000
1100.792837	6456.400000
1102.909610	6396.600000
1105.025877	6228.400000
1107.139729	6368.800000
1109.254984	6085.800000
1111.365917	6152.000000
1113.480162	6085.800000
1115.590086	6009.400000
1117.701413	5912.400000
1119.812237	5921.800000
1121.918744	5822.000000
1124.028560	5790.800000
1126.134062	5743.000000
1128.240968	5645.400000
1130.341658	5544.400000
1132.447560	5453.000000
1134.549153	5473.200000
1136.652148	5438.200000
1138.754644	5438.600000
1140.850932	5369.400000
1142.952427	5306.400000
1145.049620	5234.400000
1147.146314	5118.000000
1149.242511	5172.200000
1151.338209	5077.600000
1153.433410	5059.600000
1155.526214	4939.800000
1157.620420	5030.400000
1159.708435	4864.400000
1161.801648	4878.000000
1163.888674	4845.400000
1165.978998	4839.600000
1168.065034	4816.400000
1170.154368	4706.800000
1172.237521	4747.000000
1174.322077	4707.400000
1176.408034	4658.200000
1178.489709	4663.200000
1180.572785	4548.000000
1182.653476	4591.400000
1184.733676	4567.000000
1186.813384	4575.000000
1188.892601	4526.000000
1190.969435	4478.200000
1193.043889	4547.600000
1195.121635	4525.000000
1197.195110	4433.000000
1199.269987	4485.200000
1201.340596	4427.400000
1203.412606	4441.200000
1205.482240	4456.600000
1207.553275	4396.200000
1209.623822	4444.400000
1211.690109	4384.800000
1213.757796	4349.400000
1215.823110	4373.400000
1217.889825	4383.200000
1219.952284	4381.800000
1222.018029	4435.600000
1224.079519	4351.000000
1226.142410	4322.800000
1228.202932	4385.600000
1230.262972	4263.600000
1232.322528	4366.200000
1234.379720	4356.800000
1236.436429	4297.200000
1238.490776	4262.000000
1240.548403	4320.600000
1242.603668	4278.600000
1244.654693	4290.000000
1246.707117	4241.800000
1248.759061	4297.000000
1250.808647	4243.600000
1252.857754	4295.600000
1254.906382	4284.600000
1256.954532	4273.400000
1259.002204	4284.200000
1261.045645	4239.400000
1263.092362	4242.600000
1265.136725	4296.000000
1267.180611	4286.000000
1269.222147	4354.600000
1271.261333	4271.600000
1273.303792	4228.000000
1275.342028	4274.400000
1277.381663	4260.200000
1279.420822	4287.800000
1281.455764	4292.800000
1283.492104	4225.200000
1285.526100	4279.400000
1287.561493	4222.800000
1289.592673	4266.800000
1291.625252	4223.400000
1293.657359	4239.600000
1295.687125	4237.400000
1297.718288	4194.200000
1299.745244	4277.800000
1301.773599	4277.800000
1303.797748	4280.400000
1305.825163	4274.400000
1307.848375	4255.800000
1309.872985	4231.000000
1311.895260	4278.800000
1313.918933	4310.000000
1315.940273	4283.000000
1317.961146	4251.600000
1319.981551	4270.800000
1321.997763	4347.800000
1324.015372	4238.800000
1326.030653	4244.000000
1328.049193	4232.400000
1330.063543	4267.200000
1332.075568	4262.200000
1334.090851	4259.600000
1336.101948	4294.600000
1338.114441	4238.400000
1340.122752	4287.200000
1342.134319	4286.400000
1344.139847	4264.400000
1346.148630	4300.400000
1348.153235	4247.200000
1350.161094	4274.600000
1352.168491	4351.000000
1354.169857	4292.600000
1356.172619	4289.000000
1358.174922	4249.800000
1360.176765	4212.200000
1362.178148	4323.600000
1364.177217	4291.800000
1366.175828	4266.000000
1368.173981	4229.800000
1370.171676	4267.200000
1372.165208	4230.800000
1374.160135	4222.800000
1376.154606	4187.200000
1378.148620	4182.400000
1380.140327	4220.000000
1382.131578	4221.000000
1384.120524	4237.000000
1386.110865	4197.400000
1388.100752	4099.400000
1390.088334	4234.000000
1392.075463	4203.800000
1394.060290	4197.800000
1396.046512	4220.000000
1398.030433	4147.400000
1400.013902	4126.200000
1401.996919	4168.800000
1403.977638	4211.000000
1405.959751	4176.200000
1407.939567	4177.800000
1409.918933	4183.400000
1411.894160	4221.200000
1413.872625	4169.800000
1415.848797	4199.800000
1417.824519	4240.200000
1419.799792	4219.400000
1421.772775	4177.600000
1423.745309	4241.400000
1425.717395	4165.800000
1427.689034	4195.200000
1429.656544	4202.600000
1431.629128	4197.000000
1433.593906	4159.000000
1435.563757	4299.400000
1437.529483	4178.000000
1439.496603	4130.200000
1441.461439	4156.000000
1443.422155	4191.000000
1445.387939	4145.600000
1447.347768	4174.600000
1449.308991	4136.400000
1451.271605	4115.600000
1453.230105	4123.200000
1455.188163	4142.000000
1457.145779	4188.800000
1459.102952	4065.800000
1461.057850	4173.400000
1463.014141	4154.600000
1464.968157	4156.600000
1466.921732	4182.200000
1468.873035	4192.000000
1470.825730	4120.200000
1472.776154	4090.800000
1474.726139	4049.400000
1476.675685	4085.400000
1478.622962	4097.800000
1480.567971	4090.600000
1482.514373	4108.600000
1484.460337	4163.000000
1486.405864	4065.600000
1488.349125	4094.600000
1490.291950	4116.000000
1492.232512	4103.000000
1494.174466	4133.000000
1496.114157	4110.200000
1498.053413	4048.600000
1499.992235	4038.000000
1501.928797	3916.000000
1503.866750	4144.200000
1505.802444	4131.600000
1507.737705	4054.000000
1509.670709	4071.400000
1511.603281	4176.600000
1513.535421	4065.000000
1515.467129	4042.600000
1517.396584	4056.800000
1519.327429	4114.800000
1521.257842	4025.200000
1523.184183	4060.000000
1525.111914	4047.400000
1527.037396	4077.200000
1528.962448	4052.800000
1530.887070	4014.000000
1532.811264	4065.200000
1534.733211	4072.200000
1536.656548	3977.800000
1538.577638	4019.400000
1540.496484	4093.800000
1542.416720	4044.600000
1544.334712	4040.000000
1546.252278	4014.400000
1548.167603	4014.600000
1550.084317	4040.800000
1551.996975	3963.800000
1553.912838	4058.600000
1555.826462	4037.200000
1557.737847	4040.400000
1559.650622	3981.600000
1561.559347	3983.000000
1563.469461	4044.400000
1565.379152	3962.400000
1567.288420	3973.600000
1569.195453	3991.200000
1571.100254	3892.200000
1573.006444	4020.600000
1574.910403	3976.600000
1576.813940	3908.200000
1578.717057	3985.200000
1580.617944	4000.600000
1582.520220	3920.200000
1584.420267	3995.600000
1586.321703	3966.000000
1588.219104	3904.600000
1590.116088	4009.000000
1592.012653	3935.600000
1593.910605	3924.400000
1595.802723	3918.800000
1597.698035	3929.400000
1599.592928	3970.200000
1601.485601	3944.000000
1603.377856	3907.400000
1605.267892	3945.800000
1607.157512	3884.000000
1609.046717	3888.400000
1610.935506	3943.600000
1612.822079	3943.600000
1614.710039	3960.200000
1616.593982	3980.000000
1618.479312	3916.000000
1620.364229	3930.800000
1622.246932	3936.400000
1624.131022	3937.000000
1626.011100	3972.000000
1627.892566	3872.000000
1629.771820	3899.600000
1631.652462	3892.000000
1633.527299	3930.000000
1635.407117	3855.600000
1637.282930	3883.400000
1639.158334	3886.800000
1641.035123	3893.800000
1642.906115	3882.200000
1644.780290	3940.400000
1646.650465	3882.200000
1648.523821	3856.400000
1650.394974	3942.400000
1652.263925	3963.400000
1654.134262	3917.400000
1656.000606	3811.800000
1657.868335	3875.400000
1659.733865	3852.000000
1661.600781	3775.200000
1663.463707	3856.800000
1665.328020	3860.000000
1667.190136	3824.800000
1669.051847	3838.200000
1670.914943	3796.200000
1672.775845	3887.800000
1674.634554	3804.000000
1676.492859	3815.800000
1678.352548	3832.600000
1680.206471	3813.800000
1682.063567	3824.600000
1683.920259	3821.400000
1685.772976	3832.000000
1687.628864	3775.000000
1689.480778	3801.000000
1691.332291	3765.800000
1693.183403	3792.400000
1695.034114	3782.000000
1696.884425	3813.400000
1698.732552	3809.800000
1700.582063	3767.000000
1702.425824	3751.200000
1704.274536	3814.200000
1706.117501	3780.200000
1707.963632	3781.200000
1709.805802	3796.000000
1711.651137	3759.800000
1713.490730	3788.800000
1715.331709	3778.200000
1717.174070	3735.000000
1719.012474	3828.000000
1720.852262	3735.600000
1722.689875	3828.800000
1724.527093	3776.600000
1726.362137	3759.800000
1728.198564	3773.400000
1730.032818	3770.800000
1731.866679	3682.000000
1733.700145	3775.800000
1735.529665	3776.400000
1737.362345	3745.200000
1739.191079	3706.400000
1741.022972	3718.600000
1742.850922	3698.000000
1744.678480	3766.800000
1746.505647	3684.600000
1748.332422	3718.800000
1750.158805	3737.200000
1751.981252	3728.800000
1753.806854	3706.200000
1755.628520	3753.800000
1757.451569	3704.600000
1759.272457	3758.800000
1761.092955	3742.800000
1762.914835	3684.600000
1764.731015	3701.200000
1766.550347	3664.200000
1768.365752	3705.200000
1770.184308	3761.400000
1771.998938	3750.400000
1773.813181	3695.600000
1775.627038	3705.000000
1777.440508	3702.000000
1779.251824	3726.800000
1781.064522	3704.200000
1782.876834	3702.200000
1784.685227	3731.600000
1786.495002	3707.400000
1788.300861	3679.200000
1790.109867	3689.000000
1791.914959	3739.400000
1793.721432	3660.800000
1795.527520	3644.200000
1797.329699	3636.400000
1799.135021	3615.000000
1800.936435	3726.400000
1802.739230	3722.400000
1804.538118	3625.400000
1806.338387	3677.400000
1808.138274	3656.000000
1809.936019	3685.000000
1811.733384	3682.400000
1813.530368	3624.800000
1815.326972	3682.600000
1817.121437	3615.200000
1818.917282	3628.600000
1820.707471	3657.600000
1822.502557	3647.600000
1824.291990	3639.600000
1826.084561	3615.800000
1827.874996	3641.400000
1829.663296	3567.200000
1831.454732	3623.600000
1833.240523	3618.200000
1835.027692	3670.000000
1836.812731	3628.000000
1838.600902	3615.400000
1840.385188	3572.800000
1842.167345	3649.600000
1843.950881	3601.800000
1845.732288	3619.000000
1847.515073	3639.800000
1849.293979	3599.600000
1851.074263	3610.800000
1852.852422	3599.200000
1854.631958	3606.600000
1856.409370	3614.800000
1858.184659	3628.000000
1859.961325	3599.800000
1861.735869	3576.200000
1863.511790	3585.000000
1865.282092	3594.000000
1867.055521	3625.000000
1868.826830	3557.400000
1870.597768	3626.200000
1872.370084	3540.200000
1874.136786	3677.200000
1875.906613	3568.600000
1877.672577	3608.400000
1879.441665	3602.200000
1881.206891	3580.800000
1882.971749	3573.800000
1884.737983	3618.200000
1886.500359	3588.400000
1888.262368	3588.600000
1890.024010	3572.800000
1891.785284	3528.600000
1893.546192	3519.200000
1895.306732	3577.200000
1897.065164	3553.800000
1898.823229	3515.200000
1900.579187	3588.800000
1902.336521	3545.800000
1904.093490	3516.000000
1905.848352	3573.600000
1907.601109	3504.200000
1909.353503	3552.200000
1911.107273	3527.400000
1912.858939	3514.200000
1914.608502	3566.200000
1916.359442	3533.000000
1918.110018	3454.000000
1919.856756	3481.000000
1921.604869	3492.000000
1923.350883	3556.400000
1925.098273	3536.600000
1926.843564	3502.000000
1928.586758	3497.600000
1930.331328	3514.600000
1932.073801	3457.200000
1933.815914	3496.400000
1935.557668	3477.000000
1937.299061	3504.800000
1939.038361	3452.200000
1940.777302	3506.800000
1942.515884	3528.200000
1944.252375	3477.600000
1945.988507	3484.500000
1947.726015	3491.400000
1949.459700	3570.800000
1951.194760	3505.600000
1952.927731	3482.600000
1954.660346	3523.600000
1956.392604	3443.200000
1958.124506	3508.000000
1959.854323	3535.600000
1961.582054	3492.000000
1963.311160	3553.000000
1965.039910	3546.400000
1966.766577	3520.200000
1968.492890	3502.400000
1970.220577	3489.400000
1971.942727	3464.800000
1973.667978	3450.200000
1975.389422	3497.600000
1977.113966	3525.200000
1978.836431	3535.800000
1980.555092	3477.200000
1982.276852	3469.800000
1983.994811	3437.600000
1985.714142	3500.400000
1987.429674	3419.400000
1989.150026	3508.600000
1990.866580	3470.200000
1992.579337	3560.400000
1994.295190	3508.200000
1996.008971	3522.600000
1997.722402	3487.000000
1999.433762	3553.600000
2001.146494	3528.800000
2002.855435	3464.800000
2004.567470	3525.600000
2006.273995	3579.000000
2007.983613	3460.400000
2009.691163	3537.400000
2011.398366	3490.800000
2013.103503	3503.000000
2014.808293	3533.800000
2016.514456	3455.600000
2018.216835	3480.600000
2019.920587	3549.400000
2021.622276	3495.200000
2023.323619	3470.000000
2025.024618	3500.600000
2026.723555	3504.600000
2028.423864	3512.800000
2030.120397	3485.400000
2031.818302	3507.400000
2033.514149	3522.400000
2035.213081	3500.800000
2036.906527	3496.200000
2038.601344	3494.400000
2040.295818	3501.000000
2041.986525	3533.400000
2043.680314	3520.600000
2045.370338	3505.400000
2047.061731	3510.200000
2048.751072	3518.000000
2050.441784	3485.000000
2052.128732	3468.600000
2053.815340	3508.800000
2055.503319	3431.400000
2057.187538	3425.200000
2058.873127	3414.200000
2060.558377	3382.600000
2062.241579	3414.200000
2063.926151	3447.800000
2065.605259	3370.200000
2067.289154	3380.400000
2068.967587	3380.600000
2070.649098	3394.000000
2072.326857	3376.800000
2074.004280	3400.800000
2075.683072	3405.800000
2077.359821	3398.600000
2079.034529	3406.600000
2080.710607	3406.600000
2082.384643	3318.200000
2084.058345	3391.600000
2085.731711	3373.600000
2087.403038	3409.200000
2089.074031	3340.200000
2090.744690	3334.000000
2092.415015	3369.800000
2094.085006	3412.200000
2095.752960	3375.600000
2097.420582	3373.200000
2099.086170	3341.200000
2100.753126	3368.400000
2102.418049	3413.800000
2104.082640	3371.800000
2105.745199	3374.200000
2107.409126	3371.400000
2109.071022	3341.800000
2110.732587	3365.400000
2112.393822	3398.000000
2114.053027	3378.200000
2115.711903	3373.200000
2117.370448	3359.200000
2119.028664	3319.800000
2120.683157	3341.400000
2122.340714	3370.800000
2123.997941	3435.400000
2125.651448	3441.200000
2127.306322	3362.800000
2128.957477	3373.600000
2130.611695	3413.600000
2132.262195	3349.400000
2133.914063	3350.600000
2135.560522	3361.200000
2137.211735	3311.600000
2138.859236	3387.600000
2140.508103	3433.000000
2142.154951	3384.400000
2143.801474	3398.400000
2145.447671	3392.600000
2147.090159	3308.400000
2148.735706	3358.400000
2150.377546	3319.200000
2152.022443	3351.200000
2153.663635	3328.400000
2155.304503	3286.600000
2156.945048	3359.000000
2158.583580	3326.200000
2160.223478	3323.200000
2161.859676	3301.200000
2163.497240	3253.600000
2165.134482	3280.400000
2166.769714	3371.200000
2168.404624	3294.400000
2170.039213	3318.200000
2171.673481	3294.200000
2173.304055	3319.800000
2174.937681	3299.200000
2176.567614	3290.200000
2178.198914	3257.400000
2179.828208	3259.600000
2181.457183	3251.000000
2183.085838	3224.400000
2184.714174	3216.600000
2186.340507	3232.600000
2187.966522	3221.400000
2189.590536	3290.000000
2191.215915	3263.200000
2192.839293	3201.800000
2194.464036	3227.600000
2196.085098	3247.400000
2197.705843	3210.800000
2199.327952	3205.800000
2200.948064	3193.400000
2202.566180	3270.800000
2204.183980	3201.800000
2205.801464	3153.400000
2207.418634	3139.600000
2209.035487	3213.000000
2210.652026	3186.400000
2212.266571	3220.400000
2213.879125	3208.600000
2215.493042	3210.000000
2217.104968	3229.400000
2218.718257	3236.200000
2220.329555	3164.400000
2221.938865	3096.400000
2223.549537	3189.200000
2225.158221	3268.200000
2226.766593	3184.400000
2228.372978	3162.800000
2229.980725	3162.200000
2231.586487	3186.200000
2233.191937	3216.000000
2234.795402	3200.600000
2236.400230	3217.000000
2238.003074	3235.600000
2239.603935	3209.800000
2241.206159	3154.000000
2242.806401	3223.800000
2244.408005	3172.800000
2246.005956	3200.400000
2247.605270	3206.800000
2249.202604	3166.200000
2250.799630	3210.000000
2252.398017	3188.000000
2253.992757	3170.000000
2255.585519	3192.600000
2257.179644	3177.800000
2258.775130	3160.800000
2260.366971	3177.800000
2261.958506	3153.400000
2263.551402	3182.400000
2265.138990	3135.000000
2266.731273	3155.400000
2268.318249	3148.200000
2269.908254	3152.800000
2271.492954	3121.400000
2273.082348	3152.400000
2274.666439	3124.600000
2276.251892	3102.200000
2277.835376	3105.600000
2279.421885	3099.800000
2281.004761	3095.400000
2282.587334	3062.200000
2284.169603	3132.000000
2285.748242	3152.800000
2287.329906	3081.800000
2288.907941	3068.600000
2290.488999	3051.600000
2292.066430	3047.700000
2293.641898	3043.800000
2295.220388	3120.800000
2296.795254	3063.800000
2298.369819	3034.400000
2299.944083	3041.800000
2301.518047	3099.600000
2303.091711	3048.800000
2304.665075	3068.600000
2306.234820	3024.200000
2307.804266	3067.000000
2309.376730	2968.000000
2310.943920	3060.800000
2312.514127	2993.000000
2314.080721	3046.400000
2315.648673	3044.200000
2317.214671	3041.000000
2318.780371	3018.000000
2320.345773	3069.400000
2321.909222	3069.000000
2323.474030	3103.400000
2325.035229	3088.200000
2326.599443	3068.000000
2328.158396	3129.800000
2329.720362	3072.000000
2331.280378	3006.200000
2332.840098	3051.000000
2334.397870	3034.800000
2335.955346	3063.000000
2337.512528	3032.200000
2339.067762	3019.200000
2340.622702	3069.600000
2342.177349	3067.000000
2343.731702	3017.600000
2345.285761	3016.200000
2346.839527	3037.400000
2348.391348	3063.200000
2349.941226	3056.400000
2351.494113	3070.400000
2353.041756	3023.000000
2354.592407	3033.200000
2356.139468	3071.000000
2357.687886	3011.800000
2359.236013	2988.600000
2360.780551	3071.000000
2362.326447	2995.800000
2363.870404	3002.200000
2365.415719	3032.800000
2366.957449	2998.400000
2368.500537	3022.200000
2370.041688	3020.400000
2371.582550	2967.800000
2373.123123	3074.800000
2374.663407	3022.000000
2376.203402	3019.600000
2377.739818	2994.200000
2379.279236	3032.600000
2380.815077	2989.800000
2382.352275	2982.000000
2383.885897	2990.800000
2385.422519	2962.200000
2386.957211	2955.600000
2388.489972	2922.800000
2390.022448	2986.000000
2391.552995	2996.400000
2393.086540	2991.600000
2394.614874	2934.400000
2396.144564	2995.800000
2397.673969	3022.400000
2399.203089	2949.200000
2400.731923	3015.400000
2402.255553	2989.800000
2403.783818	2998.400000
2405.306880	2942.400000
2406.834577	2976.600000
2408.355434	2968.200000
2409.880923	2956.600000
2411.402853	2992.000000
2412.926137	2963.800000
2414.447501	2968.400000
2415.966945	2957.800000
2417.487744	2979.200000
2419.006624	2968.400000
2420.525223	2948.600000
2422.041903	2949.200000
2423.559939	2901.600000
2425.077693	2967.200000
2426.591895	2973.000000
2428.105818	2952.800000
2429.619460	2949.200000
2431.134456	2917.200000
2432.645905	2949.800000
2434.158707	2943.200000
2435.669597	2972.400000
2437.180208	2878.400000
2438.688907	2879.600000
2440.200592	2930.000000
2441.708734	2893.200000
2443.216598	2904.200000
2444.724183	2880.000000
2446.228229	2889.200000
2447.735259	2936.400000
2449.240381	2911.000000
2450.745226	2915.200000
2452.248164	2920.800000
2453.750825	2847.000000
2455.253211	2873.600000
2456.753690	2871.800000
2458.255524	2843.400000
2459.755452	2846.800000
2461.255105	2867.600000
2462.754483	2818.600000
2464.251958	2850.600000
2465.747531	2840.800000
2467.246084	2834.000000
2468.741109	2822.600000
2470.237486	2833.000000
2471.730337	2815.400000
2473.224541	2806.000000
2474.718471	2774.600000
2476.208877	2831.000000
2477.702261	2843.400000
2479.193747	2809.600000
2480.683336	2827.200000
2482.172653	2773.400000
2483.660074	2765.800000
2485.150471	2821.200000
2486.637350	2787.800000
2488.125580	2807.600000
2489.610293	2803.600000
2491.094736	2792.000000
2492.580531	2776.200000
2494.064434	2753.800000
2495.549687	2778.600000
2497.029807	2809.400000
2498.512899	2817.800000
2499.994102	2745.400000
2501.475035	2812.200000
2502.954078	2812.600000
2504.432854	2796.400000
2505.911361	2792.600000
2507.389599	2791.400000
2508.867570	2803.600000
2510.342035	2758.800000
2511.819470	2767.000000
2513.293400	2815.200000
2514.768682	2846.400000
2516.243696	2818.400000
2517.715209	2816.000000
2519.188073	2771.800000
2520.659054	2772.600000
2522.131385	2747.800000
2523.598602	2834.200000
2525.068786	2808.400000
2526.537089	2771.000000
2528.005126	2808.800000
2529.472899	2809.200000
2530.940407	2782.600000
2532.407651	2703.200000
2533.871402	2779.400000
2535.336503	2830.400000
2536.799727	2753.200000
2538.264300	2772.000000
2539.725385	2776.200000
2541.187819	2784.800000
2542.649990	2791.600000
2544.108674	2828.800000
2545.571931	2747.000000
2547.030091	2758.000000
2548.489601	2824.400000
2549.944016	2765.200000
2551.403002	2767.200000
2552.860116	2805.800000
2554.315358	2831.600000
2555.770340	2804.800000
2557.223452	2737.600000
2558.677913	2753.200000
2560.130505	2763.200000
2561.582837	2760.800000
2563.033301	2740.200000
2564.486722	2742.000000
2565.935060	2733.600000
2567.386353	2771.800000
2568.835780	2737.800000
2570.281736	2770.200000
2571.730646	2752.800000
2573.176085	2750.800000
2574.622873	2677.400000
2576.067797	2733.800000
2577.512464	2712.400000
2578.958478	2751.600000
2580.401025	2752.200000
2581.844920	2692.600000
2583.285350	2695.000000
2584.727128	2671.000000
2586.167046	2690.200000
2587.608311	2686.000000
2589.046114	2710.800000
2590.486867	2722.000000
2591.922558	2680.600000
2593.361197	2756.400000
2594.797980	2723.600000
2596.232907	2718.800000
2597.670781	2682.200000
2599.103598	2671.600000
2600.537762	2682.800000
2601.970071	2699.800000
2603.403728	2620.400000
2604.835530	2701.400000
2606.267080	2649.000000
2607.698376	2651.000000
2609.127821	2680.600000
2610.557013	2702.600000
2611.984354	2633.800000
2613.413042	2667.000000
2614.841477	2639.200000
2616.266466	2650.800000
2617.692800	2668.200000
2619.117287	2663.800000
2620.543118	2629.200000
2621.965507	2640.600000
2623.389240	2630.800000
2624.811128	2650.000000
2626.232765	2616.200000
2627.652558	2595.800000
2629.073696	2616.000000
2630.494584	2641.600000
2631.912033	2611.800000
2633.332422	2618.000000
2634.749374	2599.400000
2636.166078	2593.800000
2637.582533	2535.000000
2638.998740	2615.000000
2640.414699	2586.600000
2641.828817	2574.800000
2643.242687	2652.600000
2644.654718	2556.000000
2646.068094	2616.000000
2647.478040	2575.400000
2648.890922	2594.600000
2650.300375	2595.000000
2651.709582	2606.200000
2653.116953	2590.000000
2654.527258	2568.000000
2655.935727	2592.400000
2657.342362	2637.400000
2658.748750	2568.200000
2660.153306	2594.200000
2661.559205	2629.000000
2662.963270	2519.800000
2664.367092	2639.200000
2665.770669	2569.600000
2667.172415	2592.000000
2668.575504	2556.400000
2669.975175	2579.200000
2671.376190	2589.800000
2672.773789	2633.400000
2674.174317	2607.400000
2675.571431	2570.200000
2676.969888	2539.800000
2678.366517	2554.000000
2679.762905	2559.600000
2681.159050	2581.800000
2682.553369	2562.200000
2683.949031	2597.400000
2685.341284	2526.800000
2686.734879	2568.200000
2688.126650	2534.800000
2689.519764	2547.000000
2690.911053	2583.600000
2692.300521	2535.600000
2693.689748	2505.800000
2695.078735	2515.400000
2696.469065	2534.800000
2697.854411	2501.800000
2699.242680	2479.800000
2700.629129	2523.200000
2702.015339	2552.000000
2703.401310	2494.600000
2704.783883	2514.000000
2706.167798	2485.600000
2707.551474	2477.400000
2708.934913	2470.200000
2710.314956	2519.600000
2711.696341	2528.400000
2713.075910	2480.000000
2714.456821	2499.400000
2715.835917	2507.200000
2717.213199	2466.800000
2718.591822	2449.200000
2719.968631	2461.400000
2721.345205	2462.400000
2722.721543	2479.600000
2724.096069	2430.200000
2725.471936	2531.800000
2726.844416	2487.400000
2728.219813	2480.800000
2729.590249	2475.400000
2730.962025	2474.800000
2732.333568	2398.800000
2733.703302	2496.800000
2735.074376	2425.000000
2736.443643	2469.200000
2737.812676	2436.200000
2739.179903	2495.800000
2740.546896	2454.600000
2741.913657	2432.200000
2743.280185	2438.800000
2744.644909	2481.400000
2746.009400	2416.600000
2747.373659	2450.400000
2748.737687	2479.600000
2750.101482	2425.400000
2751.461905	2458.200000
2752.825237	2459.600000
2754.183627	2413.400000
2755.544927	2495.000000
2756.902857	2418.400000
2758.263695	2453.400000
2759.622733	2382.600000
2760.978403	2400.200000
2762.336982	2390.200000
2763.692193	2427.000000
2765.047175	2409.200000
2766.400360	2387.200000
2767.756452	2397.600000
2769.109180	2424.000000
2770.461679	2402.400000
2771.813951	2406.400000
2773.167560	2390.000000
2774.517808	2379.600000
2775.866263	2368.600000
2777.217622	2342.400000
2778.565622	2408.400000
2779.914961	2378.400000
2781.262507	2347.600000
2782.609827	2308.400000
2783.956919	2364.600000
2785.302221	2322.400000
2786.647297	2329.000000
2787.992147	2316.800000
2789.336771	2305.400000
2790.678043	2339.000000
2792.020652	2279.400000
2793.363037	2376.000000
2794.705196	2282.000000
2796.044006	2320.600000
2797.385716	2317.200000
2798.724077	2316.800000
2800.063776	2378.600000
2801.401689	2301.200000
2802.737818	2284.200000
2804.073724	2308.000000
2805.410967	2282.000000
2806.746425	2350.400000
2808.081661	2284.200000
2809.415115	2320.200000
2810.749905	2305.000000
2812.081354	2314.400000
2813.415699	2342.800000
2814.745146	2298.400000
2816.075930	2351.600000
2817.406492	2285.800000
2818.735275	2295.200000
2820.065395	2266.000000
2821.393736	2311.600000
2822.721855	2311.000000
2824.048198	2295.600000
2825.375876	2293.600000
2826.700222	2294.200000
2828.025904	2324.400000
2829.349810	2289.000000
2830.673496	2264.400000
2831.998518	2275.200000
2833.320211	2239.000000
2834.641685	2224.200000
2835.962939	2291.800000
2837.283975	2237.600000
2838.603239	2263.000000
2839.923838	2243.600000
2841.242665	2253.400000
2842.561274	2246.800000
2843.878113	2236.200000
2845.194734	2261.400000
2846.511138	2249.800000
2847.825772	2235.800000
2849.141741	2239.600000
2850.454391	2218.400000
2851.768375	2201.400000
2853.082143	2251.800000
2854.395694	2234.800000
2855.707479	2199.800000
2857.017497	2244.000000
2858.328850	2176.000000
2859.636888	2218.200000
2860.946260	2200.200000
2862.255417	2237.600000
2863.564359	2251.200000
2864.871538	2235.800000
2866.176953	2222.000000
2867.483703	2260.800000
2868.788691	2192.800000
2870.093464	2228.200000
2871.396477	2218.800000
2872.702370	2191.000000
2874.003409	2264.200000
2875.305781	2213.000000
2876.606395	2207.800000
2877.908341	2271.800000
2879.210075	2188.400000
2880.508505	2268.000000
2881.808268	2232.400000
2883.106274	2162.800000
2884.404068	2244.200000
2885.700105	2229.400000
2886.997476	2196.200000
2888.293092	2188.000000
2889.588496	2214.000000
2890.883689	2218.000000
2892.175585	2200.400000
2893.470356	2176.800000
2894.761832	2205.400000
2896.054640	2206.400000
2897.347238	2241.600000
2898.636541	2148.200000
2899.927178	2171.000000
2901.216063	2199.000000
2902.506280	2181.800000
2903.793206	2175.800000
2905.081464	2149.800000
2906.367973	2228.800000
2907.654273	2184.000000
2908.940365	2189.800000
2910.224709	2126.800000
2911.511925	2185.600000
2912.794314	2205.200000
2914.078035	2155.000000
2915.360009	2119.200000
2916.641777	2137.400000
2917.921799	2192.400000
2919.204691	2192.200000
2920.485838	2136.600000
2921.763703	2161.200000
2923.044437	2146.800000
2924.321890	2102.400000
2925.599138	2177.400000
2926.874643	2128.800000
2928.153016	2161.200000
2929.426575	2113.400000
2930.703001	2114.200000
2931.977685	2112.400000
2933.250630	2069.400000
2934.524906	2138.200000
2935.797441	2096.000000
2937.069773	2102.800000
2938.338832	2092.200000
2939.610756	2094.000000
2940.880942	2070.800000
2942.150924	2143.000000
2943.420703	2089.000000
2944.688746	2087.000000
2945.955052	2055.600000
2947.221156	2096.600000
2948.488591	2065.800000
2949.754290	2083.600000
2951.019788	2046.000000
2952.285083	2128.200000
2953.547113	2112.400000
2954.810473	2077.600000
2956.073632	2039.400000
2957.335058	2108.000000
2958.597815	2034.800000
2959.858839	2067.600000
2961.118133	2037.400000
2962.377226	2096.000000
2963.636120	2128.200000
2964.894812	2104.600000
2966.153305	2037.000000
2967.410069	2056.000000
2968.666634	2101.800000
2969.921470	2059.600000
2971.177636	2057.600000
2972.430547	2068.600000
2973.684786	2026.400000
2974.938827	2088.000000
2976.191142	2014.600000
2977.443259	2071.600000
2978.693651	2067.200000
2979.946898	2044.400000
2981.195368	2077.800000
2982.446693	2067.200000
2983.694768	2031.400000
2984.942646	2080.000000
2986.190328	2035.400000
2987.437812	2049.800000
2988.683575	2013.200000
2989.929141	2039.200000
2991.176036	2100.800000
2992.419686	2052.000000
2993.664663	2032.400000
2994.906398	2049.000000
2996.150984	2031.000000
2997.393851	1976.200000
2998.633477	1945.800000
2999.875953	2034.800000
3001.115189	1982.600000
3002.355753	2034.000000
3003.594600	1972.200000
3004.833253	2070.000000
3006.070190	1999.800000
3007.308455	1985.800000
3008.545004	1988.000000
3009.781360	1991.200000
3011.017522	2050.000000
3012.251970	2031.400000
3013.486225	2046.000000
3014.720287	1976.800000
3015.952637	1972.200000
3017.183275	2035.000000
3018.416759	2026.400000
3019.648532	1991.200000
3020.878593	2043.800000
3022.108463	1973.400000
3023.336623	2005.200000
3024.566110	2007.000000
3025.793887	1972.600000
3027.021473	2026.600000
3028.250385	2019.800000
3029.474555	1949.800000
3030.701568	2018.000000
3031.925358	1971.000000
3033.150473	1978.800000
3034.373883	2006.800000
3035.597102	2003.000000
3036.818616	1998.200000
3038.042971	1940.400000
3039.262591	2024.600000
3040.483537	2004.600000
3041.704293	1965.200000
3042.923347	1976.200000
3044.143725	1988.200000
3045.360887	1931.400000
3046.579374	1968.600000
3047.796160	1987.800000
3049.012757	1943.400000
3050.229167	1957.000000
3051.442363	1931.200000
3052.658397	1976.600000
3053.871219	1941.000000
3055.086878	1979.400000
3056.297814	1924.000000
3057.510076	1952.000000
3058.722150	1936.800000
3059.934038	1902.800000
3061.144229	1939.600000
3062.354233	1961.000000
3063.564051	1977.000000
3064.772173	1958.600000
3065.980110	1932.400000
3067.186351	1925.000000
3068.393917	1926.000000
3069.599788	1907.800000
3070.805474	1889.600000
3072.010976	1907.600000
3073.214784	1949.200000
3074.419916	1917.800000
3075.623355	1970.400000
3076.825102	1944.600000
3078.026666	1932.200000
3079.228046	1969.800000
3080.429242	1831.600000
3081.628748	1901.600000
3082.828071	1937.800000
3084.028717	1911.600000
3085.227673	1888.600000
3086.423434	1881.000000
3087.622025	1876.000000
3088.817422	1848.400000
3090.014143	1898.200000
3091.207671	1882.000000
3092.404027	1901.400000
3093.598696	1908.200000
3094.790175	1835.400000
3095.985986	1845.200000
3097.177102	1869.800000
3098.369542	1833.800000
3099.558793	1907.800000
3100.750871	1843.600000
3101.941265	1884.400000
3103.128473	1872.000000
3104.317003	1877.600000
3105.506856	1866.800000
3106.693524	1901.400000
3107.880013	1860.800000
3109.066323	1893.200000
3110.253954	1857.000000
3111.438403	1845.000000
3112.621173	1829.800000
3113.806765	1862.400000
3114.990678	1820.800000
3116.172911	1855.600000
3117.354967	1868.200000
3118.536844	1819.400000
3119.718543	1849.000000
3120.898565	1823.000000
3122.076910	1857.600000
3123.258075	1838.000000
3124.436065	1863.400000
3125.613878	1845.000000
3126.791514	1833.200000
3127.967475	1836.600000
3129.143260	1804.800000
3130.320365	1838.000000
3131.495797	1817.000000
3132.669555	1785.400000
3133.841640	1844.600000
3135.015046	1835.600000
3136.188277	1856.200000
3137.359836	1841.000000
3138.532715	1830.400000
3139.702427	1819.800000
3140.873460	1837.600000
3142.042822	1868.600000
3143.210515	1833.200000
3144.381023	1798.200000
3145.546872	1869.600000
3146.717031	1846.400000
3147.882532	1834.000000
3149.047860	1817.400000
3150.213014	1819.400000
3151.377995	1845.000000
3152.544295	1792.600000
3153.705942	1844.400000
3154.868910	1777.600000
3156.031705	1802.000000
3157.194326	1772.200000
3158.355283	1743.800000
3159.516068	1768.800000
3160.676680	1754.600000
3161.835628	1777.000000
3162.994405	1768.400000
3164.153009	1721.800000
3165.311442	1730.800000
3166.469703	1762.800000
3167.626303	1792.600000
3168.781241	1758.400000
3169.937498	1761.000000
3171.092094	1770.000000
3172.246520	1764.000000
3173.399285	1753.600000
3174.551881	1768.200000
3175.704307	1766.800000
3176.856562	1742.600000
3178.008648	1734.200000
3179.157587	1759.000000
3180.309333	1768.400000
3181.459422	1730.200000
3182.607853	1737.600000
3183.756116	1729.800000
3184.904210	1690.200000
3186.052135	1761.600000
3187.198404	1742.200000
3188.344505	1694.800000
3189.488952	1740.600000
3190.633230	1783.000000
3191.777341	1761.800000
3192.922770	1766.400000
3194.065060	1741.400000
3195.207182	1731.400000
3196.349138	1773.600000
3197.490926	1742.800000
3198.632547	1753.200000
3199.771033	1752.200000
3200.910836	1724.600000
3202.051956	1753.400000
3203.189943	1741.000000
3204.326279	1738.200000
3205.462451	1706.800000
3206.599939	1697.600000
3207.735779	1640.400000
3208.872936	1719.000000
3210.005480	1749.800000
3211.142305	1752.000000
3212.274520	1672.600000
3213.408051	1741.800000
3214.541417	1696.000000
3215.671657	1699.200000
3216.804694	1686.800000
3217.934605	1673.400000
3219.065832	1656.200000
3220.193934	1675.600000
3221.324834	1708.200000
3222.454089	1684.600000
3223.581701	1702.000000
3224.706190	1663.000000
3225.834955	1687.200000
3226.960598	1659.000000
3228.086078	1631.000000
3229.209917	1688.000000
3230.336551	1703.200000
3231.458587	1663.400000
3232.581939	1664.400000
3233.705128	1656.200000
3234.828156	1670.000000
3235.949544	1624.000000
3237.070771	1647.000000
3238.190359	1654.000000
3239.309786	1648.200000
3240.427576	1679.800000
3241.548157	1658.800000
3242.665625	1669.400000
3243.782932	1709.200000
3244.900079	1684.400000
3246.015589	1636.600000
3247.132415	1687.200000
3248.246130	1657.000000
3249.362636	1736.400000
3250.477506	1638.000000
3251.589268	1701.800000
3252.700871	1693.800000
3253.813789	1678.800000
3254.926547	1652.800000
3256.036199	1653.200000
3257.147166	1672.200000
3258.257974	1661.000000
3259.367150	1670.800000
3260.474695	1655.600000
3261.583555	1618.200000
3262.692256	1657.200000
3263.797855	1641.600000
3264.904769	1692.400000
3266.010053	1651.000000
3267.116651	1673.200000
3268.220149	1678.000000
3269.324961	1648.400000
3270.429616	1657.800000
3271.531173	1673.200000
3272.632573	1633.200000
3273.735287	1672.600000
3274.837845	1602.200000
3275.937306	1659.600000
3277.039551	1679.600000
3278.138700	1664.400000
3279.236224	1628.000000
3280.333594	1650.200000
3281.433745	1634.800000
3282.530804	1639.000000
3283.627707	1663.800000
3284.724455	1638.600000
3285.816644	1590.200000
3286.913083	1638.400000
3288.007899	1633.800000
3289.102560	1663.000000
3290.195600	1599.600000
3291.288486	1644.400000
3292.379751	1598.200000
3293.472329	1599.800000
3294.563287	1659.200000
3295.652625	1613.200000
3296.741810	1611.000000
3297.832307	1600.400000
3298.919721	1641.200000
3300.006981	1586.800000
3301.095554	1644.000000
3302.183974	1613.800000
3303.267848	1585.400000
3304.355963	1644.600000
3305.440996	1598.200000
3306.524414	1587.000000
3307.609144	1590.200000
3308.692258	1630.600000
3309.776684	1635.800000
3310.858033	1613.000000
3311.940693	1604.600000
3313.021738	1612.800000
3314.102633	1628.600000
3315.181915	1629.400000
3316.261046	1627.000000
3317.341489	1599.400000
3318.418857	1607.400000
3319.497537	1638.200000
3320.574605	1596.600000
3321.651523	1636.400000
3322.726831	1582.200000
3323.801989	1631.400000
3324.878458	1610.200000
3325.951857	1591.400000
3327.025106	1589.200000
3328.099667	1575.400000
3329.172619	1597.400000
3330.243962	1607.200000
3331.316616	1591.000000
3332.386203	1577.600000
3333.457101	1528.200000
3334.526393	1592.800000
3335.596994	1547.400000
3336.665989	1625.400000
3337.733379	1538.600000
3338.799163	1554.000000
3339.869173	1572.000000
3340.936120	1552.000000
3342.000005	1553.000000
3343.066657	1573.200000
3344.131706	1553.400000
3345.195151	1543.000000
3346.258450	1525.800000
3347.321602	1562.800000
3348.384608	1551.200000
3349.447468	1573.200000
3350.508725	1560.400000
3351.566926	1546.800000
3352.629348	1556.200000
3353.688714	1559.600000
3354.747934	1539.400000
3355.808463	1579.400000
3356.864484	1550.000000
3357.923268	1571.800000
3358.977545	1536.800000
3360.034586	1575.200000
3361.090028	1576.400000
3362.146780	1576.600000
3363.201933	1518.800000
3364.255489	1548.600000
3365.307448	1556.400000
3366.362170	1569.600000
3367.413842	1519.200000
3368.465370	1568.800000
3369.518208	1532.000000
3370.567998	1559.400000
3371.619097	1542.000000
3372.667149	1561.400000
3373.717962	1549.800000
3374.765729	1547.200000
3375.813354	1502.400000
3376.860837	1524.800000
3377.906727	1532.000000
3378.953925	1610.800000
3379.998080	1522.600000
3381.044995	1540.400000
3382.090317	1484.400000
3383.132598	1550.800000
3384.174738	1498.400000
3385.218187	1495.800000
3386.261494	1531.800000
3387.303211	1537.800000
3388.344788	1517.200000
3389.386223	1515.200000
3390.426070	1526.800000
3391.464328	1566.800000
3392.503894	1511.000000
3393.543320	1536.600000
3394.581158	1487.400000
3395.617409	1567.400000
3396.653520	1536.200000
3397.690939	1498.400000
3398.725325	1468.400000
3399.761019	1464.200000
3400.796573	1523.400000
3401.829095	1504.400000
3402.864371	1543.200000
3403.896617	1512.800000
3404.928723	1506.600000
3405.959247	1521.400000
3406.991077	1535.400000
3408.022769	1517.800000
3409.051433	1478.800000
3410.079960	1517.800000
3411.109793	1482.800000
3412.139489	1490.200000
3413.166159	1498.800000
3414.194135	1533.600000
3415.219087	1530.400000
3416.246790	1486.600000
3417.271468	1505.200000
3418.297453	1516.400000
3419.321859	1503.400000
3420.346128	1518.600000
3421.368818	1497.600000
3422.391372	1499.600000
3423.415232	1492.800000
3424.436072	1453.200000
3425.456776	1460.400000
3426.478786	1473.000000
3427.497778	1457.200000
3428.516635	1477.800000
3429.536798	1459.200000
3430.553944	1489.200000
