-118.304647	1.110000
-115.635047	0.280000
-112.968382	-2.360000
-110.302469	-4.320000
-107.639489	2.090000
-104.975078	2.130000
-102.313598	-1.500000
-99.650689	2.100000
-96.992886	-0.280000
-94.333654	0.920000
-91.675170	0.660000
-89.019611	-1.750000
-86.362622	-1.680000
-83.710732	1.600000
-81.057412	1.930000
-78.407011	-1.960000
-75.755182	1.900000
-73.108442	3.960000
-70.460274	4.570000
-67.812848	5.130000
-65.168337	1.450000
-62.522396	-4.510000
-59.881537	2.920000
-57.239249	4.750000
-54.599870	5.910000
-51.959061	1.030000
-49.318993	6.600000
-46.683998	6.290000
-44.047573	1.190000
-41.414051	3.710000
-38.779101	12.220000
-36.149216	6.040000
-33.515739	14.230000
-30.887324	7.530000
-28.259643	10.210000
-25.630533	12.700000
-23.006480	18.470000
-20.378838	15.840000
-17.756249	33.810000
-15.134392	40.390000
-12.513265	64.560000
-9.892869	162.730000
-7.275360	571.180000
-4.656423	2064.160000
-2.040371	6522.060000
0.574952	11910.860000
3.189547	7190.950000
5.801261	876.030000
8.414403	96.300000
11.022511	48.020000
13.634201	34.990000
16.240860	26.330000
18.848947	22.020000
21.456310	17.610000
24.058648	20.650000
26.664564	7.370000
29.265458	9.400000
31.867780	6.190000
34.465085	5.170000
37.065965	10.130000
39.661830	5.720000
42.259124	5.980000
44.855698	6.810000
47.447263	5.560000
50.040256	5.320000
52.630388	-1.180000
55.221947	-0.700000
57.810648	-1.940000
60.400775	7.460000
62.985903	3.630000
65.572459	6.330000
68.158301	2.010000
70.741289	2.930000
73.325703	1.610000
75.902989	0.290000
78.483841	-4.820000
81.061844	6.450000
83.639137	-1.270000
86.217856	-3.100000
88.791593	-0.660000
91.366758	-1.870000
93.939079	0.630000
96.510692	7.080000
99.079465	1.770000
101.649665	1.310000
104.217026	1.840000
106.785814	0.810000
109.351765	-0.470000
111.914881	0.650000
114.481553	2.180000
117.039004	5.810000
119.602140	0.530000
122.160316	10.160000
124.722047	12.750000
127.278821	13.810000
129.837021	17.820000
132.390269	27.270000
134.942819	39.390000
137.498919	56.970000
140.050071	74.440000
142.600526	90.290000
145.150283	93.590000
147.697221	100.650000
150.243464	99.730000
152.791132	106.950000
155.338104	109.860000
157.880141	102.970000
160.421484	102.220000
162.962134	108.110000
165.504210	100.300000
168.043474	99.340000
170.579930	100.090000
173.115694	103.630000
175.652884	104.540000
178.189383	100.870000
180.723076	97.800000
183.253965	99.350000
185.784166	102.080000
188.315793	103.930000
190.844618	89.480000
193.370644	98.460000
195.895984	94.870000
198.422749	103.070000
200.946718	100.460000
203.470002	103.380000
205.992601	97.620000
208.512407	97.290000
211.031529	95.910000
213.549970	98.370000
216.069834	94.170000
218.582697	99.340000
221.099091	99.910000
223.614803	102.250000
226.125625	99.040000
228.637872	101.840000
231.147337	99.360000
233.656122	103.450000
236.164230	102.410000
238.673762	107.720000
241.178413	102.690000
243.682388	107.040000
246.187787	107.050000
248.688311	102.030000
251.192358	109.260000
253.689435	109.080000
256.190035	104.900000
258.687863	108.920000
261.185018	105.750000
263.681500	104.980000
266.173119	109.950000
268.668258	110.340000
271.160630	110.780000
273.652332	112.360000
276.141271	114.720000
278.631633	114.130000
281.119234	111.020000
283.604075	120.700000
286.092431	112.110000
288.573847	113.520000
291.058777	119.370000
293.538862	121.750000
296.022459	112.360000
298.501213	118.760000
300.981390	120.430000
303.458816	121.490000
305.935578	117.380000
308.411676	121.700000
310.885027	125.950000
313.357715	134.290000
315.829742	139.730000
318.301108	156.770000
320.769729	164.570000
323.237692	161.500000
325.707076	149.960000
328.171638	142.380000
330.639704	129.400000
333.102950	130.820000
335.565538	129.040000
338.027470	126.870000
340.488745	124.620000
342.947286	132.470000
345.407249	128.790000
347.864479	128.430000
350.321055	131.460000
352.776977	127.840000
355.230169	121.280000
357.684784	127.020000
360.134597	128.840000
362.587906	131.580000
365.036416	133.340000
367.484276	128.760000
369.933558	125.550000
372.378046	132.990000
374.823956	126.360000
377.269216	126.000000
379.711758	122.750000
382.153652	130.560000
384.594899	122.100000
387.033430	122.690000
389.473382	127.500000
391.910622	129.020000
394.345149	124.820000
396.783164	130.000000
399.216402	127.820000
401.651061	128.900000
404.080948	126.750000
406.514320	125.660000
408.942922	133.770000
411.370882	127.790000
413.800264	132.580000
416.224880	127.970000
418.650918	126.360000
421.076315	128.270000
423.501072	126.090000
425.921071	128.980000
428.342490	128.820000
430.761214	134.180000
433.181358	133.520000
435.598807	131.370000
438.017676	132.280000
440.433852	132.550000
442.845280	130.900000
445.260185	133.270000
447.672401	133.210000
450.083982	129.390000
452.494929	130.880000
454.903190	131.050000
457.310818	127.150000
459.717814	131.850000
462.124179	129.810000
464.527861	124.870000
466.930913	122.700000
469.333335	123.310000
471.735127	118.590000
474.134241	124.080000
476.534775	119.760000
478.934680	121.690000
481.329863	118.190000
483.728512	127.440000
486.122440	121.440000
488.515743	127.260000
490.908421	120.140000
493.300473	117.020000
495.693943	108.030000
498.082701	106.360000
500.468793	103.960000
502.856305	96.580000
505.243194	95.550000
507.627419	89.150000
510.013062	93.520000
512.396044	84.860000
514.776365	86.980000
517.158105	80.350000
519.537186	73.690000
521.917686	76.590000
524.295528	67.620000
526.670714	72.490000
529.045284	76.090000
531.421271	72.050000
533.794606	64.330000
536.169358	68.950000
538.539425	63.870000
540.908876	79.440000
543.279745	67.760000
545.645933	64.190000
548.013540	69.230000
550.378502	61.130000
552.742850	67.600000
555.106585	66.200000
557.471738	58.850000
559.832219	57.440000
562.194118	60.200000
564.553376	65.280000
566.909996	60.050000
569.270062	60.260000
571.623436	60.330000
573.980255	58.560000
576.334439	52.430000
578.688014	58.650000
581.040982	58.240000
583.391317	51.800000
585.743070	59.940000
588.088146	53.910000
590.438685	58.540000
592.782552	61.800000
595.131880	59.590000
597.476559	62.530000
599.818614	58.190000
602.162086	60.280000
604.502935	58.530000
606.843181	57.000000
609.180808	51.840000
611.521869	52.510000
613.858292	52.940000
616.196132	54.760000
618.531355	48.850000
620.863962	54.190000
623.197985	52.690000
625.529394	53.980000
627.860205	48.230000
630.190419	53.690000
632.520034	52.080000
634.845026	53.240000
637.175460	51.130000
639.501273	49.440000
641.824478	45.760000
644.149100	49.730000
646.471116	54.600000
648.792538	48.220000
651.111358	48.130000
653.431593	51.200000
655.751235	46.500000
658.068276	46.280000
660.384725	41.560000
662.698576	46.430000
665.013843	48.360000
667.326513	48.890000
669.640598	46.160000
671.950083	50.040000
674.260984	45.210000
676.569292	44.380000
678.877012	42.220000
681.186146	47.450000
683.490688	38.160000
685.794644	49.920000
688.098014	39.400000
690.402798	39.010000
692.702995	40.580000
695.004608	38.910000
697.305635	41.460000
699.602081	44.870000
701.899942	38.320000
704.197219	38.650000
706.493913	38.760000
708.786031	39.040000
711.081560	38.800000
713.372515	41.900000
715.664885	32.740000
717.954680	41.100000
720.243894	42.430000
722.532529	41.750000
724.818591	44.540000
727.106068	40.990000
729.390973	39.560000
731.675301	47.950000
733.957060	36.400000
736.240233	46.390000
738.522829	42.910000
740.800869	38.720000
743.080324	44.660000
745.359202	44.280000
747.637506	42.830000
749.911260	41.400000
752.186427	38.990000
754.461021	48.700000
756.733056	48.310000
759.006504	44.650000
761.277394	45.430000
763.545728	45.730000
765.815475	43.840000
768.082667	51.650000
770.349290	44.470000
772.615342	46.760000
774.878843	49.560000
777.143757	50.490000
779.408101	46.370000
781.667916	53.480000
783.929143	51.830000
786.189803	54.640000
788.447917	49.280000
790.703486	52.470000
792.962446	51.030000
795.214906	48.220000
797.472734	46.170000
799.726043	53.010000
801.976812	46.270000
804.228993	46.460000
806.478635	50.210000
808.729690	44.010000
810.976233	46.290000
813.224188	44.250000
815.469609	44.150000
817.716441	42.290000
819.962712	46.900000
822.204478	45.730000
824.449628	41.010000
826.688305	46.070000
828.930364	42.990000
831.167925	48.790000
833.406898	41.340000
835.643344	42.160000
837.881201	38.600000
840.116533	35.710000
842.349342	37.070000
844.583562	43.850000
846.815259	37.760000
849.046402	39.390000
851.276990	35.250000
853.507024	39.060000
855.736504	33.120000
857.961502	37.190000
860.189875	37.110000
862.413768	39.330000
864.639073	38.400000
866.859902	39.710000
869.084103	40.990000
871.303831	40.550000
873.524969	34.820000
875.745557	40.360000
877.963636	38.160000
880.183124	41.930000
882.398146	40.410000
884.612620	44.460000
886.826547	41.090000
889.039927	37.100000
891.252759	35.630000
893.465045	42.820000
895.674828	37.470000
897.884066	43.430000
900.092759	41.500000
902.298952	38.190000
904.506556	38.630000
906.711661	41.930000
908.916223	37.610000
911.118290	36.980000
913.321766	35.970000
915.522748	35.430000
917.723188	35.740000
919.925037	40.920000
922.120495	38.450000
924.319312	41.700000
926.513690	37.910000
928.711426	40.020000
930.904726	37.550000
933.099435	40.870000
935.291658	37.440000
937.483342	40.980000
939.674489	34.270000
941.863153	43.080000
944.051281	44.450000
946.236928	39.290000
948.425927	38.300000
950.610503	41.050000
952.794544	38.680000
954.981935	45.000000
957.161022	45.480000
959.343460	48.100000
961.525364	49.940000
963.704793	45.070000
965.881750	44.720000
968.060115	47.760000
970.239887	51.000000
972.413310	54.130000
974.590079	44.490000
976.762441	59.920000
978.936211	51.210000
981.105577	52.350000
983.278287	58.440000
985.448532	57.040000
987.618247	54.580000
989.787435	55.690000
991.952225	48.710000
994.120356	60.250000
996.284092	60.000000
998.449236	62.990000
1000.611920	53.250000
1002.774079	60.670000
1004.933781	60.290000
1007.092958	63.550000
1009.253542	60.220000
1011.411671	64.580000
1013.569277	59.540000
1015.726359	67.310000
1017.882917	65.550000
1020.035096	64.900000
1022.188682	63.230000
1024.341746	72.230000
1026.492361	69.120000
1028.644383	67.410000
1030.792031	66.480000
1032.943011	64.740000
1035.089620	68.730000
1037.235710	70.680000
1039.381282	66.110000
1041.528259	75.120000
1043.668947	65.410000
1045.812965	72.230000
1047.954542	74.220000
1050.095603	75.220000
1052.238068	70.160000
1054.374253	81.890000
1056.513765	74.450000
1058.648922	71.340000
1060.787403	69.430000
1062.921530	77.780000
1065.055144	67.190000
1067.190162	75.970000
1069.320832	69.000000
1071.452906	72.590000
1073.582551	69.460000
1075.711684	71.090000
1077.840305	64.970000
1079.968415	71.710000
1082.094099	62.460000
1084.219273	67.610000
1086.345851	62.730000
1088.468091	62.120000
1090.591736	61.730000
1092.711046	65.130000
1094.835585	59.140000
1096.953880	57.320000
1099.073579	59.430000
1101.190859	57.320000
1103.307632	56.590000
1105.423900	54.790000
1107.537751	54.960000
1109.653007	51.740000
1111.763939	55.130000
1113.878184	57.170000
1115.988108	50.720000
1118.099436	47.550000
1120.210259	51.550000
1122.316766	52.920000
1124.426582	57.560000
1126.532085	50.300000
1128.638990	53.050000
1130.739680	53.570000
1132.845582	50.640000
1134.947175	48.570000
1137.050171	48.700000
1139.152666	49.810000
1141.248954	49.640000
1143.350449	50.240000
1145.447642	52.160000
1147.544337	47.230000
1149.640533	46.930000
1151.736231	47.290000
1153.831432	52.360000
1155.924236	50.500000
1158.018442	46.400000
1160.106457	45.960000
1162.199671	43.540000
1164.286696	44.710000
1166.377020	44.160000
1168.463056	44.810000
1170.552391	44.070000
1172.635544	42.580000
1174.720099	43.770000
1176.806056	48.120000
1178.887731	42.420000
1180.970807	43.190000
1183.051498	40.390000
1185.131698	49.180000
1187.211406	43.510000
1189.290623	43.950000
1191.367458	42.030000
1193.441911	48.540000
1195.519657	46.310000
1197.593133	44.960000
1199.668009	40.130000
1201.738618	43.620000
1203.810628	44.050000
1205.880263	37.230000
1207.951297	40.460000
1210.021845	40.300000
1212.088131	42.580000
1214.155818	41.800000
1216.221133	39.100000
1218.287848	42.870000
1220.350307	40.040000
1222.416051	42.560000
1224.477541	38.020000
1226.540432	36.390000
1228.600955	39.190000
1230.660994	40.290000
1232.720550	35.820000
1234.777742	37.770000
1236.834452	41.130000
1238.888798	40.140000
1240.946426	32.960000
1243.001691	40.080000
1245.052715	35.290000
1247.105139	38.900000
1249.157083	32.970000
1251.206669	39.390000
1253.255776	35.220000
1255.304404	37.360000
1257.352554	32.970000
1259.400226	34.830000
1261.443667	39.900000
1263.490384	35.780000
1265.534747	32.420000
1267.578634	33.290000
1269.620169	35.070000
1271.659355	39.200000
1273.701814	34.570000
1275.740050	36.660000
1277.779685	35.250000
1279.818845	31.130000
1281.853786	32.920000
1283.890126	33.350000
1285.924122	31.370000
1287.959515	33.280000
1289.990696	35.330000
1292.023274	37.310000
1294.055381	25.690000
1296.085147	31.110000
1298.116310	31.680000
1300.143267	39.820000
1302.171621	34.220000
1304.195770	31.420000
1306.223185	42.180000
1308.246397	33.620000
1310.271007	29.010000
1312.293283	31.040000
1314.316956	28.510000
1316.338295	31.790000
1318.359168	34.720000
1320.379573	37.420000
1322.395785	30.790000
1324.413394	35.570000
1326.428675	30.820000
1328.447215	34.530000
1330.461566	32.720000
1332.473590	40.090000
1334.488873	29.320000
1336.499970	29.450000
1338.512464	36.550000
1340.520775	39.290000
1342.532341	30.330000
1344.537869	32.720000
1346.546652	32.850000
1348.551257	39.070000
1350.559116	30.200000
1352.566513	35.570000
1354.567879	32.250000
1356.570641	41.090000
1358.572944	28.390000
1360.574787	30.130000
1362.576170	31.880000
1364.575240	31.800000
1366.573851	28.100000
1368.572003	36.760000
1370.569698	35.200000
1372.563230	36.530000
1374.558157	36.330000
1376.552628	28.320000
1378.546642	31.250000
1380.538349	33.480000
1382.529600	33.500000
1384.518546	31.340000
1386.508888	29.280000
1388.498774	31.280000
1390.486356	29.660000
1392.473485	33.290000
1394.458312	29.560000
1396.444534	34.870000
1398.428455	28.340000
1400.411924	34.480000
1402.394941	29.060000
1404.375660	32.810000
1406.357773	33.670000
1408.337590	29.780000
1410.316955	29.930000
1412.292182	28.830000
1414.270647	32.140000
1416.246819	32.200000
1418.222541	33.910000
1420.197815	33.470000
1422.170797	34.840000
1424.143331	33.660000
1426.115417	32.400000
1428.087056	31.800000
1430.054566	35.080000
1432.027150	34.530000
1433.991928	31.860000
1435.961779	36.360000
1437.927506	32.780000
1439.894625	31.300000
1441.859461	36.330000
1443.820177	37.290000
1445.785961	30.010000
1447.745790	32.300000
1449.707013	37.810000
1451.669627	34.850000
1453.628127	33.620000
1455.586185	34.550000
1457.543801	37.520000
1459.500974	31.320000
1461.455872	30.540000
1463.412163	37.240000
1465.366179	37.340000
1467.319754	36.840000
1469.271057	33.010000
1471.223753	35.030000
1473.174176	37.940000
1475.124161	40.440000
1477.073707	38.000000
1479.020984	38.770000
1480.965993	28.910000
1482.912395	37.090000
1484.858359	39.270000
1486.803886	44.060000
1488.747147	36.870000
1490.689973	45.380000
1492.630534	40.360000
1494.572488	36.350000
1496.512179	34.100000
1498.451435	35.810000
1500.390257	34.690000
1502.326819	42.770000
1504.264772	36.390000
1506.200466	38.110000
1508.135727	42.000000
1510.068731	37.490000
1512.001304	35.670000
1513.933444	43.620000
1515.865152	42.260000
1517.794606	42.440000
1519.725451	37.850000
1521.655864	40.740000
1523.582205	43.290000
1525.509936	43.100000
1527.435418	44.520000
1529.360470	45.960000
1531.285093	46.480000
1533.209286	51.320000
1535.131233	45.780000
1537.054570	51.750000
1538.975660	43.340000
1540.894506	50.300000
1542.814742	49.180000
1544.732735	58.080000
1546.650300	56.700000
1548.565625	61.630000
1550.482339	62.370000
1552.394998	71.290000
1554.310861	81.860000
1556.224484	84.150000
1558.135869	86.090000
1560.048644	97.420000
1561.957369	109.590000
1563.867483	120.430000
1565.777174	137.750000
1567.686442	169.640000
1569.593476	211.840000
1571.498277	263.860000
1573.404467	332.380000
1575.308425	421.050000
1577.211962	492.240000
1579.115079	533.880000
1581.015966	531.440000
1582.918242	470.930000
1584.818290	381.670000
1586.719725	302.930000
1588.617127	226.460000
1590.514110	185.180000
1592.410675	146.330000
1594.308627	128.940000
1596.200745	113.130000
1598.096057	100.310000
1599.990951	84.160000
1601.883623	82.470000
1603.775878	72.980000
1605.665914	66.550000
1607.555534	61.790000
1609.444739	63.320000
1611.333529	57.210000
1613.220101	59.100000
1615.108061	49.280000
1616.992004	56.080000
1618.877334	54.920000
1620.762251	53.270000
1622.644954	43.290000
1624.529044	44.600000
1626.409122	42.170000
1628.290588	45.440000
1630.169843	40.410000
1632.050484	41.420000
1633.925321	42.920000
1635.805139	41.650000
1637.680953	39.570000
1639.556356	38.610000
1641.433145	35.780000
1643.304138	34.910000
1645.178312	43.950000
1647.048487	36.660000
1648.921843	36.260000
1650.792996	43.790000
1652.661948	34.000000
1654.532284	39.100000
1656.398628	40.080000
1658.266357	39.100000
1660.131887	41.120000
1661.998803	40.540000
1663.861730	35.710000
1665.726042	33.130000
1667.588158	35.360000
1669.449869	40.460000
1671.312966	38.690000
1673.173867	41.300000
1675.032576	38.400000
1676.890881	44.370000
1678.750570	33.950000
1680.604493	32.600000
1682.461589	30.230000
1684.318281	32.750000
1686.170998	36.460000
1688.026886	34.530000
1689.878800	30.550000
1691.730313	38.250000
1693.581425	32.000000
1695.432137	36.710000
1697.282447	34.510000
1699.130574	36.030000
1700.980085	34.980000
1702.823846	34.410000
1704.672558	31.450000
1706.515523	41.580000
1708.361655	31.980000
1710.203824	32.460000
1712.049159	32.660000
1713.888753	39.330000
1715.729731	34.280000
1717.572092	34.090000
1719.410497	37.470000
1721.250285	39.270000
1723.087897	30.260000
1724.925115	39.730000
1726.760159	38.240000
1728.596586	34.710000
1730.430841	35.000000
1732.264701	34.700000
1734.098167	32.470000
1735.927688	37.450000
1737.760367	31.640000
1739.589102	38.540000
1741.420994	32.250000
1743.248944	31.370000
1745.076502	35.720000
1746.903669	31.250000
1748.730444	37.410000
1750.556827	42.740000
1752.379274	39.040000
1754.204876	39.600000
1756.026543	40.060000
1757.849592	43.120000
1759.670479	32.740000
1761.490978	37.940000
1763.312857	35.930000
1765.129038	37.270000
1766.948370	31.810000
1768.763774	35.740000
1770.582330	33.010000
1772.396960	36.550000
1774.211203	36.360000
1776.025060	36.220000
1777.838530	33.700000
1779.649847	36.840000
1781.462544	36.100000
1783.274856	30.680000
1785.083249	36.420000
1786.893024	35.410000
1788.698884	35.100000
1790.507889	30.130000
1792.312981	33.730000
1794.119454	34.440000
1795.925543	35.040000
1797.727721	31.350000
1799.533044	38.340000
1801.334458	35.510000
1803.137252	34.850000
1804.936140	35.480000
1806.736409	35.090000
1808.536296	39.960000
1810.334041	32.980000
1812.131406	36.390000
1813.928391	33.760000
1815.724995	32.820000
1817.519460	34.010000
1819.315304	38.690000
1821.105493	28.520000
1822.900579	35.510000
1824.690013	35.080000
1826.482583	34.800000
1828.273018	36.360000
1830.061319	37.060000
1831.852755	33.040000
1833.638545	29.790000
1835.425715	31.030000
1837.210753	38.830000
1838.998925	27.620000
1840.783211	31.960000
1842.565367	31.940000
1844.348903	39.050000
1846.130310	31.920000
1847.913096	36.780000
1849.692001	34.880000
1851.472285	34.610000
1853.250444	39.760000
1855.029981	36.650000
1856.807392	32.920000
1858.582681	33.860000
1860.359347	33.740000
1862.133891	39.490000
1863.909813	29.690000
1865.680114	37.250000
1867.453543	39.950000
1869.224852	35.770000
1870.995790	32.720000
1872.768106	37.800000
1874.534808	31.590000
1876.304635	34.880000
1878.070599	32.470000
1879.839687	36.560000
1881.604913	33.570000
1883.369771	39.080000
1885.136006	27.900000
1886.898382	37.610000
1888.660390	31.290000
1890.422032	37.400000
1892.183307	31.560000
1893.944214	32.260000
1895.704755	33.610000
1897.463186	38.250000
1899.221251	32.730000
1900.977209	41.400000
1902.734543	35.310000
1904.491512	39.740000
1906.246374	35.960000
1907.999132	34.950000
1909.751525	40.450000
1911.505295	32.480000
1913.256961	30.700000
1915.006525	32.710000
1916.757464	36.790000
1918.508041	35.100000
1920.254778	33.930000
1922.002892	32.860000
1923.748906	30.220000
1925.496295	34.130000
1927.241587	32.050000
1928.984781	29.590000
1930.729350	31.870000
1932.471823	30.680000
1934.213937	36.010000
1935.955690	38.140000
1937.697083	35.330000
1939.436383	35.520000
1941.175324	38.900000
1942.913906	36.180000
1944.650397	37.060000
1946.386530	36.275000
1948.124037	35.490000
1949.857722	36.750000
1951.592782	35.570000
1953.325753	40.050000
1955.058368	31.610000
1956.790627	39.750000
1958.522529	36.840000
1960.252345	38.740000
1961.980076	37.340000
1963.709182	38.510000
1965.437932	34.730000
1967.164600	33.840000
1968.890913	29.520000
1970.618599	33.980000
1972.340749	31.940000
1974.066000	36.120000
1975.787444	31.590000
1977.511989	33.640000
1979.234453	35.180000
1980.953115	33.880000
1982.674875	35.180000
1984.392833	38.740000
1986.112164	33.450000
1987.827696	32.940000
1989.548048	31.640000
1991.264602	32.270000
1992.977359	34.200000
1994.693212	32.750000
1996.406993	31.050000
1998.120424	37.460000
1999.831784	35.470000
2001.544516	33.340000
2003.253458	37.250000
2004.965492	38.590000
2006.672017	34.090000
2008.381635	34.200000
2010.089185	39.200000
2011.796388	35.710000
2013.501525	36.430000
2015.206316	35.890000
2016.912478	36.000000
2018.614858	37.360000
2020.318609	33.580000
2022.020298	34.750000
2023.721641	31.730000
2025.422640	34.130000
2027.121577	31.560000
2028.821886	39.650000
2030.518419	32.480000
2032.216324	32.900000
2033.912171	40.020000
2035.611103	33.190000
2037.304549	31.080000
2038.999366	37.100000
2040.693841	33.050000
2042.384547	32.170000
2044.078337	38.030000
2045.768360	39.460000
2047.459754	33.230000
2049.149095	34.150000
2050.839806	33.030000
2052.526754	36.640000
2054.213363	35.010000
2055.901341	38.060000
2057.585560	34.790000
2059.271150	36.900000
2060.956400	29.810000
2062.639601	31.640000
2064.324173	30.790000
2066.003281	30.810000
2067.687176	33.170000
2069.365609	34.310000
2071.047120	34.430000
2072.724879	34.460000
2074.402302	34.860000
2076.081094	35.490000
2077.757844	36.320000
2079.432551	40.040000
2081.108629	33.430000
2082.782665	35.380000
2084.456367	30.260000
2086.129733	36.510000
2087.801060	34.210000
2089.472053	37.620000
2091.142712	38.240000
2092.813037	36.080000
2094.483028	32.930000
2096.150983	32.180000
2097.818605	30.370000
2099.484192	30.020000
2101.151148	33.050000
2102.816071	32.890000
2104.480662	33.490000
2106.143221	34.870000
2107.807148	27.640000
2109.469044	34.480000
2111.130610	32.530000
2112.791844	29.090000
2114.451050	35.900000
2116.109925	35.930000
2117.768471	35.080000
2119.426686	35.950000
2121.081179	29.860000
2122.738736	33.930000
2124.395963	33.470000
2126.049470	33.850000
2127.704344	35.930000
2129.355499	36.560000
2131.009717	34.850000
2132.660217	33.050000
2134.312085	32.750000
2135.958544	38.220000
2137.609758	25.890000
2139.257258	34.310000
2140.906125	29.370000
2142.552973	34.970000
2144.199496	34.310000
2145.845693	32.040000
2147.488182	31.360000
2149.133729	29.240000
2150.775569	31.960000
2152.420466	34.410000
2154.061657	33.690000
2155.702526	30.020000
2157.343070	33.210000
2158.981602	35.940000
2160.621500	32.580000
2162.257698	36.520000
2163.895262	37.480000
2165.532504	34.800000
2167.167736	34.580000
2168.802646	39.470000
2170.437235	30.830000
2172.071503	34.760000
2173.702077	31.440000
2175.335703	33.670000
2176.965637	33.330000
2178.596936	34.770000
2180.226230	33.960000
2181.855205	30.460000
2183.483860	28.690000
2185.112196	33.400000
2186.738530	36.440000
2188.364545	38.360000
2189.988558	34.250000
2191.613937	35.630000
2193.237315	31.760000
2194.862058	37.120000
2196.483120	29.880000
2198.103865	36.360000
2199.725974	29.640000
2201.346086	35.510000
2202.964202	33.740000
2204.582002	34.740000
2206.199487	33.590000
2207.816656	31.310000
2209.433510	31.430000
2211.050048	33.010000
2212.664594	33.130000
2214.277147	29.100000
2215.891064	31.870000
2217.502990	37.360000
2219.116279	31.340000
2220.727578	35.050000
2222.336887	32.020000
2223.947560	32.460000
2225.556244	30.070000
2227.164615	26.840000
2228.771000	34.320000
2230.378747	32.420000
2231.984509	32.650000
2233.589959	34.610000
2235.193424	28.760000
2236.798252	36.240000
2238.401096	32.560000
2240.001957	36.290000
2241.604181	38.060000
2243.204423	32.940000
2244.806027	35.490000
2246.403978	30.110000
2248.003292	31.360000
2249.600626	28.800000
2251.197652	27.680000
2252.796040	31.140000
2254.390779	30.540000
2255.983541	38.150000
2257.577666	30.940000
2259.173152	32.650000
2260.764993	32.100000
2262.356528	35.690000
2263.949425	34.700000
2265.537012	31.440000
2267.129295	32.330000
2268.716272	31.340000
2270.306276	35.100000
2271.890976	30.760000
2273.480370	36.710000
2275.064462	34.400000
2276.649914	33.420000
2278.233398	32.790000
2279.819907	30.500000
2281.402783	34.180000
2282.985356	29.420000
2284.567625	38.340000
2286.146264	33.230000
2287.727928	33.090000
2289.305963	34.180000
2290.887021	33.660000
2292.464452	33.630000
2294.039920	33.600000
2295.618410	35.350000
2297.193276	29.560000
2298.767841	32.830000
2300.342105	32.510000
2301.916070	25.640000
2303.489733	30.810000
2305.063097	29.560000
2306.632842	30.200000
2308.202288	33.750000
2309.774752	31.290000
2311.341942	31.220000
2312.912150	33.430000
2314.478743	33.400000
2316.046696	33.250000
2317.612693	29.430000
2319.178393	36.450000
2320.743795	34.470000
2322.307244	36.060000
2323.872052	32.240000
2325.433252	37.800000
2326.997466	45.050000
2328.556418	56.350000
2330.118384	39.710000
2331.678400	43.910000
2333.238121	34.510000
2334.795892	33.770000
2336.353368	25.120000
2337.910550	31.150000
2339.465784	32.010000
2341.020725	31.030000
2342.575371	30.220000
2344.129724	33.640000
2345.683783	33.040000
2347.237549	35.150000
2348.789370	28.810000
2350.339249	38.700000
2351.892135	32.720000
2353.439778	36.380000
2354.990430	35.860000
2356.537490	29.280000
2358.085908	27.910000
2359.634035	35.540000
2361.178573	30.770000
2362.724469	37.400000
2364.268427	35.550000
2365.813741	33.830000
2367.355472	32.160000
2368.898559	30.910000
2370.439710	28.890000
2371.980572	31.270000
2373.521145	30.120000
2375.061429	37.520000
2376.601424	33.610000
2378.137841	34.600000
2379.677259	34.910000
2381.213099	32.040000
2382.750297	32.010000
2384.283919	36.130000
2385.820541	32.010000
2387.355233	34.720000
2388.887995	33.820000
2390.420470	34.450000
2391.951017	32.990000
2393.484562	38.550000
2395.012896	31.110000
2396.542586	36.680000
2398.071991	31.410000
2399.601111	35.430000
2401.129945	34.800000
2402.653575	33.890000
2404.181840	35.400000
2405.704903	36.760000
2407.232599	30.170000
2408.753456	40.060000
2410.278945	34.780000
2411.800875	38.370000
2413.324159	40.670000
2414.845523	39.800000
2416.364967	33.630000
2417.885766	44.890000
2419.404646	37.470000
2420.923245	37.120000
2422.439926	33.110000
2423.957961	36.690000
2425.475715	39.030000
2426.989917	38.300000
2428.503840	33.540000
2430.017482	41.520000
2431.532479	38.840000
2433.043927	41.970000
2434.556729	43.440000
2436.067619	46.410000
2437.578230	44.690000
2439.086929	44.930000
2440.598614	42.920000
2442.106756	49.210000
2443.614620	44.720000
2445.122206	49.470000
2446.626251	40.690000
2448.133281	45.450000
2449.638403	43.760000
2451.143248	45.330000
2452.646186	46.010000
2454.148848	44.320000
2455.651233	39.540000
2457.151713	49.390000
2458.653546	45.930000
2460.153474	41.080000
2461.653127	41.690000
2463.152505	45.580000
2464.649980	37.840000
2466.145553	43.080000
2467.644106	40.420000
2469.139131	39.160000
2470.635508	35.920000
2472.128359	44.360000
2473.622563	32.790000
2475.116493	38.150000
2476.606899	40.310000
2478.100283	42.060000
2479.591769	39.060000
2481.081358	40.620000
2482.570675	30.290000
2484.058096	41.390000
2485.548493	36.380000
2487.035372	40.950000
2488.523602	32.830000
2490.008315	36.810000
2491.492759	37.310000
2492.978553	37.050000
2494.462456	40.280000
2495.947709	32.420000
2497.427829	40.140000
2498.910922	38.960000
2500.392124	36.340000
2501.873057	35.910000
2503.352101	35.080000
2504.830876	33.030000
2506.309383	30.310000
2507.787622	41.540000
2509.265592	36.210000
2510.740057	34.300000
2512.217492	38.630000
2513.691423	39.000000
2515.166704	37.930000
2516.641718	30.780000
2518.113231	42.380000
2519.586095	41.970000
2521.057076	34.180000
2522.529407	40.420000
2523.996624	34.460000
2525.466808	41.690000
2526.935111	34.810000
2528.403149	30.320000
2529.870922	35.890000
2531.338430	39.670000
2532.805673	36.800000
2534.269424	33.420000
2535.734525	33.100000
2537.197749	37.900000
2538.662322	34.380000
2540.123407	39.810000
2541.585841	38.020000
2543.048012	31.280000
2544.506697	33.150000
2545.969953	36.480000
2547.428114	35.210000
2548.887623	35.200000
2550.342038	37.040000
2551.801024	35.270000
2553.258138	32.180000
2554.713380	30.290000
2556.168362	34.350000
2557.621475	35.000000
2559.075935	37.330000
2560.528527	44.810000
2561.980859	33.980000
2563.431324	35.150000
2564.884744	30.760000
2566.333082	33.700000
2567.784375	33.290000
2569.233803	37.170000
2570.679758	37.440000
2572.128668	29.000000
2573.574108	37.340000
2575.020895	38.290000
2576.465819	35.220000
2577.910486	38.410000
2579.356500	36.110000
2580.799048	35.880000
2582.242943	42.220000
2583.683372	39.470000
2585.125150	35.140000
2586.565068	37.780000
2588.006333	36.680000
2589.444136	39.230000
2590.884889	36.720000
2592.320580	35.270000
2593.759220	38.500000
2595.196002	37.830000
2596.630929	38.810000
2598.068803	43.270000
2599.501620	34.100000
2600.935784	42.180000
2602.368094	41.160000
2603.801750	41.360000
2605.233553	35.370000
2606.665102	42.200000
2608.096399	37.740000
2609.525843	39.020000
2610.955035	35.700000
2612.382377	43.550000
2613.811064	36.790000
2615.239500	39.910000
2616.664488	36.760000
2618.090823	48.650000
2619.515309	43.990000
2620.941141	44.260000
2622.363529	42.920000
2623.787263	48.080000
2625.209150	41.870000
2626.630788	47.660000
2628.050580	45.480000
2629.471718	52.440000
2630.892606	49.810000
2632.310055	47.680000
2633.730445	43.330000
2635.147397	48.790000
2636.564100	49.610000
2637.980555	47.350000
2639.396762	50.840000
2640.812721	48.000000
2642.226839	49.000000
2643.640709	52.400000
2645.052741	50.510000
2646.466116	55.220000
2647.876062	53.550000
2649.288944	59.050000
2650.698397	62.640000
2652.107604	62.050000
2653.514975	66.870000
2654.925280	66.960000
2656.333750	69.850000
2657.740384	70.410000
2659.146773	69.160000
2660.551328	75.880000
2661.957227	79.230000
2663.361293	82.890000
2664.765114	88.010000
2666.168691	86.990000
2667.570437	89.410000
2668.973526	100.650000
2670.373197	86.290000
2671.774212	98.200000
2673.171811	97.870000
2674.572339	102.710000
2675.969453	103.710000
2677.367910	102.710000
2678.764540	99.330000
2680.160927	97.110000
2681.557072	99.600000
2682.951391	98.190000
2684.347053	94.440000
2685.739306	105.290000
2687.132901	100.260000
2688.524672	104.170000
2689.917786	97.640000
2691.309076	105.740000
2692.698543	104.760000
2694.087770	99.960000
2695.476758	106.490000
2696.867087	102.690000
2698.252433	103.360000
2699.640702	113.630000
2701.027151	114.700000
2702.413361	117.060000
2703.799332	124.560000
2705.181905	133.410000
2706.565820	138.830000
2707.949497	140.370000
2709.332935	148.740000
2710.712978	159.610000
2712.094363	158.890000
2713.473933	164.570000
2714.854843	164.870000
2716.233939	171.580000
2717.611221	165.470000
2718.989844	163.880000
2720.366653	162.230000
2721.743227	149.390000
2723.119565	149.210000
2724.494092	141.130000
2725.869959	128.690000
2727.242439	129.120000
2728.617835	114.960000
2729.988271	114.810000
2731.360048	105.930000
2732.731590	107.350000
2734.101324	103.910000
2735.472399	95.220000
2736.841665	91.290000
2738.210698	88.240000
2739.577925	84.930000
2740.944918	77.050000
2742.311679	77.120000
2743.678208	75.920000
2745.042931	70.000000
2746.407422	70.020000
2747.771682	65.680000
2749.135709	65.500000
2750.499505	58.990000
2751.859927	54.930000
2753.223259	47.410000
2754.581649	48.910000
2755.942949	49.080000
2757.300879	48.240000
2758.661717	41.630000
2760.020756	50.690000
2761.376426	45.730000
2762.735004	40.960000
2764.090215	35.820000
2765.445197	43.020000
2766.798382	43.900000
2768.154474	40.020000
2769.507202	33.970000
2770.859702	41.090000
2772.211973	41.460000
2773.565582	38.580000
2774.915831	35.930000
2776.264285	40.230000
2777.615644	33.640000
2778.963645	38.650000
2780.312983	39.630000
2781.660529	38.960000
2783.007849	34.450000
2784.354942	35.010000
2785.700243	31.370000
2787.045319	33.660000
2788.390169	33.420000
2789.734793	37.760000
2791.076065	33.210000
2792.418675	37.700000
2793.761059	33.750000
2795.103218	36.180000
2796.442028	32.300000
2797.783738	34.010000
2799.122099	29.130000
2800.461798	34.040000
2801.799712	33.040000
2803.135841	38.700000
2804.471746	31.660000
2805.808989	38.140000
2807.144448	33.580000
2808.479684	35.890000
2809.813137	30.640000
2811.147927	34.450000
2812.479377	32.960000
2813.813722	31.030000
2815.143169	30.770000
2816.473952	33.820000
2817.804515	32.070000
2819.133298	26.500000
2820.463417	30.170000
2821.791758	35.970000
2823.119878	28.230000
2824.446220	31.980000
2825.773899	25.860000
2827.098244	34.190000
2828.423926	32.710000
2829.747832	36.050000
2831.071518	33.530000
2832.396541	28.340000
2833.718233	26.060000
2835.039707	32.970000
2836.360962	23.360000
2837.681998	29.540000
2839.001261	22.320000
2840.321860	35.300000
2841.640688	32.930000
2842.959297	34.780000
2844.276135	30.460000
2845.592756	27.290000
2846.909160	27.320000
2848.223794	26.400000
2849.539764	30.350000
2850.852413	30.250000
2852.166397	29.750000
2853.480165	31.960000
2854.793716	31.890000
2856.105501	33.630000
2857.415519	26.110000
2858.726872	29.520000
2860.034910	24.600000
2861.344282	26.320000
2862.653440	31.210000
2863.962382	29.530000
2865.269560	37.640000
2866.574976	28.170000
2867.881725	29.050000
2869.186713	27.830000
2870.491486	30.030000
2871.794499	32.010000
2873.100392	30.000000
2874.401431	29.330000
2875.703804	26.720000
2877.004417	27.710000
2878.306364	25.460000
2879.608097	33.700000
2880.906527	27.630000
2882.206290	26.260000
2883.504296	27.860000
2884.802090	23.030000
2886.098128	23.130000
2887.395499	26.740000
2888.691114	26.450000
2889.986518	30.700000
2891.281711	28.470000
2892.573607	26.140000
2893.868379	29.180000
2895.159854	34.650000
2896.452662	29.760000
2897.745260	27.640000
2899.034564	31.220000
2900.325200	24.590000
2901.614085	26.490000
2902.904302	29.310000
2904.191228	27.870000
2905.479486	26.900000
2906.765995	27.310000
2908.052295	28.910000
2909.338388	25.160000
2910.622732	34.230000
2911.909947	31.800000
2913.192336	27.390000
2914.476057	25.790000
2915.758032	26.370000
2917.039799	26.600000
2918.319821	27.560000
2919.602714	28.990000
2920.883861	33.260000
2922.161726	27.040000
2923.442460	29.410000
2924.719913	33.280000
2925.997160	23.870000
2927.272665	24.470000
2928.551038	32.160000
2929.824597	25.650000
2931.101023	25.780000
2932.375708	24.880000
2933.648652	26.700000
2934.922928	29.660000
2936.195464	26.490000
2937.467795	26.500000
2938.736854	29.930000
2940.008778	25.170000
2941.278964	23.220000
2942.548946	28.160000
2943.818725	30.060000
2945.086768	30.130000
2946.353074	29.680000
2947.619179	26.060000
2948.886613	25.390000
2950.152312	26.720000
2951.417810	23.970000
2952.683105	28.340000
2953.945135	30.340000
2955.208495	28.460000
2956.471654	26.530000
2957.733081	25.240000
2958.995837	25.040000
2960.256861	25.420000
2961.516155	32.180000
2962.775249	27.080000
2964.034142	25.840000
2965.292835	22.700000
2966.551328	22.680000
2967.808092	28.320000
2969.064656	29.270000
2970.319492	25.590000
2971.575658	33.940000
2972.828569	24.530000
2974.082809	25.350000
2975.336849	21.540000
2976.589164	32.790000
2977.841281	26.960000
2979.091673	25.040000
2980.344920	25.890000
2981.593390	27.110000
2982.844715	24.630000
2984.092790	21.720000
2985.340668	24.780000
2986.588350	31.230000
2987.835834	30.330000
2989.081597	26.550000
2990.327164	29.300000
2991.574058	27.950000
2992.817708	28.240000
2994.062686	31.190000
2995.304420	26.860000
2996.549006	28.220000
2997.791873	22.090000
2999.031499	31.130000
3000.273975	17.220000
3001.513211	29.190000
3002.753775	22.060000
3003.992622	27.510000
3005.231275	26.470000
3006.468212	25.930000
3007.706477	23.840000
3008.943026	30.220000
3010.179382	18.170000
3011.415544	26.400000
3012.649992	19.070000
3013.884248	26.030000
3015.118310	30.790000
3016.350659	18.460000
3017.581298	25.730000
3018.814782	29.530000
3020.046554	26.230000
3021.276616	31.940000
3022.506485	28.330000
3023.734645	26.530000
3024.964132	22.460000
3026.191909	24.600000
3027.419495	22.700000
3028.648407	29.350000
3029.872578	19.970000
3031.099591	29.340000
3032.323380	27.600000
3033.548496	30.100000
3034.771905	26.450000
3035.995124	22.260000
3037.216638	22.180000
3038.440993	27.750000
3039.660613	23.850000
3040.881559	27.910000
3042.102316	28.010000
3043.321369	23.560000
3044.541747	26.000000
3045.758909	24.790000
3046.977397	24.330000
3048.194182	24.780000
3049.410780	22.600000
3050.627189	31.090000
3051.840385	23.420000
3053.056420	26.180000
3054.269242	24.710000
3055.484901	28.400000
3056.695837	23.910000
3057.908098	22.190000
3059.120172	24.790000
3060.332060	28.440000
3061.542251	23.510000
3062.752255	26.070000
3063.962073	26.560000
3065.170195	22.190000
3066.378132	23.430000
3067.584373	28.680000
3068.791939	27.720000
3069.997810	25.445000
3071.203497	23.170000
3072.408998	23.090000
3073.612806	19.290000
3074.817938	29.410000
3076.021377	27.110000
3077.223125	28.370000
3078.424688	21.640000
3079.626068	21.730000
3080.827264	21.460000
3082.026770	25.070000
3083.226093	22.350000
3084.426739	23.270000
3085.625695	23.270000
3086.821457	21.880000
3088.020048	24.640000
3089.215445	23.610000
3090.412165	25.200000
3091.605693	21.370000
3092.802049	26.280000
3093.996718	23.710000
3095.188197	23.330000
3096.384008	22.260000
3097.575124	24.150000
3098.767564	23.520000
3099.956816	28.030000
3101.148893	28.910000
3102.339287	20.100000
3103.526495	27.270000
3104.715025	27.290000
3105.904878	22.030000
3107.091547	20.490000
3108.278035	27.720000
3109.464345	22.400000
3110.651976	23.140000
3111.836425	19.860000
3113.019195	28.860000
3114.204787	24.970000
3115.388700	29.530000
3116.570934	23.860000
3117.752989	24.320000
3118.934866	21.950000
3120.116565	24.120000
3121.296587	25.380000
3122.474932	27.170000
3123.656097	22.780000
3124.834087	19.600000
3126.011900	20.750000
3127.189536	29.110000
3128.365498	17.400000
3129.541282	25.750000
3130.718388	27.720000
3131.893819	24.840000
3133.067577	22.240000
3134.239662	24.720000
3135.413069	23.070000
3136.586299	27.280000
3137.757858	23.060000
3138.930737	20.130000
3140.100449	24.710000
3141.271482	26.620000
3142.440845	22.040000
3143.608537	30.040000
3144.779045	20.380000
3145.944895	30.630000
3147.115053	24.060000
3148.280555	24.230000
3149.445882	25.900000
3150.611036	27.190000
3151.776017	22.540000
3152.942317	22.340000
3154.103965	21.000000
3155.266932	26.870000
3156.429727	24.950000
3157.592349	23.090000
3158.753305	20.810000
3159.914090	26.250000
3161.074702	22.850000
3162.233650	22.710000
3163.392427	21.700000
3164.551031	30.030000
3165.709464	25.130000
3166.867726	23.010000
3168.024325	20.790000
3169.179263	26.460000
3170.335520	18.860000
3171.490116	20.400000
3172.644542	21.200000
3173.797308	27.060000
3174.949903	24.410000
3176.102329	26.180000
3177.254585	16.330000
3178.406670	26.470000
3179.555609	23.890000
3180.707356	24.900000
3181.857444	23.290000
3183.005876	24.040000
3184.154138	25.320000
3185.302232	25.070000
3186.450157	21.880000
3187.596426	32.250000
3188.742527	24.110000
3189.886974	27.350000
3191.031253	22.400000
3192.175364	20.100000
3193.320792	17.680000
3194.463082	21.960000
3195.605205	20.710000
3196.747160	18.320000
3197.888948	18.900000
3199.030569	22.910000
3200.169055	23.890000
3201.308858	25.930000
3202.449978	22.430000
3203.587965	26.150000
3204.724302	18.010000
3205.860473	20.660000
3206.997961	18.180000
3208.133801	24.960000
3209.270958	23.780000
3210.403502	26.070000
3211.540328	23.100000
3212.672542	26.140000
3213.806073	26.460000
3214.939440	20.480000
3216.069679	19.230000
3217.202716	23.780000
3218.332627	19.570000
3219.463854	24.150000
3220.591957	21.130000
3221.722856	22.030000
3222.852111	18.700000
3223.979723	21.370000
3225.104212	22.690000
3226.232977	31.160000
3227.358620	27.500000
3228.484101	22.170000
3229.607939	23.480000
3230.734573	27.720000
3231.856609	22.630000
3232.979961	26.120000
3234.103151	27.280000
3235.226178	29.420000
3236.347567	27.100000
3237.468793	32.390000
3238.588382	29.830000
3239.707809	33.350000
3240.825598	31.650000
3241.946179	32.970000
3243.063647	33.570000
3244.180954	31.790000
3245.298101	29.910000
3246.413611	33.370000
3247.530437	30.610000
3248.644153	31.050000
3249.760658	28.620000
3250.875529	25.370000
3251.987290	25.670000
3253.098893	26.730000
3254.211811	19.340000
3255.324569	26.590000
3256.434221	19.120000
3257.545188	21.710000
3258.655996	27.720000
3259.765172	29.600000
3260.872717	19.720000
3261.981577	24.300000
3263.090279	21.090000
3264.195878	26.140000
3265.302791	21.640000
3266.408075	18.190000
3267.514673	22.460000
3268.618171	27.010000
3269.722984	19.040000
3270.827638	25.990000
3271.929195	19.760000
3273.030595	23.070000
3274.133309	20.510000
3275.235867	23.990000
3276.335328	21.340000
3277.437573	20.940000
3278.536722	22.150000
3279.634247	26.610000
3280.731616	21.030000
3281.831767	22.360000
3282.928826	27.150000
3284.025729	19.410000
3285.122477	21.510000
3286.214666	17.930000
3287.311105	23.990000
3288.405921	24.490000
3289.500583	18.240000
3290.593623	20.050000
3291.686508	18.300000
3292.777773	21.540000
3293.870351	19.410000
3294.961309	20.760000
3296.050647	21.170000
3297.139832	20.940000
3298.230330	16.360000
3299.317743	21.040000
3300.405003	19.290000
3301.493576	15.920000
3302.581996	17.940000
3303.665870	22.740000
3304.753985	20.390000
3305.839018	25.000000
3306.922436	21.680000
3308.007166	22.790000
3309.090280	22.130000
3310.174707	18.630000
3311.256055	21.420000
3312.338715	18.470000
3313.419761	21.250000
3314.500656	24.270000
3315.579937	22.710000
3316.659068	13.470000
3317.739511	15.500000
3318.816879	25.610000
3319.895559	18.390000
3320.972627	21.040000
3322.049546	20.160000
3323.124853	26.880000
3324.200011	18.530000
3325.276480	23.430000
3326.349879	16.840000
3327.423128	23.520000
3328.497689	23.330000
3329.570641	21.550000
3330.641984	22.980000
3331.714638	23.930000
3332.784226	18.910000
3333.855124	25.320000
3334.924415	16.530000
3335.995017	21.410000
3337.064012	18.140000
3338.131401	21.920000
3339.197185	22.160000
3340.267195	24.650000
3341.334142	20.510000
3342.398027	21.770000
3343.464679	22.460000
3344.529728	24.170000
3345.593173	22.870000
3346.656472	18.500000
3347.719624	21.790000
3348.782630	17.720000
3349.845490	15.480000
3350.906748	22.140000
3351.964949	25.200000
3353.027370	25.160000
3354.086736	17.660000
3355.145956	25.810000
3356.206485	18.220000
3357.262506	20.970000
3358.321290	20.760000
3359.375567	20.930000
3360.432608	18.100000
3361.488050	19.980000
3362.544802	25.510000
3363.599955	25.180000
3364.653511	22.450000
3365.705471	22.480000
3366.760192	24.230000
3367.811864	21.910000
3368.863393	17.340000
3369.916230	23.650000
3370.966020	17.460000
3372.017119	20.980000
3373.065172	17.480000
3374.115984	23.240000
3375.163752	19.880000
3376.211376	24.990000
3377.258859	16.480000
3378.304749	21.560000
3379.351947	18.860000
3380.396103	18.120000
3381.443017	23.870000
3382.488339	15.820000
3383.530620	18.150000
3384.572760	18.610000
3385.616209	17.860000
3386.659516	24.570000
3387.701233	24.090000
3388.742810	22.760000
3389.784245	21.050000
3390.824092	21.450000
3391.862350	21.340000
3392.901916	17.770000
3393.941342	20.330000
3394.979180	19.710000
3396.015431	23.090000
3397.051543	24.070000
3398.088962	24.820000
3399.123348	23.660000
3400.159041	15.260000
3401.194595	19.350000
3402.227118	20.550000
3403.262394	21.730000
3404.294639	23.990000
3405.326746	21.170000
3406.357269	13.730000
3407.389099	20.390000
3408.420791	24.060000
3409.449455	20.550000
3410.477982	19.600000
3411.507815	22.150000
3412.537511	20.460000
3413.564181	23.710000
3414.592157	17.020000
3415.617110	12.330000
3416.644812	19.020000
3417.669491	23.860000
3418.695476	16.120000
3419.719881	22.450000
3420.744150	18.910000
3421.766840	18.640000
3422.789394	19.250000
3423.813254	15.140000
3424.834094	16.250000
3425.854798	24.340000
3426.876809	16.200000
3427.895801	22.150000
3428.914657	15.260000
3429.934820	22.410000
3430.951966	21.030000
