-118.304647	0.850000
-115.635047	3.190000
-112.968382	2.530000
-110.302469	3.340000
-107.639489	-0.720000
-104.975078	5.840000
-102.313598	-2.980000
-99.650689	5.310000
-96.992886	4.880000
-94.333654	4.900000
-91.675170	1.170000
-89.019611	-2.580000
-86.362622	0.250000
-83.710732	7.800000
-81.057412	2.350000
-78.407011	4.250000
-75.755182	2.490000
-73.108442	7.350000
-70.460274	8.120000
-67.812848	3.900000
-65.168337	-0.190000
-62.522396	1.080000
-59.881537	3.180000
-57.239249	8.620000
-54.599870	3.210000
-51.959061	7.200000
-49.318993	4.920000
-46.683998	11.220000
-44.047573	6.130000
-41.414051	7.200000
-38.779101	13.710000
-36.149216	0.950000
-33.515739	7.910000
-30.887324	5.970000
-28.259643	13.180000
-25.630533	15.140000
-23.006480	20.920000
-20.378838	22.390000
-17.756249	37.500000
-15.134392	40.490000
-12.513265	75.500000
-9.892869	199.660000
-7.275360	641.090000
-4.656423	2344.330000
-2.040371	5839.110000
0.574952	11232.440000
3.189547	5759.540000
5.801261	760.870000
8.414403	90.930000
11.022511	45.660000
13.634201	32.720000
16.240860	21.270000
18.848947	24.140000
21.456310	19.490000
24.058648	13.280000
26.664564	11.130000
29.265458	11.640000
31.867780	11.180000
34.465085	6.840000
37.065965	11.040000
39.661830	8.950000
42.259124	8.860000
44.855698	6.260000
47.447263	2.970000
50.040256	5.730000
52.630388	0.580000
55.221947	3.880000
57.810648	2.780000
60.400775	4.680000
62.985903	1.190000
65.572459	2.680000
68.158301	2.110000
70.741289	7.540000
73.325703	4.150000
75.902989	6.490000
78.483841	4.060000
81.061844	3.540000
83.639137	0.640000
86.217856	0.460000
88.791593	5.530000
91.366758	-0.640000
93.939079	5.810000
96.510692	2.800000
99.079465	-0.210000
101.649665	1.730000
104.217026	2.330000
106.785814	3.400000
109.351765	3.810000
111.914881	1.420000
114.481553	5.600000
117.039004	3.890000
119.602140	4.900000
122.160316	7.010000
124.722047	14.260000
127.278821	18.660000
129.837021	21.800000
132.390269	25.170000
134.942819	45.790000
137.498919	58.240000
140.050071	75.020000
142.600526	87.870000
145.150283	91.920000
147.697221	96.650000
150.243464	101.280000
152.791132	107.920000
155.338104	111.020000
157.880141	106.110000
160.421484	101.620000
162.962134	104.920000
165.504210	98.230000
168.043474	109.260000
170.579930	103.130000
173.115694	103.790000
175.652884	99.970000
178.189383	100.880000
180.723076	102.540000
183.253965	98.690000
185.784166	100.920000
188.315793	102.920000
190.844618	96.520000
193.370644	98.930000
195.895984	97.060000
198.422749	99.890000
200.946718	99.470000
203.470002	97.840000
205.992601	96.020000
208.512407	90.530000
211.031529	100.800000
213.549970	93.920000
216.069834	99.590000
218.582697	98.570000
221.099091	104.850000
223.614803	101.530000
226.125625	99.640000
228.637872	102.030000
231.147337	104.380000
233.656122	103.300000
236.164230	101.100000
238.673762	109.650000
241.178413	107.210000
243.682388	106.710000
246.187787	109.480000
248.688311	108.600000
251.192358	115.190000
253.689435	106.040000
256.190035	106.490000
258.687863	113.130000
261.185018	106.720000
263.681500	109.470000
266.173119	108.650000
268.668258	104.850000
271.160630	111.370000
273.652332	111.800000
276.141271	111.000000
278.631633	110.870000
281.119234	109.360000
283.604075	116.330000
286.092431	114.080000
288.573847	107.170000
291.058777	117.880000
293.538862	114.700000
296.022459	119.160000
298.501213	115.720000
300.981390	116.180000
303.458816	121.040000
305.935578	119.570000
308.411676	119.350000
310.885027	127.980000
313.357715	132.310000
315.829742	143.550000
318.301108	159.090000
320.769729	171.090000
323.237692	164.320000
325.707076	154.270000
328.171638	141.920000
330.639704	136.860000
333.102950	130.070000
335.565538	131.210000
338.027470	127.620000
340.488745	131.100000
342.947286	133.900000
345.407249	132.580000
347.864479	127.210000
350.321055	133.900000
352.776977	120.850000
355.230169	125.850000
357.684784	134.110000
360.134597	125.500000
362.587906	130.600000
365.036416	133.590000
367.484276	132.210000
369.933558	124.230000
372.378046	131.100000
374.823956	125.650000
377.269216	124.580000
379.711758	126.330000
382.153652	131.360000
384.594899	125.130000
387.033430	123.170000
389.473382	132.520000
391.910622	130.550000
394.345149	123.980000
396.783164	130.640000
399.216402	128.290000
401.651061	129.800000
404.080948	128.390000
406.514320	127.120000
408.942922	133.390000
411.370882	127.420000
413.800264	134.720000
416.224880	130.700000
418.650918	132.530000
421.076315	123.320000
423.501072	130.120000
425.921071	129.000000
428.342490	129.550000
430.761214	136.940000
433.181358	140.440000
435.598807	130.960000
438.017676	134.300000
440.433852	127.230000
442.845280	133.670000
445.260185	138.550000
447.672401	131.060000
450.083982	132.110000
452.494929	135.570000
454.903190	125.310000
457.310818	129.460000
459.717814	127.300000
462.124179	129.640000
464.527861	125.600000
466.930913	121.150000
469.333335	122.760000
471.735127	115.420000
474.134241	113.950000
476.534775	119.790000
478.934680	122.880000
481.329863	119.640000
483.728512	123.750000
486.122440	127.850000
488.515743	120.000000
490.908421	121.270000
493.300473	114.160000
495.693943	110.440000
498.082701	108.140000
500.468793	108.180000
502.856305	102.190000
505.243194	95.970000
507.627419	86.920000
510.013062	92.020000
512.396044	85.220000
514.776365	85.980000
517.158105	78.550000
519.537186	77.980000
521.917686	75.090000
524.295528	69.850000
526.670714	68.150000
529.045284	77.060000
531.421271	70.250000
533.794606	68.740000
536.169358	73.130000
538.539425	69.780000
540.908876	71.930000
543.279745	70.490000
545.645933	60.320000
548.013540	68.430000
550.378502	57.160000
552.742850	65.910000
555.106585	61.180000
557.471738	60.360000
559.832219	58.810000
562.194118	58.980000
564.553376	60.920000
566.909996	58.510000
569.270062	60.300000
571.623436	59.950000
573.980255	55.840000
576.334439	51.990000
578.688014	54.100000
581.040982	56.500000
583.391317	55.150000
585.743070	58.100000
588.088146	55.280000
590.438685	58.180000
592.782552	58.600000
595.131880	60.490000
597.476559	65.450000
599.818614	58.870000
602.162086	55.460000
604.502935	57.540000
606.843181	53.640000
609.180808	58.010000
611.521869	49.590000
613.858292	55.710000
616.196132	47.690000
618.531355	53.870000
620.863962	45.590000
623.197985	52.860000
625.529394	54.500000
627.860205	51.320000
630.190419	50.480000
632.520034	50.150000
634.845026	47.990000
637.175460	53.430000
639.501273	42.750000
641.824478	45.100000
644.149100	41.910000
646.471116	49.060000
648.792538	46.720000
651.111358	48.940000
653.431593	47.320000
655.751235	39.820000
658.068276	50.040000
660.384725	39.100000
662.698576	41.900000
665.013843	48.700000
667.326513	44.230000
669.640598	43.210000
671.950083	42.330000
674.260984	37.260000
676.569292	41.200000
678.877012	47.540000
681.186146	46.570000
683.490688	43.320000
685.794644	45.860000
688.098014	40.400000
690.402798	38.670000
692.702995	40.520000
695.004608	39.850000
697.305635	40.180000
699.602081	41.810000
701.899942	41.280000
704.197219	38.450000
706.493913	38.010000
708.786031	40.070000
711.081560	42.250000
713.372515	37.370000
715.664885	33.910000
717.954680	40.020000
720.243894	36.820000
722.532529	43.700000
724.818591	41.760000
727.106068	46.560000
729.390973	42.100000
731.675301	44.760000
733.957060	42.010000
736.240233	43.890000
738.522829	40.440000
740.800869	37.780000
743.080324	46.510000
745.359202	45.080000
747.637506	41.060000
749.911260	41.060000
752.186427	43.500000
754.461021	47.620000
756.733056	46.230000
759.006504	43.900000
761.277394	45.350000
763.545728	41.510000
765.815475	44.110000
768.082667	46.760000
770.349290	43.040000
772.615342	44.400000
774.878843	49.730000
777.143757	46.590000
779.408101	47.710000
781.667916	49.630000
783.929143	53.020000
786.189803	46.320000
788.447917	53.250000
790.703486	48.480000
792.962446	49.730000
795.214906	47.790000
797.472734	46.990000
799.726043	49.640000
801.976812	48.570000
804.228993	43.450000
806.478635	45.440000
808.729690	46.190000
810.976233	44.480000
813.224188	47.070000
815.469609	43.180000
817.716441	37.720000
819.962712	48.220000
822.204478	42.160000
824.449628	42.940000
826.688305	40.720000
828.930364	45.020000
831.167925	46.090000
833.406898	39.980000
835.643344	34.320000
837.881201	38.990000
840.116533	36.430000
842.349342	35.280000
844.583562	41.030000
846.815259	40.160000
849.046402	39.380000
851.276990	38.050000
853.507024	32.710000
855.736504	33.330000
857.961502	31.830000
860.189875	35.360000
862.413768	39.640000
864.639073	40.540000
866.859902	40.950000
869.084103	39.780000
871.303831	38.550000
873.524969	34.690000
875.745557	36.270000
877.963636	39.270000
880.183124	38.680000
882.398146	40.670000
884.612620	36.890000
886.826547	42.490000
889.039927	32.860000
891.252759	32.450000
893.465045	41.690000
895.674828	37.480000
897.884066	39.390000
900.092759	41.050000
902.298952	37.800000
904.506556	39.160000
906.711661	37.390000
908.916223	35.600000
911.118290	37.120000
913.321766	33.540000
915.522748	32.120000
917.723188	36.950000
919.925037	30.920000
922.120495	39.870000
924.319312	35.080000
926.513690	38.110000
928.711426	32.920000
930.904726	41.430000
933.099435	39.290000
935.291658	39.960000
937.483342	39.100000
939.674489	40.250000
941.863153	37.090000
944.051281	44.230000
946.236928	37.970000
948.425927	37.570000
950.610503	38.110000
952.794544	38.880000
954.981935	41.850000
957.161022	47.910000
959.343460	47.750000
961.525364	46.680000
963.704793	46.950000
965.881750	41.300000
968.060115	42.290000
970.239887	53.240000
972.413310	49.700000
974.590079	48.660000
976.762441	54.440000
978.936211	54.220000
981.105577	52.170000
983.278287	55.970000
985.448532	53.260000
987.618247	57.350000
989.787435	50.720000
991.952225	54.480000
994.120356	57.090000
996.284092	63.310000
998.449236	57.890000
1000.611920	62.100000
1002.774079	54.430000
1004.933781	67.390000
1007.092958	57.880000
1009.253542	59.080000
1011.411671	62.410000
1013.569277	63.060000
1015.726359	65.700000
1017.882917	67.600000
1020.035096	62.130000
1022.188682	61.840000
1024.341746	65.430000
1026.492361	65.930000
1028.644383	69.900000
1030.792031	68.320000
1032.943011	62.690000
1035.089620	70.590000
1037.235710	67.720000
1039.381282	73.870000
1041.528259	68.230000
1043.668947	68.860000
1045.812965	67.220000
1047.954542	77.840000
1050.095603	76.030000
1052.238068	72.390000
1054.374253	75.910000
1056.513765	77.560000
1058.648922	70.650000
1060.787403	74.150000
1062.921530	71.630000
1065.055144	69.960000
1067.190162	70.820000
1069.320832	70.510000
1071.452906	68.920000
1073.582551	69.270000
1075.711684	62.950000
1077.840305	66.720000
1079.968415	70.310000
1082.094099	62.780000
1084.219273	63.130000
1086.345851	63.230000
1088.468091	57.450000
1090.591736	63.730000
1092.711046	63.040000
1094.835585	57.360000
1096.953880	61.620000
1099.073579	60.580000
1101.190859	56.640000
1103.307632	57.340000
1105.423900	56.710000
1107.537751	56.890000
1109.653007	52.160000
1111.763939	53.680000
1113.878184	54.620000
1115.988108	50.490000
1118.099436	44.250000
1120.210259	48.820000
1122.316766	48.230000
1124.426582	54.210000
1126.532085	51.910000
1128.638990	51.560000
1130.739680	47.120000
1132.845582	54.210000
1134.947175	46.000000
1137.050171	48.270000
1139.152666	43.840000
1141.248954	50.620000
1143.350449	44.840000
1145.447642	41.350000
1147.544337	43.590000
1149.640533	42.670000
1151.736231	45.780000
1153.831432	48.240000
1155.924236	45.530000
1158.018442	44.780000
1160.106457	44.540000
1162.199671	42.620000
1164.286696	41.920000
1166.377020	40.990000
1168.463056	45.330000
1170.552391	42.310000
1172.635544	37.740000
1174.720099	43.900000
1176.806056	45.820000
1178.887731	44.970000
1180.970807	42.890000
1183.051498	41.060000
1185.131698	41.920000
1187.211406	38.850000
1189.290623	44.520000
1191.367458	42.740000
1193.441911	39.680000
1195.519657	42.160000
1197.593133	45.680000
1199.668009	43.520000
1201.738618	37.870000
1203.810628	44.270000
1205.880263	35.810000
1207.951297	38.180000
1210.021845	35.190000
1212.088131	38.740000
1214.155818	41.300000
1216.221133	36.900000
1218.287848	41.900000
1220.350307	40.680000
1222.416051	34.760000
1224.477541	38.800000
1226.540432	31.620000
1228.600955	34.650000
1230.660994	36.480000
1232.720550	36.970000
1234.777742	35.210000
1236.834452	35.110000
1238.888798	35.440000
1240.946426	35.770000
1243.001691	36.710000
1245.052715	31.370000
1247.105139	37.780000
1249.157083	38.320000
1251.206669	35.020000
1253.255776	36.260000
1255.304404	33.810000
1257.352554	34.520000
1259.400226	30.370000
1261.443667	38.080000
1263.490384	32.290000
1265.534747	33.970000
1267.578634	32.270000
1269.620169	29.190000
1271.659355	36.270000
1273.701814	33.760000
1275.740050	31.530000
1277.779685	35.380000
1279.818845	34.450000
1281.853786	31.360000
1283.890126	34.000000
1285.924122	29.910000
1287.959515	28.030000
1289.990696	32.100000
1292.023274	37.500000
1294.055381	28.620000
1296.085147	32.120000
1298.116310	32.190000
1300.143267	34.900000
1302.171621	32.390000
1304.195770	30.700000
1306.223185	35.860000
1308.246397	28.720000
1310.271007	28.010000
1312.293283	28.980000
1314.316956	30.830000
1316.338295	32.870000
1318.359168	33.820000
1320.379573	37.090000
1322.395785	29.460000
1324.413394	36.320000
1326.428675	35.780000
1328.447215	29.930000
1330.461566	33.670000
1332.473590	37.020000
1334.488873	31.630000
1336.499970	32.480000
1338.512464	42.160000
1340.520775	37.410000
1342.532341	36.460000
1344.537869	34.410000
1346.546652	38.720000
1348.551257	36.680000
1350.559116	34.630000
1352.566513	38.540000
1354.567879	33.920000
1356.570641	35.190000
1358.572944	32.100000
1360.574787	33.730000
1362.576170	34.210000
1364.575240	32.310000
1366.573851	30.760000
1368.572003	35.690000
1370.569698	34.000000
1372.563230	29.920000
1374.558157	36.060000
1376.552628	33.490000
1378.546642	33.630000
1380.538349	30.520000
1382.529600	30.110000
1384.518546	30.370000
1386.508888	25.930000
1388.498774	31.180000
1390.486356	33.660000
1392.473485	31.610000
1394.458312	33.250000
1396.444534	24.470000
1398.428455	26.670000
1400.411924	31.430000
1402.394941	30.290000
1404.375660	29.880000
1406.357773	31.590000
1408.337590	31.780000
1410.316955	33.860000
1412.292182	29.010000
1414.270647	31.380000
1416.246819	29.090000
1418.222541	37.840000
1420.197815	33.800000
1422.170797	35.600000
1424.143331	31.830000
1426.115417	34.510000
1428.087056	26.870000
1430.054566	35.400000
1432.027150	26.740000
1433.991928	35.380000
1435.961779	32.690000
1437.927506	32.000000
1439.894625	33.400000
1441.859461	35.270000
1443.820177	35.590000
1445.785961	32.750000
1447.745790	36.900000
1449.707013	37.770000
1451.669627	33.780000
1453.628127	30.190000
1455.586185	32.090000
1457.543801	38.230000
1459.500974	36.100000
1461.455872	33.660000
1463.412163	30.390000
1465.366179	29.120000
1467.319754	33.200000
1469.271057	33.420000
1471.223753	33.780000
1473.174176	35.320000
1475.124161	33.820000
1477.073707	37.500000
1479.020984	34.980000
1480.965993	34.830000
1482.912395	30.930000
1484.858359	38.910000
1486.803886	36.760000
1488.747147	38.480000
1490.689973	39.920000
1492.630534	37.950000
1494.572488	33.000000
1496.512179	36.560000
1498.451435	30.970000
1500.390257	35.040000
1502.326819	35.640000
1504.264772	33.560000
1506.200466	39.850000
1508.135727	39.850000
1510.068731	37.490000
1512.001304	33.400000
1513.933444	39.210000
1515.865152	44.230000
1517.794606	39.330000
1519.725451	35.750000
1521.655864	41.710000
1523.582205	41.720000
1525.509936	43.940000
1527.435418	38.720000
1529.360470	40.620000
1531.285093	45.580000
1533.209286	44.840000
1535.131233	42.520000
1537.054570	49.330000
1538.975660	46.790000
1540.894506	44.150000
1542.814742	51.210000
1544.732735	51.050000
1546.650300	53.960000
1548.565625	60.720000
1550.482339	61.300000
1552.394998	71.940000
1554.310861	75.500000
1556.224484	84.810000
1558.135869	90.250000
1560.048644	94.780000
1561.957369	107.430000
1563.867483	122.530000
1565.777174	142.920000
1567.686442	167.620000
1569.593476	204.900000
1571.498277	257.910000
1573.404467	319.790000
1575.308425	393.550000
1577.211962	464.110000
1579.115079	502.620000
1581.015966	495.280000
1582.918242	444.680000
1584.818290	372.450000
1586.719725	301.710000
1588.617127	246.880000
1590.514110	196.080000
1592.410675	163.120000
1594.308627	127.630000
1596.200745	116.850000
1598.096057	102.020000
1599.990951	88.480000
1601.883623	81.250000
1603.775878	76.390000
1605.665914	63.770000
1607.555534	67.370000
1609.444739	65.100000
1611.333529	55.640000
1613.220101	58.160000
1615.108061	55.860000
1616.992004	54.740000
1618.877334	52.610000
1620.762251	49.520000
1622.644954	45.720000
1624.529044	41.560000
1626.409122	43.540000
1628.290588	40.880000
1630.169843	45.390000
1632.050484	40.920000
1633.925321	42.560000
1635.805139	36.780000
1637.680953	44.800000
1639.556356	37.350000
1641.433145	36.500000
1643.304138	31.050000
1645.178312	39.000000
1647.048487	38.320000
1648.921843	40.490000
1650.792996	33.920000
1652.661948	37.040000
1654.532284	39.300000
1656.398628	40.370000
1658.266357	35.710000
1660.131887	42.240000
1661.998803	39.170000
1663.861730	40.570000
1665.726042	34.780000
1667.588158	35.070000
1669.449869	35.470000
1671.312966	38.400000
1673.173867	36.890000
1675.032576	35.790000
1676.890881	35.200000
1678.750570	34.990000
1680.604493	34.080000
1682.461589	39.890000
1684.318281	31.160000
1686.170998	35.960000
1688.026886	31.690000
1689.878800	32.350000
1691.730313	32.710000
1693.581425	29.550000
1695.432137	35.420000
1697.282447	36.320000
1699.130574	39.280000
1700.980085	39.690000
1702.823846	39.370000
1704.672558	35.570000
1706.515523	35.250000
1708.361655	36.810000
1710.203824	28.830000
1712.049159	37.530000
1713.888753	38.970000
1715.729731	37.690000
1717.572092	35.530000
1719.410497	35.490000
1721.250285	36.520000
1723.087897	33.480000
1724.925115	33.780000
1726.760159	36.630000
1728.596586	34.590000
1730.430841	36.120000
1732.264701	31.880000
1734.098167	33.770000
1735.927688	38.280000
1737.760367	36.320000
1739.589102	41.800000
1741.420994	40.140000
1743.248944	35.780000
1745.076502	40.660000
1746.903669	32.590000
1748.730444	38.090000
1750.556827	39.010000
1752.379274	37.590000
1754.204876	31.570000
1756.026543	38.650000
1757.849592	43.910000
1759.670479	36.250000
1761.490978	34.740000
1763.312857	34.280000
1765.129038	35.180000
1766.948370	37.980000
1768.763774	38.520000
1770.582330	31.250000
1772.396960	34.080000
1774.211203	33.010000
1776.025060	33.250000
1777.838530	35.390000
1779.649847	33.700000
1781.462544	36.570000
1783.274856	33.490000
1785.083249	34.170000
1786.893024	35.460000
1788.698884	34.720000
1790.507889	28.540000
1792.312981	30.650000
1794.119454	30.810000
1795.925543	36.030000
1797.727721	34.890000
1799.533044	33.010000
1801.334458	35.020000
1803.137252	37.100000
1804.936140	33.840000
1806.736409	35.010000
1808.536296	35.550000
1810.334041	29.320000
1812.131406	34.530000
1813.928391	34.240000
1815.724995	33.250000
1817.519460	32.960000
1819.315304	36.500000
1821.105493	33.730000
1822.900579	30.270000
1824.690013	36.400000
1826.482583	33.620000
1828.273018	36.920000
1830.061319	31.340000
1831.852755	34.620000
1833.638545	34.920000
1835.425715	29.840000
1837.210753	31.190000
1838.998925	30.550000
1840.783211	27.540000
1842.565367	31.560000
1844.348903	30.800000
1846.130310	34.720000
1847.913096	31.940000
1849.692001	34.650000
1851.472285	35.830000
1853.250444	39.620000
1855.029981	36.100000
1856.807392	35.240000
1858.582681	24.830000
1860.359347	33.070000
1862.133891	35.800000
1863.909813	32.350000
1865.680114	37.360000
1867.453543	35.000000
1869.224852	28.370000
1870.995790	33.290000
1872.768106	35.850000
1874.534808	33.470000
1876.304635	27.120000
1878.070599	32.700000
1879.839687	35.910000
1881.604913	37.340000
1883.369771	35.800000
1885.136006	26.930000
1886.898382	37.210000
1888.660390	33.700000
1890.422032	29.160000
1892.183307	32.630000
1893.944214	33.640000
1895.704755	40.240000
1897.463186	31.260000
1899.221251	35.240000
1900.977209	35.530000
1902.734543	37.250000
1904.491512	29.540000
1906.246374	36.050000
1907.999132	33.210000
1909.751525	38.320000
1911.505295	34.500000
1913.256961	28.210000
1915.006525	28.620000
1916.757464	37.020000
1918.508041	34.390000
1920.254778	34.310000
1922.002892	36.150000
1923.748906	28.890000
1925.496295	29.860000
1927.241587	31.730000
1928.984781	33.060000
1930.729350	31.030000
1932.471823	31.290000
1934.213937	35.750000
1935.955690	30.440000
1937.697083	35.090000
1939.436383	33.240000
1941.175324	40.200000
1942.913906	25.350000
1944.650397	38.130000
1946.386530	36.490000
1948.124037	34.850000
1949.857722	26.040000
1951.592782	33.350000
1953.325753	33.430000
1955.058368	35.630000
1956.790627	33.310000
1958.522529	35.820000
1960.252345	32.560000
1961.980076	37.230000
1963.709182	34.260000
1965.437932	35.350000
1967.164600	24.800000
1968.890913	29.160000
1970.618599	25.390000
1972.340749	33.300000
1974.066000	32.580000
1975.787444	36.910000
1977.511989	35.580000
1979.234453	38.050000
1980.953115	31.370000
1982.674875	36.860000
1984.392833	37.180000
1986.112164	32.190000
1987.827696	29.540000
1989.548048	30.430000
1991.264602	28.190000
1992.977359	29.780000
1994.693212	34.470000
1996.406993	32.600000
1998.120424	30.780000
1999.831784	35.570000
2001.544516	29.510000
2003.253458	34.740000
2004.965492	34.420000
2006.672017	37.010000
2008.381635	30.250000
2010.089185	36.030000
2011.796388	36.230000
2013.501525	34.630000
2015.206316	29.950000
2016.912478	35.020000
2018.614858	34.230000
2020.318609	32.510000
2022.020298	30.700000
2023.721641	36.050000
2025.422640	36.530000
2027.121577	34.320000
2028.821886	34.550000
2030.518419	34.890000
2032.216324	32.570000
2033.912171	39.740000
2035.611103	33.570000
2037.304549	33.650000
2038.999366	34.880000
2040.693841	30.150000
2042.384547	33.920000
2044.078337	36.770000
2045.768360	33.260000
2047.459754	30.660000
2049.149095	33.450000
2050.839806	30.750000
2052.526754	35.570000
2054.213363	35.580000
2055.901341	33.950000
2057.585560	34.470000
2059.271150	31.810000
2060.956400	30.290000
2062.639601	31.610000
2064.324173	30.670000
2066.003281	27.210000
2067.687176	39.170000
2069.365609	35.560000
2071.047120	30.300000
2072.724879	32.610000
2074.402302	30.370000
2076.081094	31.450000
2077.757844	32.990000
2079.432551	36.400000
2081.108629	33.240000
2082.782665	29.880000
2084.456367	30.930000
2086.129733	33.290000
2087.801060	31.380000
2089.472053	37.680000
2091.142712	33.980000
2092.813037	29.710000
2094.483028	31.650000
2096.150983	36.240000
2097.818605	29.150000
2099.484192	29.510000
2101.151148	28.290000
2102.816071	29.190000
2104.480662	33.310000
2106.143221	30.000000
2107.807148	31.480000
2109.469044	32.910000
2111.130610	34.360000
2112.791844	28.660000
2114.451050	35.870000
2116.109925	38.500000
2117.768471	34.420000
2119.426686	32.640000
2121.081179	33.000000
2122.738736	31.240000
2124.395963	37.610000
2126.049470	30.700000
2127.704344	37.760000
2129.355499	28.020000
2131.009717	33.480000
2132.660217	34.170000
2134.312085	28.170000
2135.958544	35.050000
2137.609758	29.040000
2139.257258	35.290000
2140.906125	32.490000
2142.552973	31.760000
2144.199496	34.640000
2145.845693	28.930000
2147.488182	29.790000
2149.133729	28.030000
2150.775569	37.190000
2152.420466	31.550000
2154.061657	31.670000
2155.702526	27.160000
2157.343070	36.270000
2158.981602	34.370000
2160.621500	34.720000
2162.257698	34.270000
2163.895262	37.650000
2165.532504	34.440000
2167.167736	33.710000
2168.802646	37.200000
2170.437235	30.080000
2172.071503	30.960000
2173.702077	28.940000
2175.335703	32.050000
2176.965637	30.330000
2178.596936	29.710000
2180.226230	34.520000
2181.855205	33.610000
2183.483860	34.660000
2185.112196	29.780000
2186.738530	33.050000
2188.364545	35.650000
2189.988558	33.890000
2191.613937	29.840000
2193.237315	30.050000
2194.862058	30.310000
2196.483120	36.370000
2198.103865	33.890000
2199.725974	34.130000
2201.346086	29.690000
2202.964202	28.110000
2204.582002	31.420000
2206.199487	32.950000
2207.816656	29.300000
2209.433510	33.850000
2211.050048	29.500000
2212.664594	34.660000
2214.277147	31.700000
2215.891064	30.820000
2217.502990	29.750000
2219.116279	31.800000
2220.727578	33.150000
2222.336887	36.790000
2223.947560	34.520000
2225.556244	30.700000
2227.164615	23.580000
2228.771000	30.030000
2230.378747	36.150000
2231.984509	35.880000
2233.589959	31.250000
2235.193424	33.610000
2236.798252	31.330000
2238.401096	34.970000
2240.001957	29.360000
2241.604181	31.790000
2243.204423	34.240000
2244.806027	32.700000
2246.403978	30.880000
2248.003292	30.670000
2249.600626	30.600000
2251.197652	29.490000
2252.796040	26.320000
2254.390779	34.390000
2255.983541	33.520000
2257.577666	31.910000
2259.173152	32.290000
2260.764993	33.840000
2262.356528	33.840000
2263.949425	34.520000
2265.537012	25.700000
2267.129295	36.130000
2268.716272	30.490000
2270.306276	31.930000
2271.890976	29.980000
2273.480370	28.730000
2275.064462	34.740000
2276.649914	31.590000
2278.233398	27.400000
2279.819907	32.950000
2281.402783	32.000000
2282.985356	29.580000
2284.567625	31.810000
2286.146264	33.600000
2287.727928	34.960000
2289.305963	33.500000
2290.887021	32.680000
2292.464452	31.445000
2294.039920	30.210000
2295.618410	31.250000
2297.193276	30.440000
2298.767841	34.080000
2300.342105	31.010000
2301.916070	27.460000
2303.489733	28.140000
2305.063097	32.620000
2306.632842	30.560000
2308.202288	35.830000
2309.774752	28.520000
2311.341942	31.520000
2312.912150	33.760000
2314.478743	33.320000
2316.046696	31.140000
2317.612693	32.250000
2319.178393	35.810000
2320.743795	33.810000
2322.307244	31.490000
2323.872052	38.480000
2325.433252	38.470000
2326.997466	46.770000
2328.556418	55.180000
2330.118384	43.400000
2331.678400	40.190000
2333.238121	39.400000
2334.795892	25.550000
2336.353368	33.950000
2337.910550	27.010000
2339.465784	34.020000
2341.020725	30.710000
2342.575371	27.040000
2344.129724	29.710000
2345.683783	32.570000
2347.237549	33.140000
2348.789370	28.850000
2350.339249	32.110000
2351.892135	30.880000
2353.439778	31.620000
2354.990430	33.060000
2356.537490	30.990000
2358.085908	29.780000
2359.634035	34.770000
2361.178573	32.110000
2362.724469	32.350000
2364.268427	32.320000
2365.813741	30.030000
2367.355472	32.110000
2368.898559	32.980000
2370.439710	26.030000
2371.980572	32.840000
2373.521145	29.080000
2375.061429	32.430000
2376.601424	31.020000
2378.137841	29.800000
2379.677259	37.270000
2381.213099	33.430000
2382.750297	32.410000
2384.283919	33.870000
2385.820541	30.230000
2387.355233	28.040000
2388.887995	34.380000
2390.420470	30.500000
2391.951017	34.130000
2393.484562	36.300000
2395.012896	34.990000
2396.542586	35.640000
2398.071991	35.380000
2399.601111	31.090000
2401.129945	33.750000
2402.653575	34.110000
2404.181840	35.930000
2405.704903	35.560000
2407.232599	34.070000
2408.753456	36.050000
2410.278945	34.450000
2411.800875	34.870000
2413.324159	38.170000
2414.845523	41.660000
2416.364967	34.820000
2417.885766	34.650000
2419.404646	40.750000
2420.923245	34.340000
2422.439926	31.220000
2423.957961	39.660000
2425.475715	35.000000
2426.989917	32.990000
2428.503840	36.820000
2430.017482	38.440000
2431.532479	40.210000
2433.043927	35.150000
2434.556729	42.860000
2436.067619	48.480000
2437.578230	47.610000
2439.086929	41.840000
2440.598614	48.210000
2442.106756	45.230000
2443.614620	42.360000
2445.122206	46.230000
2446.626251	46.550000
2448.133281	43.040000
2449.638403	44.000000
2451.143248	41.650000
2452.646186	48.680000
2454.148848	36.150000
2455.651233	40.600000
2457.151713	42.160000
2458.653546	43.810000
2460.153474	40.200000
2461.653127	47.330000
2463.152505	40.010000
2464.649980	36.970000
2466.145553	37.840000
2467.644106	43.430000
2469.139131	38.220000
2470.635508	35.710000
2472.128359	42.010000
2473.622563	34.180000
2475.116493	36.010000
2476.606899	41.610000
2478.100283	37.390000
2479.591769	39.430000
2481.081358	41.590000
2482.570675	30.900000
2484.058096	35.510000
2485.548493	35.310000
2487.035372	35.680000
2488.523602	35.140000
2490.008315	33.690000
2491.492759	35.150000
2492.978553	34.990000
2494.462456	37.300000
2495.947709	32.310000
2497.427829	36.840000
2498.910922	35.680000
2500.392124	35.250000
2501.873057	30.980000
2503.352101	37.460000
2504.830876	32.010000
2506.309383	38.990000
2507.787622	39.730000
2509.265592	34.630000
2510.740057	37.780000
2512.217492	41.430000
2513.691423	35.010000
2515.166704	34.960000
2516.641718	36.770000
2518.113231	38.730000
2519.586095	38.590000
2521.057076	41.100000
2522.529407	34.330000
2523.996624	39.160000
2525.466808	42.840000
2526.935111	32.260000
2528.403149	33.790000
2529.870922	35.080000
2531.338430	36.490000
2532.805673	36.910000
2534.269424	36.850000
2535.734525	37.290000
2537.197749	33.190000
2538.662322	39.120000
2540.123407	38.460000
2541.585841	38.690000
2543.048012	30.260000
2544.506697	32.690000
2545.969953	32.990000
2547.428114	36.090000
2548.887623	34.890000
2550.342038	39.250000
2551.801024	34.680000
2553.258138	31.400000
2554.713380	31.730000
2556.168362	33.980000
2557.621475	34.490000
2559.075935	37.100000
2560.528527	42.400000
2561.980859	37.950000
2563.431324	31.280000
2564.884744	36.630000
2566.333082	38.900000
2567.784375	36.350000
2569.233803	36.570000
2570.679758	36.320000
2572.128668	29.980000
2573.574108	37.490000
2575.020895	30.930000
2576.465819	35.520000
2577.910486	34.170000
2579.356500	35.740000
2580.799048	35.990000
2582.242943	39.430000
2583.683372	35.700000
2585.125150	38.700000
2586.565068	35.530000
2588.006333	36.490000
2589.444136	33.420000
2590.884889	39.000000
2592.320580	41.990000
2593.759220	37.610000
2595.196002	30.290000
2596.630929	37.340000
2598.068803	35.700000
2599.501620	34.540000
2600.935784	42.530000
2602.368094	37.410000
2603.801750	41.920000
2605.233553	38.250000
2606.665102	37.120000
2608.096399	39.950000
2609.525843	40.010000
2610.955035	40.000000
2612.382377	45.380000
2613.811064	36.810000
2615.239500	37.950000
2616.664488	38.940000
2618.090823	42.710000
2619.515309	47.940000
2620.941141	42.150000
2622.363529	45.580000
2623.787263	44.130000
2625.209150	47.400000
2626.630788	45.680000
2628.050580	46.260000
2629.471718	47.860000
2630.892606	48.820000
2632.310055	49.440000
2633.730445	44.060000
2635.147397	52.770000
2636.564100	54.270000
2637.980555	48.240000
2639.396762	52.660000
2640.812721	44.410000
2642.226839	53.570000
2643.640709	49.680000
2645.052741	53.570000
2646.466116	53.160000
2647.876062	53.310000
2649.288944	56.090000
2650.698397	62.680000
2652.107604	55.620000
2653.514975	64.680000
2654.925280	64.700000
2656.333750	68.200000
2657.740384	65.130000
2659.146773	67.340000
2660.551328	71.590000
2661.957227	76.930000
2663.361293	75.910000
2664.765114	82.810000
2666.168691	78.680000
2667.570437	84.400000
2668.973526	86.470000
2670.373197	88.560000
2671.774212	89.570000
2673.171811	92.220000
2674.572339	93.610000
2675.969453	95.530000
2677.367910	96.880000
2678.764540	97.540000
2680.160927	93.030000
2681.557072	98.270000
2682.951391	99.580000
2684.347053	100.060000
2685.739306	111.930000
2687.132901	105.470000
2688.524672	104.180000
2689.917786	105.410000
2691.309076	106.940000
2692.698543	109.130000
2694.087770	103.940000
2695.476758	113.410000
2696.867087	110.320000
2698.252433	109.380000
2699.640702	114.410000
2701.027151	119.890000
2702.413361	117.420000
2703.799332	124.300000
2705.181905	128.140000
2706.565820	136.990000
2707.949497	138.970000
2709.332935	141.160000
2710.712978	142.930000
2712.094363	150.300000
2713.473933	150.130000
2714.854843	151.180000
2716.233939	153.390000
2717.611221	148.100000
2718.989844	149.090000
2720.366653	146.190000
2721.743227	136.060000
2723.119565	135.600000
2724.494092	128.820000
2725.869959	125.160000
2727.242439	119.000000
2728.617835	111.410000
2729.988271	110.750000
2731.360048	104.620000
2732.731590	104.050000
2734.101324	103.620000
2735.472399	92.800000
2736.841665	91.580000
2738.210698	82.740000
2739.577925	80.210000
2740.944918	75.410000
2742.311679	75.640000
2743.678208	69.940000
2745.042931	72.620000
2746.407422	69.280000
2747.771682	64.000000
2749.135709	52.980000
2750.499505	56.150000
2751.859927	54.070000
2753.223259	53.720000
2754.581649	46.860000
2755.942949	49.110000
2757.300879	42.370000
2758.661717	44.820000
2760.020756	52.240000
2761.376426	45.370000
2762.735004	40.850000
2764.090215	34.480000
2765.445197	43.030000
2766.798382	40.760000
2768.154474	42.570000
2769.507202	40.120000
2770.859702	37.940000
2772.211973	38.690000
2773.565582	37.400000
2774.915831	38.380000
2776.264285	36.990000
2777.615644	36.850000
2778.963645	37.430000
2780.312983	36.440000
2781.660529	37.180000
2783.007849	34.790000
2784.354942	33.500000
2785.700243	31.170000
2787.045319	32.400000
2788.390169	37.350000
2789.734793	33.900000
2791.076065	34.590000
2792.418675	35.120000
2793.761059	36.290000
2795.103218	38.810000
2796.442028	34.100000
2797.783738	34.060000
2799.122099	33.520000
2800.461798	33.150000
2801.799712	32.070000
2803.135841	34.110000
2804.471746	31.470000
2805.808989	31.950000
2807.144448	33.200000
2808.479684	33.420000
2809.813137	27.800000
2811.147927	31.260000
2812.479377	31.690000
2813.813722	25.770000
2815.143169	32.780000
2816.473952	33.340000
2817.804515	36.120000
2819.133298	29.400000
2820.463417	33.980000
2821.791758	33.780000
2823.119878	30.680000
2824.446220	29.090000
2825.773899	27.930000
2827.098244	29.980000
2828.423926	33.640000
2829.747832	36.580000
2831.071518	31.480000
2832.396541	30.720000
2833.718233	25.270000
2835.039707	32.710000
2836.360962	26.320000
2837.681998	23.900000
2839.001261	26.500000
2840.321860	30.070000
2841.640688	28.560000
2842.959297	32.140000
2844.276135	31.150000
2845.592756	28.540000
2846.909160	30.160000
2848.223794	27.450000
2849.539764	28.810000
2850.852413	28.970000
2852.166397	32.790000
2853.480165	30.460000
2854.793716	32.900000
2856.105501	28.670000
2857.415519	30.300000
2858.726872	27.740000
2860.034910	26.090000
2861.344282	25.270000
2862.653440	27.340000
2863.962382	28.140000
2865.269560	31.730000
2866.574976	27.240000
2867.881725	30.100000
2869.186713	27.100000
2870.491486	27.050000
2871.794499	27.770000
2873.100392	22.050000
2874.401431	30.830000
2875.703804	26.430000
2877.004417	29.810000
2878.306364	30.040000
2879.608097	27.660000
2880.906527	26.970000
2882.206290	25.680000
2883.504296	32.640000
2884.802090	23.330000
2886.098128	26.350000
2887.395499	28.790000
2888.691114	28.290000
2889.986518	25.640000
2891.281711	30.890000
2892.573607	29.160000
2893.868379	25.830000
2895.159854	31.570000
2896.452662	31.110000
2897.745260	27.560000
2899.034564	32.340000
2900.325200	27.900000
2901.614085	27.700000
2902.904302	26.590000
2904.191228	30.890000
2905.479486	29.310000
2906.765995	34.060000
2908.052295	25.620000
2909.338388	23.190000
2910.622732	30.550000
2911.909947	30.570000
2913.192336	24.690000
2914.476057	27.800000
2915.758032	25.680000
2917.039799	27.250000
2918.319821	26.340000
2919.602714	31.530000
2920.883861	29.120000
2922.161726	30.700000
2923.442460	24.910000
2924.719913	32.260000
2925.997160	21.760000
2927.272665	27.420000
2928.551038	32.280000
2929.824597	24.250000
2931.101023	25.820000
2932.375708	28.140000
2933.648652	27.040000
2934.922928	32.500000
2936.195464	27.460000
2937.467795	27.030000
2938.736854	29.200000
2940.008778	25.300000
2941.278964	23.770000
2942.548946	30.940000
2943.818725	32.680000
2945.086768	31.530000
2946.353074	30.110000
2947.619179	29.020000
2948.886613	24.420000
2950.152312	25.110000
2951.417810	25.870000
2952.683105	28.810000
2953.945135	27.510000
2955.208495	30.820000
2956.471654	21.190000
2957.733081	26.160000
2958.995837	28.890000
2960.256861	26.870000
2961.516155	27.760000
2962.775249	30.930000
2964.034142	22.930000
2965.292835	27.120000
2966.551328	28.430000
2967.808092	28.290000
2969.064656	29.510000
2970.319492	32.330000
2971.575658	30.790000
2972.828569	20.830000
2974.082809	23.200000
2975.336849	25.250000
2976.589164	26.060000
2977.841281	26.010000
2979.091673	21.720000
2980.344920	27.660000
2981.593390	26.050000
2982.844715	23.900000
2984.092790	19.410000
2985.340668	27.120000
2986.588350	23.840000
2987.835834	28.530000
2989.081597	21.290000
2990.327164	33.250000
2991.574058	25.150000
2992.817708	27.750000
2994.062686	30.350000
2995.304420	28.190000
2996.549006	27.660000
2997.791873	22.230000
2999.031499	23.370000
3000.273975	24.830000
3001.513211	30.400000
3002.753775	25.290000
3003.992622	28.540000
3005.231275	25.440000
3006.468212	21.460000
3007.706477	27.270000
3008.943026	23.630000
3010.179382	24.450000
3011.415544	20.640000
3012.649992	20.240000
3013.884248	25.810000
3015.118310	29.790000
3016.350659	21.320000
3017.581298	26.800000
3018.814782	27.970000
3020.046554	24.470000
3021.276616	28.110000
3022.506485	30.870000
3023.734645	21.900000
3024.964132	23.230000
3026.191909	25.550000
3027.419495	24.020000
3028.648407	28.320000
3029.872578	18.230000
3031.099591	20.980000
3032.323380	29.830000
3033.548496	27.140000
3034.771905	26.580000
3035.995124	19.260000
3037.216638	29.220000
3038.440993	27.580000
3039.660613	25.940000
3040.881559	23.730000
3042.102316	25.120000
3043.321369	25.390000
3044.541747	24.820000
3045.758909	24.610000
3046.977397	23.760000
3048.194182	23.040000
3049.410780	26.870000
3050.627189	30.420000
3051.840385	23.990000
3053.056420	27.390000
3054.269242	25.570000
3055.484901	28.560000
3056.695837	24.430000
3057.908098	24.410000
3059.120172	21.980000
3060.332060	24.400000
3061.542251	20.510000
3062.752255	26.620000
3063.962073	21.190000
3065.170195	23.250000
3066.378132	19.490000
3067.584373	23.200000
3068.791939	24.010000
3069.997810	25.265000
3071.203497	26.520000
3072.408998	25.480000
3073.612806	18.420000
3074.817938	28.250000
3076.021377	25.870000
3077.223125	27.750000
3078.424688	25.380000
3079.626068	20.050000
3080.827264	24.700000
3082.026770	24.720000
3083.226093	26.310000
3084.426739	21.690000
3085.625695	16.810000
3086.821457	22.680000
3088.020048	23.670000
3089.215445	24.310000
3090.412165	26.660000
3091.605693	26.690000
3092.802049	27.900000
3093.996718	20.460000
3095.188197	28.410000
3096.384008	22.980000
3097.575124	27.910000
3098.767564	20.060000
3099.956816	27.070000
3101.148893	24.120000
3102.339287	22.920000
3103.526495	26.020000
3104.715025	28.920000
3105.904878	18.890000
3107.091547	24.920000
3108.278035	26.810000
3109.464345	23.030000
3110.651976	20.620000
3111.836425	24.220000
3113.019195	22.760000
3114.204787	24.550000
3115.388700	30.210000
3116.570934	23.490000
3117.752989	21.450000
3118.934866	21.360000
3120.116565	22.250000
3121.296587	26.630000
3122.474932	24.890000
3123.656097	26.880000
3124.834087	18.180000
3126.011900	21.640000
3127.189536	25.300000
3128.365498	22.470000
3129.541282	22.080000
3130.718388	24.710000
3131.893819	26.420000
3133.067577	17.810000
3134.239662	22.160000
3135.413069	21.070000
3136.586299	26.170000
3137.757858	22.100000
3138.930737	21.380000
3140.100449	24.440000
3141.271482	28.320000
3142.440845	28.500000
3143.608537	27.110000
3144.779045	24.740000
3145.944895	27.570000
3147.115053	30.730000
3148.280555	25.660000
3149.445882	28.100000
3150.611036	26.640000
3151.776017	27.820000
3152.942317	25.550000
3154.103965	24.060000
3155.266932	27.130000
3156.429727	26.180000
3157.592349	24.620000
3158.753305	18.820000
3159.914090	25.220000
3161.074702	26.040000
3162.233650	21.190000
3163.392427	22.170000
3164.551031	28.600000
3165.709464	22.160000
3166.867726	20.550000
3168.024325	27.150000
3169.179263	19.980000
3170.335520	20.450000
3171.490116	21.540000
3172.644542	17.730000
3173.797308	27.530000
3174.949903	27.320000
3176.102329	20.420000
3177.254585	22.730000
3178.406670	23.100000
3179.555609	25.470000
3180.707356	18.900000
3181.857444	24.100000
3183.005876	22.510000
3184.154138	25.620000
3185.302232	22.510000
3186.450157	23.030000
3187.596426	26.760000
3188.742527	29.920000
3189.886974	23.150000
3191.031253	23.260000
3192.175364	15.790000
3193.320792	18.000000
3194.463082	22.630000
3195.605205	26.550000
3196.747160	13.800000
3197.888948	21.620000
3199.030569	18.990000
3200.169055	24.450000
3201.308858	27.440000
3202.449978	20.050000
3203.587965	24.810000
3204.724302	19.660000
3205.860473	20.860000
3206.997961	22.150000
3208.133801	19.350000
3209.270958	27.250000
3210.403502	26.940000
3211.540328	25.310000
3212.672542	24.370000
3213.806073	26.060000
3214.939440	23.030000
3216.069679	21.750000
3217.202716	22.900000
3218.332627	17.860000
3219.463854	21.640000
3220.591957	19.310000
3221.722856	20.750000
3222.852111	18.060000
3223.979723	22.250000
3225.104212	19.180000
3226.232977	23.470000
3227.358620	22.330000
3228.484101	21.170000
3229.607939	26.470000
3230.734573	25.460000
3231.856609	27.470000
3232.979961	20.840000
3234.103151	27.120000
3235.226178	30.900000
3236.347567	27.810000
3237.468793	31.990000
3238.588382	25.310000
3239.707809	34.950000
3240.825598	31.010000
3241.946179	32.970000
3243.063647	33.900000
3244.180954	31.680000
3245.298101	34.260000
3246.413611	26.000000
3247.530437	27.650000
3248.644153	25.490000
3249.760658	29.220000
3250.875529	20.580000
3251.987290	27.970000
3253.098893	26.680000
3254.211811	22.770000
3255.324569	24.680000
3256.434221	24.350000
3257.545188	23.180000
3258.655996	22.550000
3259.765172	23.040000
3260.872717	24.820000
3261.981577	19.620000
3263.090279	22.700000
3264.195878	25.790000
3265.302791	21.930000
3266.408075	20.730000
3267.514673	19.160000
3268.618171	23.520000
3269.722984	18.180000
3270.827638	25.470000
3271.929195	23.620000
3273.030595	18.080000
3274.133309	21.510000
3275.235867	20.720000
3276.335328	24.430000
3277.437573	16.830000
3278.536722	20.380000
3279.634247	27.400000
3280.731616	18.480000
3281.831767	26.180000
3282.928826	23.280000
3284.025729	16.900000
3285.122477	20.690000
3286.214666	21.600000
3287.311105	21.910000
3288.405921	19.140000
3289.500583	23.240000
3290.593623	21.100000
3291.686508	18.400000
3292.777773	25.020000
3293.870351	20.300000
3294.961309	20.800000
3296.050647	24.450000
3297.139832	19.830000
3298.230330	22.470000
3299.317743	19.470000
3300.405003	21.080000
3301.493576	16.550000
3302.581996	22.030000
3303.665870	18.400000
3304.753985	22.340000
3305.839018	21.130000
3306.922436	22.470000
3308.007166	21.910000
3309.090280	24.520000
3310.174707	16.910000
3311.256055	27.420000
3312.338715	23.100000
3313.419761	21.950000
3314.500656	22.620000
3315.579937	22.910000
3316.659068	17.450000
3317.739511	16.490000
3318.816879	20.470000
3319.895559	16.800000
3320.972627	19.480000
3322.049546	21.760000
3323.124853	22.890000
3324.200011	22.460000
3325.276480	23.490000
3326.349879	24.230000
3327.423128	20.150000
3328.497689	24.580000
3329.570641	20.490000
3330.641984	20.300000
3331.714638	22.800000
3332.784226	25.720000
3333.855124	17.590000
3334.924415	19.000000
3335.995017	22.190000
3337.064012	17.230000
3338.131401	15.710000
3339.197185	22.920000
3340.267195	20.730000
3341.334142	25.880000
3342.398027	21.250000
3343.464679	24.540000
3344.529728	22.760000
3345.593173	21.300000
3346.656472	18.220000
3347.719624	27.250000
3348.782630	18.460000
3349.845490	23.950000
3350.906748	19.180000
3351.964949	26.380000
3353.027370	20.090000
3354.086736	20.400000
3355.145956	21.510000
3356.206485	17.880000
3357.262506	21.740000
3358.321290	25.450000
3359.375567	22.560000
3360.432608	23.210000
3361.488050	20.880000
3362.544802	21.760000
3363.599955	21.350000
3364.653511	26.020000
3365.705471	23.540000
3366.760192	22.660000
3367.811864	20.970000
3368.863393	22.320000
3369.916230	16.450000
3370.966020	21.320000
3372.017119	18.930000
3373.065172	19.400000
3374.115984	20.540000
3375.163752	20.150000
3376.211376	22.590000
3377.258859	13.530000
3378.304749	22.560000
3379.351947	21.300000
3380.396103	20.710000
3381.443017	23.230000
3382.488339	19.450000
3383.530620	22.080000
3384.572760	21.380000
3385.616209	20.930000
3386.659516	23.990000
3387.701233	26.350000
3388.742810	23.210000
3389.784245	18.520000
3390.824092	17.960000
3391.862350	22.450000
3392.901916	15.400000
3393.941342	16.640000
3394.979180	14.800000
3396.015431	17.380000
3397.051543	23.390000
3398.088962	24.090000
3399.123348	17.000000
3400.159041	18.040000
3401.194595	18.720000
3402.227118	22.780000
3403.262394	21.470000
3404.294639	23.160000
3405.326746	24.040000
3406.357269	14.760000
3407.389099	18.460000
3408.420791	22.410000
3409.449455	13.060000
3410.477982	21.340000
3411.507815	19.670000
3412.537511	17.880000
3413.564181	16.100000
3414.592157	18.930000
3415.617110	13.570000
3416.644812	20.950000
3417.669491	21.000000
3418.695476	16.710000
3419.719881	18.000000
3420.744150	17.320000
3421.766840	20.090000
3422.789394	21.060000
3423.813254	18.380000
3424.834094	22.670000
3425.854798	16.500000
3426.876809	19.030000
3427.895801	20.870000
3428.914657	17.280000
3429.934820	20.810000
3430.951966	21.620000
