-118.304647	5.220000
-115.635047	1.540000
-112.968382	0.500000
-110.302469	4.130000
-107.639489	5.060000
-104.975078	-1.110000
-102.313598	4.840000
-99.650689	1.620000
-96.992886	2.650000
-94.333654	4.090000
-91.675170	1.680000
-89.019611	-3.450000
-86.362622	0.230000
-83.710732	-1.620000
-81.057412	4.300000
-78.407011	3.920000
-75.755182	5.690000
-73.108442	-1.570000
-70.460274	3.810000
-67.812848	-0.370000
-65.168337	5.190000
-62.522396	1.960000
-59.881537	6.280000
-57.239249	1.340000
-54.599870	-1.730000
-51.959061	3.980000
-49.318993	3.180000
-46.683998	5.820000
-44.047573	7.990000
-41.414051	3.430000
-38.779101	5.860000
-36.149216	1.220000
-33.515739	10.140000
-30.887324	7.090000
-28.259643	7.100000
-25.630533	10.190000
-23.006480	21.470000
-20.378838	19.600000
-17.756249	20.550000
-15.134392	45.240000
-12.513265	68.370000
-9.892869	160.790000
-7.275360	549.180000
-4.656423	1978.540000
-2.040371	5675.070000
0.574952	9643.520000
3.189547	6390.650000
5.801261	755.450000
8.414403	86.440000
11.022511	42.580000
13.634201	27.630000
16.240860	23.260000
18.848947	17.520000
21.456310	11.500000
24.058648	15.850000
26.664564	12.240000
29.265458	7.660000
31.867780	4.420000
34.465085	6.940000
37.065965	3.710000
39.661830	6.600000
42.259124	6.260000
44.855698	0.850000
47.447263	-0.190000
50.040256	3.320000
52.630388	0.000000
55.221947	-2.180000
57.810648	3.290000
60.400775	4.530000
62.985903	-1.530000
65.572459	6.180000
68.158301	-1.680000
70.741289	0.740000
73.325703	1.730000
75.902989	0.240000
78.483841	7.920000
81.061844	2.710000
83.639137	9.770000
86.217856	-2.900000
88.791593	-2.120000
91.366758	5.920000
93.939079	2.640000
96.510692	2.900000
99.079465	0.950000
101.649665	0.400000
104.217026	-1.360000
106.785814	-1.500000
109.351765	6.540000
111.914881	2.290000
114.481553	6.040000
117.039004	-1.830000
119.602140	5.540000
122.160316	7.130000
124.722047	9.800000
127.278821	15.210000
129.837021	24.420000
132.390269	32.420000
134.942819	45.070000
137.498919	62.120000
140.050071	75.080000
142.600526	87.080000
145.150283	92.480000
147.697221	106.650000
150.243464	110.090000
152.791132	110.880000
155.338104	114.520000
157.880141	109.420000
160.421484	104.510000
162.962134	111.630000
165.504210	106.270000
168.043474	106.650000
170.579930	104.110000
173.115694	107.950000
175.652884	108.320000
178.189383	104.430000
180.723076	103.980000
183.253965	103.770000
185.784166	110.260000
188.315793	102.020000
190.844618	105.090000
193.370644	108.080000
195.895984	99.130000
198.422749	104.390000
200.946718	106.990000
203.470002	104.030000
205.992601	99.960000
208.512407	104.500000
211.031529	103.720000
213.549970	106.230000
216.069834	102.440000
218.582697	102.050000
221.099091	105.400000
223.614803	106.980000
226.125625	100.870000
228.637872	104.340000
231.147337	106.280000
233.656122	104.540000
236.164230	104.360000
238.673762	103.590000
241.178413	107.920000
243.682388	109.400000
246.187787	113.110000
248.688311	110.960000
251.192358	110.440000
253.689435	107.660000
256.190035	112.200000
258.687863	111.500000
261.185018	119.980000
263.681500	115.550000
266.173119	111.840000
268.668258	116.270000
271.160630	112.930000
273.652332	120.310000
276.141271	117.860000
278.631633	113.720000
281.119234	118.470000
283.604075	117.980000
286.092431	119.890000
288.573847	121.110000
291.058777	119.850000
293.538862	118.830000
296.022459	124.330000
298.501213	123.820000
300.981390	114.090000
303.458816	119.900000
305.935578	131.210000
308.411676	133.070000
310.885027	129.370000
313.357715	137.160000
315.829742	147.530000
318.301108	162.170000
320.769729	171.070000
323.237692	171.990000
325.707076	154.030000
328.171638	143.030000
330.639704	143.640000
333.102950	136.650000
335.565538	131.010000
338.027470	133.040000
340.488745	132.480000
342.947286	128.580000
345.407249	135.120000
347.864479	133.300000
350.321055	132.870000
352.776977	136.250000
355.230169	134.610000
357.684784	138.690000
360.134597	129.560000
362.587906	135.700000
365.036416	134.240000
367.484276	130.190000
369.933558	134.650000
372.378046	138.000000
374.823956	129.640000
377.269216	136.780000
379.711758	135.590000
382.153652	131.700000
384.594899	134.160000
387.033430	139.760000
389.473382	128.610000
391.910622	134.200000
394.345149	128.960000
396.783164	136.010000
399.216402	133.470000
401.651061	130.820000
404.080948	134.860000
406.514320	131.230000
408.942922	137.920000
411.370882	130.780000
413.800264	126.860000
416.224880	130.350000
418.650918	134.180000
421.076315	136.150000
423.501072	138.500000
425.921071	134.100000
428.342490	135.580000
430.761214	137.670000
433.181358	137.000000
435.598807	140.320000
438.017676	136.690000
440.433852	133.950000
442.845280	136.540000
445.260185	139.660000
447.672401	134.690000
450.083982	134.740000
452.494929	130.500000
454.903190	135.300000
457.310818	133.660000
459.717814	126.060000
462.124179	126.930000
464.527861	128.540000
466.930913	132.060000
469.333335	126.170000
471.735127	121.810000
474.134241	128.710000
476.534775	126.040000
478.934680	126.820000
481.329863	124.340000
483.728512	122.530000
486.122440	126.870000
488.515743	121.660000
490.908421	124.070000
493.300473	120.210000
495.693943	109.150000
498.082701	112.090000
500.468793	106.330000
502.856305	99.940000
505.243194	97.170000
507.627419	89.370000
510.013062	89.230000
512.396044	89.820000
514.776365	77.820000
517.158105	78.040000
519.537186	73.090000
521.917686	76.180000
524.295528	69.440000
526.670714	71.550000
529.045284	71.620000
531.421271	74.550000
533.794606	69.680000
536.169358	64.590000
538.539425	71.080000
540.908876	70.740000
543.279745	69.470000
545.645933	60.720000
548.013540	72.340000
550.378502	64.400000
552.742850	63.410000
555.106585	67.150000
557.471738	63.810000
559.832219	67.800000
562.194118	60.460000
564.553376	64.510000
566.909996	64.700000
569.270062	64.510000
571.623436	67.560000
573.980255	65.860000
576.334439	58.450000
578.688014	57.480000
581.040982	57.950000
583.391317	58.350000
585.743070	59.260000
588.088146	55.510000
590.438685	54.380000
592.782552	50.760000
595.131880	62.090000
597.476559	57.880000
599.818614	61.070000
602.162086	58.930000
604.502935	60.340000
606.843181	58.710000
609.180808	58.580000
611.521869	55.210000
613.858292	57.860000
616.196132	56.120000
618.531355	53.470000
620.863962	55.190000
623.197985	53.260000
625.529394	54.360000
627.860205	50.730000
630.190419	53.820000
632.520034	52.120000
634.845026	55.920000
637.175460	56.090000
639.501273	46.480000
641.824478	54.620000
644.149100	56.200000
646.471116	53.230000
648.792538	49.680000
651.111358	51.800000
653.431593	47.700000
655.751235	45.930000
658.068276	50.100000
660.384725	48.840000
662.698576	50.630000
665.013843	46.000000
667.326513	48.040000
669.640598	47.770000
671.950083	43.450000
674.260984	46.070000
676.569292	51.810000
678.877012	46.910000
681.186146	51.760000
683.490688	40.330000
685.794644	45.590000
688.098014	41.700000
690.402798	42.600000
692.702995	44.110000
695.004608	46.450000
697.305635	40.940000
699.602081	42.320000
701.899942	42.450000
704.197219	51.630000
706.493913	39.840000
708.786031	40.280000
711.081560	40.250000
713.372515	45.440000
715.664885	40.310000
717.954680	41.060000
720.243894	42.350000
722.532529	44.590000
724.818591	44.260000
727.106068	49.000000
729.390973	43.790000
731.675301	42.110000
733.957060	43.330000
736.240233	46.740000
738.522829	43.970000
740.800869	44.330000
743.080324	39.250000
745.359202	49.230000
747.637506	42.610000
749.911260	41.790000
752.186427	47.530000
754.461021	45.510000
756.733056	38.450000
759.006504	47.010000
761.277394	46.470000
763.545728	44.660000
765.815475	45.860000
768.082667	51.070000
770.349290	41.180000
772.615342	51.460000
774.878843	49.530000
777.143757	53.170000
779.408101	54.550000
781.667916	50.750000
783.929143	50.740000
786.189803	50.910000
788.447917	55.530000
790.703486	50.480000
792.962446	48.840000
795.214906	51.700000
797.472734	45.590000
799.726043	51.760000
801.976812	49.290000
804.228993	48.980000
806.478635	51.850000
808.729690	51.160000
810.976233	46.270000
813.224188	45.990000
815.469609	49.420000
817.716441	44.920000
819.962712	51.390000
822.204478	46.460000
824.449628	45.550000
826.688305	49.110000
828.930364	46.480000
831.167925	38.960000
833.406898	42.860000
835.643344	42.400000
837.881201	42.730000
840.116533	46.620000
842.349342	44.700000
844.583562	43.550000
846.815259	38.880000
849.046402	41.500000
851.276990	43.860000
853.507024	36.630000
855.736504	37.740000
857.961502	43.750000
860.189875	42.840000
862.413768	43.680000
864.639073	42.850000
866.859902	42.730000
869.084103	41.830000
871.303831	37.860000
873.524969	44.180000
875.745557	47.160000
877.963636	43.170000
880.183124	43.950000
882.398146	37.140000
884.612620	40.700000
886.826547	45.580000
889.039927	45.620000
891.252759	40.670000
893.465045	36.600000
895.674828	37.770000
897.884066	37.600000
900.092759	38.040000
902.298952	47.450000
904.506556	38.390000
906.711661	39.030000
908.916223	45.440000
911.118290	42.680000
913.321766	38.770000
915.522748	40.670000
917.723188	39.840000
919.925037	40.010000
922.120495	39.200000
924.319312	44.190000
926.513690	39.780000
928.711426	40.150000
930.904726	42.670000
933.099435	43.390000
935.291658	40.860000
937.483342	43.260000
939.674489	40.620000
941.863153	45.960000
944.051281	43.040000
946.236928	47.690000
948.425927	39.970000
950.610503	47.100000
952.794544	43.500000
954.981935	45.270000
957.161022	45.800000
959.343460	49.510000
961.525364	43.950000
963.704793	48.990000
965.881750	48.450000
968.060115	46.380000
970.239887	49.660000
972.413310	54.070000
974.590079	51.460000
976.762441	53.510000
978.936211	51.430000
981.105577	52.210000
983.278287	56.640000
985.448532	63.270000
987.618247	57.160000
989.787435	60.560000
991.952225	60.230000
994.120356	58.010000
996.284092	57.900000
998.449236	62.920000
1000.611920	66.700000
1002.774079	60.220000
1004.933781	66.070000
1007.092958	63.130000
1009.253542	61.150000
1011.411671	60.810000
1013.569277	65.030000
1015.726359	61.890000
1017.882917	63.500000
1020.035096	67.280000
1022.188682	65.210000
1024.341746	69.230000
1026.492361	72.350000
1028.644383	71.650000
1030.792031	70.180000
1032.943011	72.740000
1035.089620	73.020000
1037.235710	74.860000
1039.381282	77.250000
1041.528259	76.170000
1043.668947	74.390000
1045.812965	75.570000
1047.954542	77.520000
1050.095603	73.580000
1052.238068	77.200000
1054.374253	71.850000
1056.513765	76.740000
1058.648922	83.780000
1060.787403	79.510000
1062.921530	71.540000
1065.055144	74.440000
1067.190162	75.690000
1069.320832	78.370000
1071.452906	74.090000
1073.582551	70.820000
1075.711684	71.880000
1077.840305	77.880000
1079.968415	70.750000
1082.094099	69.200000
1084.219273	73.520000
1086.345851	62.860000
1088.468091	72.790000
1090.591736	61.060000
1092.711046	66.080000
1094.835585	59.720000
1096.953880	62.990000
1099.073579	63.760000
1101.190859	62.050000
1103.307632	56.430000
1105.423900	58.340000
1107.537751	54.750000
1109.653007	53.180000
1111.763939	61.310000
1113.878184	58.560000
1115.988108	54.120000
1118.099436	56.870000
1120.210259	57.440000
1122.316766	57.570000
1124.426582	55.020000
1126.532085	58.570000
1128.638990	53.110000
1130.739680	52.820000
1132.845582	47.960000
1134.947175	52.570000
1137.050171	54.350000
1139.152666	51.600000
1141.248954	48.400000
1143.350449	48.670000
1145.447642	44.550000
1147.544337	47.570000
1149.640533	44.650000
1151.736231	45.560000
1153.831432	46.790000
1155.924236	43.210000
1158.018442	46.860000
1160.106457	48.090000
1162.199671	49.590000
1164.286696	44.520000
1166.377020	46.190000
1168.463056	48.130000
1170.552391	50.120000
1172.635544	47.630000
1174.720099	47.610000
1176.806056	47.840000
1178.887731	48.360000
1180.970807	40.420000
1183.051498	44.100000
1185.131698	43.620000
1187.211406	49.520000
1189.290623	45.980000
1191.367458	44.500000
1193.441911	46.590000
1195.519657	43.610000
1197.593133	49.330000
1199.668009	39.010000
1201.738618	46.940000
1203.810628	44.830000
1205.880263	41.480000
1207.951297	43.030000
1210.021845	40.560000
1212.088131	39.610000
1214.155818	45.860000
1216.221133	44.550000
1218.287848	41.160000
1220.350307	44.490000
1222.416051	35.200000
1224.477541	40.900000
1226.540432	42.450000
1228.600955	39.270000
1230.660994	42.020000
1232.720550	38.490000
1234.777742	41.740000
1236.834452	35.230000
1238.888798	39.930000
1240.946426	39.480000
1243.001691	35.730000
1245.052715	34.930000
1247.105139	40.570000
1249.157083	33.470000
1251.206669	34.770000
1253.255776	33.960000
1255.304404	32.310000
1257.352554	38.140000
1259.400226	35.030000
1261.443667	29.920000
1263.490384	39.090000
1265.534747	37.920000
1267.578634	38.870000
1269.620169	39.130000
1271.659355	35.200000
1273.701814	31.400000
1275.740050	34.200000
1277.779685	32.650000
1279.818845	36.510000
1281.853786	36.980000
1283.890126	33.920000
1285.924122	35.330000
1287.959515	34.740000
1289.990696	33.170000
1292.023274	37.970000
1294.055381	31.590000
1296.085147	34.920000
1298.116310	30.720000
1300.143267	36.120000
1302.171621	33.160000
1304.195770	30.950000
1306.223185	35.680000
1308.246397	41.230000
1310.271007	32.060000
1312.293283	32.810000
1314.316956	34.190000
1316.338295	33.380000
1318.359168	34.700000
1320.379573	33.670000
1322.395785	36.780000
1324.413394	33.350000
1326.428675	35.850000
1328.447215	34.670000
1330.461566	29.590000
1332.473590	37.660000
1334.488873	33.540000
1336.499970	35.060000
1338.512464	33.620000
1340.520775	45.630000
1342.532341	35.920000
1344.537869	35.990000
1346.546652	36.430000
1348.551257	36.010000
1350.559116	34.050000
1352.566513	31.170000
1354.567879	33.400000
1356.570641	34.670000
1358.572944	36.970000
1360.574787	36.780000
1362.576170	34.260000
1364.575240	35.020000
1366.573851	34.450000
1368.572003	36.670000
1370.569698	32.390000
1372.563230	35.230000
1374.558157	36.110000
1376.552628	32.730000
1378.546642	32.000000
1380.538349	36.090000
1382.529600	33.150000
1384.518546	35.370000
1386.508888	34.390000
1388.498774	36.370000
1390.486356	35.430000
1392.473485	31.610000
1394.458312	31.830000
1396.444534	38.020000
1398.428455	32.380000
1400.411924	39.040000
1402.394941	33.350000
1404.375660	35.760000
1406.357773	33.700000
1408.337590	37.830000
1410.316955	35.360000
1412.292182	34.050000
1414.270647	30.160000
1416.246819	39.860000
1418.222541	35.410000
1420.197815	39.420000
1422.170797	31.480000
1424.143331	31.900000
1426.115417	27.770000
1428.087056	42.710000
1430.054566	31.350000
1432.027150	41.300000
1433.991928	38.870000
1435.961779	36.640000
1437.927506	34.450000
1439.894625	38.090000
1441.859461	38.600000
1443.820177	41.110000
1445.785961	37.340000
1447.745790	31.400000
1449.707013	38.530000
1451.669627	39.620000
1453.628127	37.970000
1455.586185	35.990000
1457.543801	36.660000
1459.500974	37.420000
1461.455872	33.070000
1463.412163	34.100000
1465.366179	37.670000
1467.319754	34.350000
1469.271057	36.360000
1471.223753	31.750000
1473.174176	26.420000
1475.124161	37.490000
1477.073707	37.370000
1479.020984	35.870000
1480.965993	39.020000
1482.912395	31.300000
1484.858359	32.730000
1486.803886	35.900000
1488.747147	40.600000
1490.689973	43.000000
1492.630534	38.010000
1494.572488	40.720000
1496.512179	45.880000
1498.451435	45.300000
1500.390257	42.790000
1502.326819	41.010000
1504.264772	38.150000
1506.200466	44.320000
1508.135727	42.040000
1510.068731	45.580000
1512.001304	38.730000
1513.933444	42.060000
1515.865152	40.340000
1517.794606	38.790000
1519.725451	43.630000
1521.655864	40.750000
1523.582205	41.680000
1525.509936	45.130000
1527.435418	39.290000
1529.360470	45.200000
1531.285093	48.450000
1533.209286	43.330000
1535.131233	44.880000
1537.054570	48.720000
1538.975660	52.850000
1540.894506	61.430000
1542.814742	58.720000
1544.732735	53.530000
1546.650300	59.440000
1548.565625	66.090000
1550.482339	71.720000
1552.394998	73.770000
1554.310861	86.400000
1556.224484	88.840000
1558.135869	87.730000
1560.048644	100.600000
1561.957369	107.820000
1563.867483	130.770000
1565.777174	148.920000
1567.686442	177.300000
1569.593476	215.430000
1571.498277	272.860000
1573.404467	342.990000
1575.308425	411.160000
1577.211962	483.950000
1579.115079	536.830000
1581.015966	534.450000
1582.918242	478.150000
1584.818290	388.570000
1586.719725	313.620000
1588.617127	251.060000
1590.514110	197.590000
1592.410675	163.960000
1594.308627	136.350000
1596.200745	112.700000
1598.096057	105.820000
1599.990951	88.470000
1601.883623	85.680000
1603.775878	80.590000
1605.665914	74.680000
1607.555534	69.230000
1609.444739	66.740000
1611.333529	61.550000
1613.220101	60.540000
1615.108061	60.460000
1616.992004	50.270000
1618.877334	54.160000
1620.762251	50.100000
1622.644954	54.060000
1624.529044	52.760000
1626.409122	46.470000
1628.290588	52.390000
1630.169843	41.240000
1632.050484	43.080000
1633.925321	42.030000
1635.805139	38.210000
1637.680953	39.160000
1639.556356	41.640000
1641.433145	43.090000
1643.304138	42.900000
1645.178312	39.020000
1647.048487	42.630000
1648.921843	38.400000
1650.792996	43.010000
1652.661948	37.140000
1654.532284	38.730000
1656.398628	41.510000
1658.266357	40.960000
1660.131887	37.330000
1661.998803	40.480000
1663.861730	40.680000
1665.726042	34.780000
1667.588158	41.900000
1669.449869	40.530000
1671.312966	37.150000
1673.173867	41.770000
1675.032576	36.030000
1676.890881	37.450000
1678.750570	36.430000
1680.604493	37.230000
1682.461589	37.410000
1684.318281	37.660000
1686.170998	35.030000
1688.026886	33.320000
1689.878800	39.850000
1691.730313	37.490000
1693.581425	41.640000
1695.432137	33.790000
1697.282447	37.770000
1699.130574	38.420000
1700.980085	34.790000
1702.823846	32.230000
1704.672558	30.490000
1706.515523	38.530000
1708.361655	36.350000
1710.203824	36.410000
1712.049159	35.140000
1713.888753	39.930000
1715.729731	36.030000
1717.572092	34.240000
1719.410497	37.090000
1721.250285	41.820000
1723.087897	38.250000
1724.925115	34.270000
1726.760159	42.450000
1728.596586	35.790000
1730.430841	38.640000
1732.264701	34.140000
1734.098167	34.330000
1735.927688	37.460000
1737.760367	42.070000
1739.589102	37.480000
1741.420994	41.490000
1743.248944	39.840000
1745.076502	36.460000
1746.903669	31.520000
1748.730444	33.710000
1750.556827	37.380000
1752.379274	39.620000
1754.204876	40.620000
1756.026543	39.350000
1757.849592	40.160000
1759.670479	37.890000
1761.490978	33.770000
1763.312857	34.200000
1765.129038	36.140000
1766.948370	37.180000
1768.763774	37.720000
1770.582330	36.060000
1772.396960	38.610000
1774.211203	40.950000
1776.025060	34.520000
1777.838530	37.900000
1779.649847	35.910000
1781.462544	33.940000
1783.274856	40.730000
1785.083249	36.770000
1786.893024	37.930000
1788.698884	36.300000
1790.507889	40.900000
1792.312981	34.750000
1794.119454	39.330000
1795.925543	36.760000
1797.727721	38.200000
1799.533044	29.960000
1801.334458	37.520000
1803.137252	35.990000
1804.936140	31.830000
1806.736409	37.940000
1808.536296	36.420000
1810.334041	36.090000
1812.131406	36.290000
1813.928391	33.360000
1815.724995	39.940000
1817.519460	39.060000
1819.315304	36.960000
1821.105493	32.790000
1822.900579	42.270000
1824.690013	34.870000
1826.482583	36.430000
1828.273018	33.840000
1830.061319	36.810000
1831.852755	37.250000
1833.638545	36.510000
1835.425715	33.870000
1837.210753	36.890000
1838.998925	38.020000
1840.783211	37.580000
1842.565367	39.500000
1844.348903	35.770000
1846.130310	38.810000
1847.913096	38.690000
1849.692001	32.530000
1851.472285	42.270000
1853.250444	36.710000
1855.029981	36.770000
1856.807392	35.660000
1858.582681	41.440000
1860.359347	38.280000
1862.133891	35.190000
1863.909813	33.500000
1865.680114	40.360000
1867.453543	38.080000
1869.224852	35.880000
1870.995790	38.110000
1872.768106	36.370000
1874.534808	35.830000
1876.304635	41.580000
1878.070599	36.460000
1879.839687	39.750000
1881.604913	32.640000
1883.369771	39.310000
1885.136006	34.760000
1886.898382	37.070000
1888.660390	37.510000
1890.422032	34.940000
1892.183307	39.410000
1893.944214	32.380000
1895.704755	36.940000
1897.463186	28.630000
1899.221251	30.500000
1900.977209	35.730000
1902.734543	39.570000
1904.491512	36.960000
1906.246374	36.540000
1907.999132	36.200000
1909.751525	38.080000
1911.505295	30.230000
1913.256961	42.180000
1915.006525	33.450000
1916.757464	34.460000
1918.508041	37.060000
1920.254778	36.530000
1922.002892	33.030000
1923.748906	37.400000
1925.496295	36.650000
1927.241587	32.990000
1928.984781	39.960000
1930.729350	37.310000
1932.471823	36.550000
1934.213937	35.050000
1935.955690	32.660000
1937.697083	36.970000
1939.436383	31.630000
1941.175324	33.290000
1942.913906	32.640000
1944.650397	35.660000
1946.386530	34.985000
1948.124037	34.310000
1949.857722	35.830000
1951.592782	35.490000
1953.325753	39.950000
1955.058368	35.380000
1956.790627	30.260000
1958.522529	35.610000
1960.252345	38.350000
1961.980076	35.630000
1963.709182	36.760000
1965.437932	36.050000
1967.164600	38.600000
1968.890913	38.530000
1970.618599	37.760000
1972.340749	34.080000
1974.066000	36.690000
1975.787444	37.150000
1977.511989	39.120000
1979.234453	39.240000
1980.953115	33.950000
1982.674875	36.740000
1984.392833	41.000000
1986.112164	36.200000
1987.827696	36.210000
1989.548048	36.870000
1991.264602	40.240000
1992.977359	35.500000
1994.693212	37.090000
1996.406993	30.390000
1998.120424	35.750000
1999.831784	34.140000
2001.544516	33.190000
2003.253458	36.430000
2004.965492	37.890000
2006.672017	34.340000
2008.381635	39.210000
2010.089185	42.890000
2011.796388	40.100000
2013.501525	33.420000
2015.206316	39.820000
2016.912478	34.320000
2018.614858	40.740000
2020.318609	35.810000
2022.020298	37.080000
2023.721641	35.540000
2025.422640	40.830000
2027.121577	36.800000
2028.821886	38.900000
2030.518419	35.180000
2032.216324	42.140000
2033.912171	37.480000
2035.611103	34.250000
2037.304549	37.940000
2038.999366	32.820000
2040.693841	34.890000
2042.384547	39.430000
2044.078337	36.480000
2045.768360	35.100000
2047.459754	37.570000
2049.149095	38.560000
2050.839806	37.900000
2052.526754	34.370000
2054.213363	33.070000
2055.901341	34.600000
2057.585560	35.160000
2059.271150	33.460000
2060.956400	34.410000
2062.639601	33.840000
2064.324173	33.410000
2066.003281	32.620000
2067.687176	36.680000
2069.365609	30.540000
2071.047120	35.790000
2072.724879	32.370000
2074.402302	30.550000
2076.081094	35.100000
2077.757844	34.950000
2079.432551	34.450000
2081.108629	33.930000
2082.782665	33.450000
2084.456367	37.890000
2086.129733	36.660000
2087.801060	34.710000
2089.472053	38.000000
2091.142712	32.440000
2092.813037	29.980000
2094.483028	35.340000
2096.150983	38.390000
2097.818605	41.000000
2099.484192	39.140000
2101.151148	36.680000
2102.816071	32.310000
2104.480662	35.070000
2106.143221	33.830000
2107.807148	34.320000
2109.469044	34.930000
2111.130610	35.960000
2112.791844	37.130000
2114.451050	38.010000
2116.109925	38.440000
2117.768471	33.080000
2119.426686	35.360000
2121.081179	32.910000
2122.738736	36.150000
2124.395963	32.190000
2126.049470	36.490000
2127.704344	32.050000
2129.355499	34.330000
2131.009717	37.070000
2132.660217	36.110000
2134.312085	33.210000
2135.958544	40.080000
2137.609758	32.860000
2139.257258	43.710000
2140.906125	33.860000
2142.552973	40.550000
2144.199496	36.580000
2145.845693	36.660000
2147.488182	36.800000
2149.133729	37.930000
2150.775569	34.410000
2152.420466	37.300000
2154.061657	29.460000
2155.702526	37.390000
2157.343070	33.700000
2158.981602	39.510000
2160.621500	36.940000
2162.257698	33.440000
2163.895262	37.310000
2165.532504	37.700000
2167.167736	37.050000
2168.802646	42.960000
2170.437235	36.250000
2172.071503	38.110000
2173.702077	37.920000
2175.335703	35.420000
2176.965637	39.850000
2178.596936	34.470000
2180.226230	39.160000
2181.855205	36.260000
2183.483860	34.000000
2185.112196	35.710000
2186.738530	30.220000
2188.364545	38.800000
2189.988558	35.020000
2191.613937	34.440000
2193.237315	38.450000
2194.862058	37.910000
2196.483120	38.060000
2198.103865	36.160000
2199.725974	33.490000
2201.346086	41.260000
2202.964202	28.000000
2204.582002	33.310000
2206.199487	37.300000
2207.816656	36.500000
2209.433510	38.170000
2211.050048	29.930000
2212.664594	37.990000
2214.277147	34.470000
2215.891064	31.830000
2217.502990	39.410000
2219.116279	33.580000
2220.727578	34.690000
2222.336887	37.410000
2223.947560	35.860000
2225.556244	37.140000
2227.164615	33.160000
2228.771000	30.380000
2230.378747	34.590000
2231.984509	31.550000
2233.589959	39.870000
2235.193424	29.610000
2236.798252	29.920000
2238.401096	32.870000
2240.001957	34.980000
2241.604181	34.230000
2243.204423	31.080000
2244.806027	33.190000
2246.403978	33.770000
2248.003292	37.180000
2249.600626	35.280000
2251.197652	33.510000
2252.796040	32.800000
2254.390779	31.140000
2255.983541	33.960000
2257.577666	32.850000
2259.173152	35.780000
2260.764993	37.380000
2262.356528	35.870000
2263.949425	37.310000
2265.537012	34.130000
2267.129295	32.040000
2268.716272	34.850000
2270.306276	34.030000
2271.890976	34.130000
2273.480370	36.870000
2275.064462	31.430000
2276.649914	35.020000
2278.233398	36.650000
2279.819907	38.200000
2281.402783	30.980000
2282.985356	33.390000
2284.567625	35.450000
2286.146264	32.570000
2287.727928	35.480000
2289.305963	35.910000
2290.887021	35.390000
2292.464452	36.785000
2294.039920	38.180000
2295.618410	33.870000
2297.193276	35.620000
2298.767841	34.000000
2300.342105	25.990000
2301.916070	33.580000
2303.489733	35.340000
2305.063097	40.350000
2306.632842	40.010000
2308.202288	37.010000
2309.774752	35.400000
2311.341942	32.600000
2312.912150	34.480000
2314.478743	37.440000
2316.046696	37.620000
2317.612693	34.370000
2319.178393	35.010000
2320.743795	37.740000
2322.307244	40.430000
2323.872052	41.790000
2325.433252	45.140000
2326.997466	48.670000
2328.556418	51.230000
2330.118384	47.210000
2331.678400	35.220000
2333.238121	38.870000
2334.795892	30.600000
2336.353368	37.070000
2337.910550	32.660000
2339.465784	31.750000
2341.020725	32.470000
2342.575371	33.340000
2344.129724	40.130000
2345.683783	38.280000
2347.237549	36.850000
2348.789370	35.910000
2350.339249	37.380000
2351.892135	37.520000
2353.439778	40.510000
2354.990430	31.730000
2356.537490	40.060000
2358.085908	29.250000
2359.634035	31.000000
2361.178573	35.050000
2362.724469	34.940000
2364.268427	33.720000
2365.813741	32.950000
2367.355472	36.410000
2368.898559	37.530000
2370.439710	35.080000
2371.980572	36.310000
2373.521145	38.680000
2375.061429	31.740000
2376.601424	36.750000
2378.137841	33.560000
2379.677259	36.840000
2381.213099	37.570000
2382.750297	40.630000
2384.283919	32.820000
2385.820541	35.100000
2387.355233	38.720000
2388.887995	38.700000
2390.420470	34.120000
2391.951017	36.190000
2393.484562	35.370000
2395.012896	32.800000
2396.542586	37.170000
2398.071991	36.050000
2399.601111	35.020000
2401.129945	41.060000
2402.653575	33.610000
2404.181840	33.500000
2405.704903	38.760000
2407.232599	37.060000
2408.753456	40.180000
2410.278945	35.750000
2411.800875	38.620000
2413.324159	38.770000
2414.845523	38.320000
2416.364967	40.860000
2417.885766	36.900000
2419.404646	42.100000
2420.923245	40.090000
2422.439926	41.270000
2423.957961	39.780000
2425.475715	36.320000
2426.989917	41.850000
2428.503840	40.250000
2430.017482	39.020000
2431.532479	40.390000
2433.043927	46.560000
2434.556729	42.840000
2436.067619	46.740000
2437.578230	43.130000
2439.086929	47.680000
2440.598614	47.920000
2442.106756	41.960000
2443.614620	45.960000
2445.122206	47.240000
2446.626251	45.120000
2448.133281	48.350000
2449.638403	51.450000
2451.143248	43.430000
2452.646186	43.630000
2454.148848	48.490000
2455.651233	45.980000
2457.151713	44.160000
2458.653546	41.940000
2460.153474	46.620000
2461.653127	45.960000
2463.152505	43.260000
2464.649980	41.310000
2466.145553	44.870000
2467.644106	48.630000
2469.139131	41.630000
2470.635508	38.480000
2472.128359	41.120000
2473.622563	36.890000
2475.116493	41.190000
2476.606899	37.790000
2478.100283	43.880000
2479.591769	35.710000
2481.081358	36.830000
2482.570675	37.980000
2484.058096	43.190000
2485.548493	41.590000
2487.035372	39.760000
2488.523602	39.940000
2490.008315	42.070000
2491.492759	34.040000
2492.978553	29.100000
2494.462456	41.890000
2495.947709	39.040000
2497.427829	38.460000
2498.910922	35.710000
2500.392124	33.100000
2501.873057	35.260000
2503.352101	39.840000
2504.830876	43.010000
2506.309383	33.310000
2507.787622	40.450000
2509.265592	36.460000
2510.740057	39.110000
2512.217492	38.530000
2513.691423	40.940000
2515.166704	36.110000
2516.641718	39.900000
2518.113231	42.090000
2519.586095	36.380000
2521.057076	28.820000
2522.529407	37.740000
2523.996624	39.030000
2525.466808	39.000000
2526.935111	35.850000
2528.403149	38.560000
2529.870922	32.130000
2531.338430	38.980000
2532.805673	40.970000
2534.269424	34.460000
2535.734525	40.780000
2537.197749	39.850000
2538.662322	34.280000
2540.123407	38.470000
2541.585841	38.980000
2543.048012	37.340000
2544.506697	37.630000
2545.969953	40.440000
2547.428114	35.430000
2548.887623	39.130000
2550.342038	44.780000
2551.801024	37.990000
2553.258138	42.050000
2554.713380	38.930000
2556.168362	42.060000
2557.621475	43.260000
2559.075935	36.040000
2560.528527	39.190000
2561.980859	40.580000
2563.431324	37.290000
2564.884744	35.620000
2566.333082	40.310000
2567.784375	40.750000
2569.233803	38.920000
2570.679758	39.450000
2572.128668	42.670000
2573.574108	43.880000
2575.020895	36.880000
2576.465819	41.470000
2577.910486	41.140000
2579.356500	39.400000
2580.799048	41.920000
2582.242943	38.650000
2583.683372	41.400000
2585.125150	40.430000
2586.565068	39.410000
2588.006333	38.580000
2589.444136	36.070000
2590.884889	42.220000
2592.320580	40.370000
2593.759220	35.890000
2595.196002	35.450000
2596.630929	38.780000
2598.068803	43.070000
2599.501620	39.710000
2600.935784	42.920000
2602.368094	40.550000
2603.801750	42.920000
2605.233553	40.030000
2606.665102	46.030000
2608.096399	38.690000
2609.525843	48.880000
2610.955035	42.870000
2612.382377	46.850000
2613.811064	41.980000
2615.239500	44.360000
2616.664488	46.080000
2618.090823	43.980000
2619.515309	42.770000
2620.941141	47.120000
2622.363529	45.240000
2623.787263	49.990000
2625.209150	45.550000
2626.630788	44.350000
2628.050580	45.420000
2629.471718	54.240000
2630.892606	48.890000
2632.310055	53.300000
2633.730445	49.450000
2635.147397	49.190000
2636.564100	51.700000
2637.980555	53.760000
2639.396762	56.320000
2640.812721	53.650000
2642.226839	56.070000
2643.640709	56.160000
2645.052741	60.090000
2646.466116	62.790000
2647.876062	59.900000
2649.288944	63.520000
2650.698397	68.700000
2652.107604	62.420000
2653.514975	69.250000
2654.925280	66.500000
2656.333750	72.520000
2657.740384	79.870000
2659.146773	76.080000
2660.551328	78.410000
2661.957227	80.030000
2663.361293	82.840000
2664.765114	86.920000
2666.168691	85.400000
2667.570437	89.030000
2668.973526	96.070000
2670.373197	92.760000
2671.774212	100.870000
2673.171811	98.520000
2674.572339	96.040000
2675.969453	100.110000
2677.367910	103.860000
2678.764540	106.010000
2680.160927	107.270000
2681.557072	107.120000
2682.951391	102.060000
2684.347053	103.360000
2685.739306	108.440000
2687.132901	105.970000
2688.524672	109.620000
2689.917786	104.830000
2691.309076	107.150000
2692.698543	116.170000
2694.087770	111.900000
2695.476758	109.140000
2696.867087	115.630000
2698.252433	119.600000
2699.640702	119.010000
2701.027151	122.870000
2702.413361	121.960000
2703.799332	132.160000
2705.181905	139.200000
2706.565820	140.290000
2707.949497	146.120000
2709.332935	154.140000
2710.712978	158.040000
2712.094363	160.430000
2713.473933	167.430000
2714.854843	163.780000
2716.233939	178.340000
2717.611221	170.480000
2718.989844	166.000000
2720.366653	162.520000
2721.743227	161.080000
2723.119565	153.000000
2724.494092	143.890000
2725.869959	139.980000
2727.242439	132.400000
2728.617835	127.290000
2729.988271	122.850000
2731.360048	114.890000
2732.731590	111.480000
2734.101324	103.260000
2735.472399	106.090000
2736.841665	98.240000
2738.210698	96.240000
2739.577925	89.430000
2740.944918	86.790000
2742.311679	80.060000
2743.678208	80.970000
2745.042931	72.630000
2746.407422	65.690000
2747.771682	69.060000
2749.135709	64.500000
2750.499505	60.630000
2751.859927	62.360000
2753.223259	61.350000
2754.581649	52.890000
2755.942949	50.730000
2757.300879	47.580000
2758.661717	47.710000
2760.020756	46.750000
2761.376426	44.740000
2762.735004	43.690000
2764.090215	44.000000
2765.445197	43.780000
2766.798382	38.370000
2768.154474	44.840000
2769.507202	38.090000
2770.859702	38.550000
2772.211973	44.890000
2773.565582	40.980000
2774.915831	41.570000
2776.264285	44.970000
2777.615644	44.500000
2778.963645	41.610000
2780.312983	41.910000
2781.660529	39.680000
2783.007849	42.860000
2784.354942	42.120000
2785.700243	40.600000
2787.045319	33.310000
2788.390169	39.290000
2789.734793	40.180000
2791.076065	38.250000
2792.418675	38.080000
2793.761059	40.680000
2795.103218	39.020000
2796.442028	34.330000
2797.783738	36.460000
2799.122099	33.200000
2800.461798	35.620000
2801.799712	34.660000
2803.135841	38.430000
2804.471746	37.850000
2805.808989	34.920000
2807.144448	34.010000
2808.479684	35.740000
2809.813137	38.570000
2811.147927	36.160000
2812.479377	38.100000
2813.813722	38.470000
2815.143169	33.430000
2816.473952	33.470000
2817.804515	32.880000
2819.133298	36.880000
2820.463417	31.910000
2821.791758	29.750000
2823.119878	35.050000
2824.446220	27.450000
2825.773899	29.780000
2827.098244	30.960000
2828.423926	30.450000
2829.747832	38.330000
2831.071518	30.750000
2832.396541	29.390000
2833.718233	32.040000
2835.039707	36.680000
2836.360962	31.810000
2837.681998	31.170000
2839.001261	33.240000
2840.321860	39.070000
2841.640688	33.450000
2842.959297	28.260000
2844.276135	27.380000
2845.592756	31.370000
2846.909160	26.040000
2848.223794	30.330000
2849.539764	34.690000
2850.852413	33.470000
2852.166397	32.840000
2853.480165	34.800000
2854.793716	35.200000
2856.105501	37.590000
2857.415519	28.670000
2858.726872	31.550000
2860.034910	35.000000
2861.344282	33.160000
2862.653440	30.680000
2863.962382	36.070000
2865.269560	30.990000
2866.574976	31.610000
2867.881725	27.510000
2869.186713	28.780000
2870.491486	27.050000
2871.794499	28.940000
2873.100392	29.600000
2874.401431	32.160000
2875.703804	33.330000
2877.004417	28.330000
2878.306364	31.590000
2879.608097	30.030000
2880.906527	30.400000
2882.206290	30.670000
2883.504296	27.360000
2884.802090	34.570000
2886.098128	30.300000
2887.395499	36.550000
2888.691114	29.840000
2889.986518	33.290000
2891.281711	31.120000
2892.573607	31.470000
2893.868379	30.460000
2895.159854	30.470000
2896.452662	23.910000
2897.745260	28.410000
2899.034564	23.650000
2900.325200	26.130000
2901.614085	28.910000
2902.904302	31.970000
2904.191228	31.320000
2905.479486	31.730000
2906.765995	29.500000
2908.052295	30.160000
2909.338388	29.920000
2910.622732	30.820000
2911.909947	24.480000
2913.192336	41.230000
2914.476057	26.500000
2915.758032	26.110000
2917.039799	31.420000
2918.319821	31.390000
2919.602714	31.720000
2920.883861	29.710000
2922.161726	22.080000
2923.442460	28.690000
2924.719913	30.530000
2925.997160	33.030000
2927.272665	29.650000
2928.551038	31.620000
2929.824597	31.870000
2931.101023	32.920000
2932.375708	28.540000
2933.648652	29.460000
2934.922928	30.880000
2936.195464	29.020000
2937.467795	32.500000
2938.736854	31.680000
2940.008778	25.450000
2941.278964	27.610000
2942.548946	31.210000
2943.818725	33.630000
2945.086768	29.740000
2946.353074	30.450000
2947.619179	25.860000
2948.886613	31.770000
2950.152312	29.180000
2951.417810	35.730000
2952.683105	23.150000
2953.945135	24.850000
2955.208495	37.450000
2956.471654	27.850000
2957.733081	30.310000
2958.995837	29.390000
2960.256861	29.590000
2961.516155	30.530000
2962.775249	22.110000
2964.034142	35.380000
2965.292835	26.510000
2966.551328	31.000000
2967.808092	30.620000
2969.064656	35.650000
2970.319492	28.200000
2971.575658	26.760000
2972.828569	27.680000
2974.082809	29.960000
2975.336849	30.460000
2976.589164	31.710000
2977.841281	26.200000
2979.091673	25.270000
2980.344920	30.370000
2981.593390	29.790000
2982.844715	29.590000
2984.092790	26.160000
2985.340668	29.430000
2986.588350	25.040000
2987.835834	29.670000
2989.081597	26.440000
2990.327164	31.550000
2991.574058	30.510000
2992.817708	28.550000
2994.062686	32.710000
2995.304420	27.090000
2996.549006	26.180000
2997.791873	31.070000
2999.031499	32.260000
3000.273975	26.880000
3001.513211	29.760000
3002.753775	29.490000
3003.992622	29.450000
3005.231275	24.110000
3006.468212	25.890000
3007.706477	28.510000
3008.943026	28.570000
3010.179382	36.310000
3011.415544	27.190000
3012.649992	29.890000
3013.884248	26.630000
3015.118310	27.460000
3016.350659	23.570000
3017.581298	27.360000
3018.814782	25.360000
3020.046554	24.320000
3021.276616	27.720000
3022.506485	29.170000
3023.734645	25.650000
3024.964132	26.450000
3026.191909	30.430000
3027.419495	27.330000
3028.648407	24.790000
3029.872578	22.780000
3031.099591	25.190000
3032.323380	29.260000
3033.548496	28.660000
3034.771905	28.550000
3035.995124	29.520000
3037.216638	28.950000
3038.440993	29.140000
3039.660613	28.550000
3040.881559	34.480000
3042.102316	25.720000
3043.321369	29.880000
3044.541747	29.400000
3045.758909	27.380000
3046.977397	31.580000
3048.194182	28.300000
3049.410780	28.080000
3050.627189	29.130000
3051.840385	26.020000
3053.056420	32.460000
3054.269242	26.250000
3055.484901	23.620000
3056.695837	28.020000
3057.908098	30.340000
3059.120172	29.680000
3060.332060	26.420000
3061.542251	26.430000
3062.752255	24.340000
3063.962073	26.200000
3065.170195	29.550000
3066.378132	21.740000
3067.584373	23.790000
3068.791939	28.530000
3069.997810	24.970000
3071.203497	21.410000
3072.408998	25.580000
3073.612806	25.530000
3074.817938	31.480000
3076.021377	25.950000
3077.223125	28.170000
3078.424688	30.130000
3079.626068	27.180000
3080.827264	29.530000
3082.026770	27.920000
3083.226093	28.770000
3084.426739	28.250000
3085.625695	24.930000
3086.821457	24.280000
3088.020048	21.900000
3089.215445	26.840000
3090.412165	22.390000
3091.605693	28.520000
3092.802049	26.290000
3093.996718	30.290000
3095.188197	27.330000
3096.384008	27.270000
3097.575124	27.090000
3098.767564	24.470000
3099.956816	25.390000
3101.148893	27.050000
3102.339287	28.200000
3103.526495	30.500000
3104.715025	24.700000
3105.904878	27.130000
3107.091547	25.250000
3108.278035	28.770000
3109.464345	24.700000
3110.651976	24.560000
3111.836425	22.960000
3113.019195	32.210000
3114.204787	24.360000
3115.388700	30.190000
3116.570934	21.480000
3117.752989	22.720000
3118.934866	22.880000
3120.116565	28.160000
3121.296587	26.760000
3122.474932	26.780000
3123.656097	23.930000
3124.834087	26.000000
3126.011900	23.090000
3127.189536	28.960000
3128.365498	27.260000
3129.541282	22.950000
3130.718388	20.960000
3131.893819	31.270000
3133.067577	24.160000
3134.239662	25.550000
3135.413069	23.500000
3136.586299	29.630000
3137.757858	25.900000
3138.930737	29.690000
3140.100449	22.850000
3141.271482	28.730000
3142.440845	27.140000
3143.608537	24.200000
3144.779045	20.320000
3145.944895	27.480000
3147.115053	29.950000
3148.280555	27.360000
3149.445882	29.440000
3150.611036	27.640000
3151.776017	28.000000
3152.942317	24.550000
3154.103965	30.570000
3155.266932	21.200000
3156.429727	27.830000
3157.592349	24.030000
3158.753305	21.440000
3159.914090	27.370000
3161.074702	25.420000
3162.233650	27.230000
3163.392427	28.300000
3164.551031	30.310000
3165.709464	24.390000
3166.867726	30.730000
3168.024325	17.740000
3169.179263	27.550000
3170.335520	25.560000
3171.490116	22.760000
3172.644542	20.600000
3173.797308	26.960000
3174.949903	23.610000
3176.102329	26.750000
3177.254585	22.590000
3178.406670	23.830000
3179.555609	16.380000
3180.707356	24.260000
3181.857444	17.630000
3183.005876	22.400000
3184.154138	26.590000
3185.302232	26.080000
3186.450157	30.020000
3187.596426	25.730000
3188.742527	26.980000
3189.886974	21.650000
3191.031253	25.590000
3192.175364	22.550000
3193.320792	26.700000
3194.463082	23.820000
3195.605205	20.320000
3196.747160	25.560000
3197.888948	21.400000
3199.030569	29.160000
3200.169055	25.460000
3201.308858	25.230000
3202.449978	21.340000
3203.587965	21.840000
3204.724302	22.180000
3205.860473	19.390000
3206.997961	23.790000
3208.133801	24.420000
3209.270958	25.100000
3210.403502	24.170000
3211.540328	23.690000
3212.672542	27.900000
3213.806073	22.430000
3214.939440	29.050000
3216.069679	24.510000
3217.202716	21.270000
3218.332627	22.220000
3219.463854	28.070000
3220.591957	21.960000
3221.722856	22.000000
3222.852111	20.530000
3223.979723	27.320000
3225.104212	25.970000
3226.232977	24.150000
3227.358620	21.110000
3228.484101	27.840000
3229.607939	27.920000
3230.734573	27.550000
3231.856609	27.600000
3232.979961	32.540000
3234.103151	21.260000
3235.226178	28.620000
3236.347567	30.100000
3237.468793	32.500000
3238.588382	31.230000
3239.707809	34.080000
3240.825598	37.440000
3241.946179	40.040000
3243.063647	36.980000
3244.180954	37.180000
3245.298101	38.160000
3246.413611	36.480000
3247.530437	34.570000
3248.644153	35.980000
3249.760658	32.560000
3250.875529	30.060000
3251.987290	27.140000
3253.098893	25.770000
3254.211811	30.360000
3255.324569	17.580000
3256.434221	26.690000
3257.545188	31.720000
3258.655996	20.420000
3259.765172	23.280000
3260.872717	22.250000
3261.981577	23.180000
3263.090279	22.700000
3264.195878	25.020000
3265.302791	23.290000
3266.408075	32.650000
3267.514673	28.990000
3268.618171	21.720000
3269.722984	21.690000
3270.827638	28.500000
3271.929195	18.860000
3273.030595	23.460000
3274.133309	21.270000
3275.235867	24.810000
3276.335328	26.550000
3277.437573	18.930000
3278.536722	24.010000
3279.634247	20.120000
3280.731616	23.730000
3281.831767	18.600000
3282.928826	24.990000
3284.025729	16.050000
3285.122477	20.520000
3286.214666	28.580000
3287.311105	24.370000
3288.405921	25.050000
3289.500583	23.440000
3290.593623	22.010000
3291.686508	18.020000
3292.777773	20.130000
3293.870351	23.830000
3294.961309	14.490000
3296.050647	21.330000
3297.139832	24.010000
3298.230330	25.620000
3299.317743	23.070000
3300.405003	21.440000
3301.493576	24.500000
3302.581996	16.750000
3303.665870	24.850000
3304.753985	26.930000
3305.839018	19.870000
3306.922436	20.580000
3308.007166	23.060000
3309.090280	19.190000
3310.174707	20.170000
3311.256055	16.590000
3312.338715	27.550000
3313.419761	23.170000
3314.500656	21.040000
3315.579937	20.720000
3316.659068	22.550000
3317.739511	21.190000
3318.816879	25.410000
3319.895559	22.230000
3320.972627	23.760000
3322.049546	19.020000
3323.124853	23.920000
3324.200011	22.220000
3325.276480	23.400000
3326.349879	22.390000
3327.423128	26.130000
3328.497689	20.120000
3329.570641	28.760000
3330.641984	22.080000
3331.714638	21.750000
3332.784226	30.390000
3333.855124	21.250000
3334.924415	20.520000
3335.995017	20.280000
3337.064012	17.410000
3338.131401	18.570000
3339.197185	22.500000
3340.267195	22.940000
3341.334142	18.940000
3342.398027	26.630000
3343.464679	25.450000
3344.529728	22.850000
3345.593173	21.640000
3346.656472	27.330000
3347.719624	19.990000
3348.782630	23.580000
3349.845490	21.060000
3350.906748	22.750000
3351.964949	28.970000
3353.027370	23.310000
3354.086736	25.640000
3355.145956	24.290000
3356.206485	26.560000
3357.262506	20.870000
3358.321290	20.460000
3359.375567	23.550000
3360.432608	24.270000
3361.488050	19.350000
3362.544802	21.350000
3363.599955	17.890000
3364.653511	22.760000
3365.705471	26.570000
3366.760192	20.200000
3367.811864	24.150000
3368.863393	24.480000
3369.916230	20.900000
3370.966020	18.490000
3372.017119	17.980000
3373.065172	25.300000
3374.115984	19.740000
3375.163752	19.760000
3376.211376	24.550000
3377.258859	17.440000
3378.304749	19.500000
3379.351947	19.640000
3380.396103	24.690000
3381.443017	18.620000
3382.488339	22.050000
3383.530620	17.630000
3384.572760	23.190000
3385.616209	24.230000
3386.659516	25.200000
3387.701233	17.380000
3388.742810	22.560000
3389.784245	20.580000
3390.824092	17.010000
3391.862350	19.140000
3392.901916	28.680000
3393.941342	21.130000
3394.979180	24.840000
3396.015431	23.770000
3397.051543	24.830000
3398.088962	25.070000
3399.123348	26.950000
3400.159041	23.170000
3401.194595	27.520000
3402.227118	21.600000
3403.262394	23.850000
3404.294639	24.830000
3405.326746	22.050000
3406.357269	24.690000
3407.389099	21.570000
3408.420791	19.850000
3409.449455	25.250000
3410.477982	19.740000
3411.507815	20.050000
3412.537511	19.430000
3413.564181	22.590000
3414.592157	18.150000
3415.617110	26.460000
3416.644812	20.790000
3417.669491	25.640000
3418.695476	25.880000
3419.719881	20.680000
3420.744150	22.000000
3421.766840	19.860000
3422.789394	24.930000
3423.813254	22.490000
3424.834094	20.560000
3425.854798	20.760000
3426.876809	24.500000
3427.895801	22.450000
3428.914657	15.610000
3429.934820	23.740000
3430.951966	16.050000
