-118.304647	-0.100000
-115.635047	2.140000
-112.968382	-2.810000
-110.302469	-0.930000
-107.639489	-0.520000
-104.975078	7.670000
-102.313598	-1.500000
-99.650689	5.890000
-96.992886	-2.380000
-94.333654	0.750000
-91.675170	0.430000
-89.019611	-2.490000
-86.362622	-1.270000
-83.710732	2.640000
-81.057412	-4.340000
-78.407011	1.240000
-75.755182	2.900000
-73.108442	7.130000
-70.460274	2.760000
-67.812848	0.150000
-65.168337	-2.180000
-62.522396	0.460000
-59.881537	0.380000
-57.239249	3.320000
-54.599870	0.630000
-51.959061	0.910000
-49.318993	5.330000
-46.683998	2.500000
-44.047573	1.680000
-41.414051	6.050000
-38.779101	7.220000
-36.149216	3.610000
-33.515739	8.630000
-30.887324	3.630000
-28.259643	12.450000
-25.630533	7.690000
-23.006480	14.620000
-20.378838	21.930000
-17.756249	29.130000
-15.134392	38.870000
-12.513265	69.290000
-9.892869	179.510000
-7.275360	619.100000
-4.656423	2147.200000
-2.040371	5952.260000
0.574952	8461.440000
3.189547	4328.340000
5.801261	606.730000
8.414403	70.180000
11.022511	30.290000
13.634201	21.100000
16.240860	13.820000
18.848947	16.070000
21.456310	13.530000
24.058648	13.750000
26.664564	4.030000
29.265458	6.910000
31.867780	1.440000
34.465085	2.100000
37.065965	7.320000
39.661830	7.910000
42.259124	6.890000
44.855698	1.770000
47.447263	2.120000
50.040256	-2.060000
52.630388	0.690000
55.221947	-1.940000
57.810648	-1.440000
60.400775	3.690000
62.985903	2.350000
65.572459	0.030000
68.158301	4.590000
70.741289	3.820000
73.325703	3.860000
75.902989	4.270000
78.483841	5.150000
81.061844	1.660000
83.639137	3.120000
86.217856	-4.170000
88.791593	0.030000
91.366758	-2.000000
93.939079	2.390000
96.510692	6.220000
99.079465	0.970000
101.649665	-4.380000
104.217026	0.270000
106.785814	1.200000
109.351765	2.220000
111.914881	-0.030000
114.481553	5.460000
117.039004	5.290000
119.602140	0.690000
122.160316	6.180000
124.722047	9.440000
127.278821	14.380000
129.837021	20.470000
132.390269	24.730000
134.942819	37.770000
137.498919	52.070000
140.050071	63.710000
142.600526	81.270000
145.150283	84.210000
147.697221	91.750000
150.243464	91.320000
152.791132	99.260000
155.338104	105.170000
157.880141	98.940000
160.421484	94.130000
162.962134	95.300000
165.504210	94.820000
168.043474	98.410000
170.579930	95.720000
173.115694	90.560000
175.652884	96.720000
178.189383	98.330000
180.723076	90.110000
183.253965	90.320000
185.784166	94.650000
188.315793	99.920000
190.844618	88.130000
193.370644	88.490000
195.895984	88.420000
198.422749	92.430000
200.946718	92.580000
203.470002	88.410000
205.992601	95.910000
208.512407	93.340000
211.031529	91.540000
213.549970	90.830000
216.069834	93.410000
218.582697	94.980000
221.099091	91.820000
223.614803	89.690000
226.125625	91.460000
228.637872	96.690000
231.147337	91.350000
233.656122	95.920000
236.164230	90.650000
238.673762	96.110000
241.178413	103.880000
243.682388	95.520000
246.187787	99.430000
248.688311	96.930000
251.192358	103.800000
253.689435	96.790000
256.190035	100.310000
258.687863	99.040000
261.185018	102.940000
263.681500	99.290000
266.173119	100.630000
268.668258	100.930000
271.160630	104.670000
273.652332	101.610000
276.141271	103.210000
278.631633	100.850000
281.119234	107.980000
283.604075	106.820000
286.092431	102.960000
288.573847	104.270000
291.058777	104.480000
293.538862	106.970000
296.022459	107.200000
298.501213	108.120000
300.981390	107.520000
303.458816	110.400000
305.935578	109.720000
308.411676	109.530000
310.885027	115.300000
313.357715	125.190000
315.829742	133.350000
318.301108	142.590000
320.769729	154.170000
323.237692	146.980000
325.707076	139.980000
328.171638	135.370000
330.639704	125.700000
333.102950	121.710000
335.565538	116.850000
338.027470	111.660000
340.488745	118.090000
342.947286	120.780000
345.407249	117.680000
347.864479	118.480000
350.321055	119.010000
352.776977	121.470000
355.230169	114.250000
357.684784	122.910000
360.134597	115.080000
362.587906	123.620000
365.036416	120.380000
367.484276	117.980000
369.933558	110.420000
372.378046	117.660000
374.823956	115.220000
377.269216	114.840000
379.711758	115.310000
382.153652	116.570000
384.594899	116.600000
387.033430	112.960000
389.473382	120.340000
391.910622	120.710000
394.345149	116.380000
396.783164	119.840000
399.216402	117.880000
401.651061	119.760000
404.080948	120.550000
406.514320	117.040000
408.942922	123.850000
411.370882	117.970000
413.800264	121.230000
416.224880	116.960000
418.650918	121.630000
421.076315	120.510000
423.501072	115.780000
425.921071	117.710000
428.342490	112.780000
430.761214	125.730000
433.181358	123.450000
435.598807	121.220000
438.017676	126.000000
440.433852	117.480000
442.845280	126.070000
445.260185	126.420000
447.672401	123.280000
450.083982	118.750000
452.494929	120.290000
454.903190	123.010000
457.310818	116.070000
459.717814	119.050000
462.124179	117.310000
464.527861	110.850000
466.930913	113.370000
469.333335	111.900000
471.735127	111.340000
474.134241	108.430000
476.534775	105.780000
478.934680	115.290000
481.329863	115.470000
483.728512	114.940000
486.122440	117.140000
488.515743	108.710000
490.908421	108.910000
493.300473	102.900000
495.693943	100.330000
498.082701	98.690000
500.468793	95.080000
502.856305	93.550000
505.243194	88.030000
507.627419	79.380000
510.013062	85.380000
512.396044	76.870000
514.776365	77.620000
517.158105	73.630000
519.537186	71.140000
521.917686	70.040000
524.295528	70.270000
526.670714	65.110000
529.045284	68.740000
531.421271	63.020000
533.794606	65.580000
536.169358	69.330000
538.539425	56.530000
540.908876	70.430000
543.279745	69.070000
545.645933	66.210000
548.013540	57.960000
550.378502	53.430000
552.742850	61.460000
555.106585	62.390000
557.471738	55.700000
559.832219	51.730000
562.194118	57.150000
564.553376	58.730000
566.909996	57.780000
569.270062	54.200000
571.623436	50.710000
573.980255	57.610000
576.334439	51.720000
578.688014	49.600000
581.040982	56.640000
583.391317	49.880000
585.743070	55.470000
588.088146	52.580000
590.438685	57.890000
592.782552	57.800000
595.131880	56.180000
597.476559	62.750000
599.818614	56.550000
602.162086	54.230000
604.502935	52.810000
606.843181	53.160000
609.180808	55.350000
611.521869	47.880000
613.858292	49.580000
616.196132	47.420000
618.531355	47.990000
620.863962	47.680000
623.197985	47.740000
625.529394	54.880000
627.860205	49.980000
630.190419	52.800000
632.520034	49.210000
634.845026	47.930000
637.175460	50.270000
639.501273	43.190000
641.824478	42.390000
644.149100	38.700000
646.471116	52.200000
648.792538	46.790000
651.111358	48.730000
653.431593	45.620000
655.751235	44.540000
658.068276	43.080000
660.384725	43.100000
662.698576	41.380000
665.013843	46.140000
667.326513	46.380000
669.640598	38.510000
671.950083	43.950000
674.260984	40.760000
676.569292	41.180000
678.877012	43.840000
681.186146	45.830000
683.490688	43.190000
685.794644	44.100000
688.098014	44.690000
690.402798	38.510000
692.702995	35.840000
695.004608	36.960000
697.305635	38.590000
699.602081	39.830000
701.899942	40.590000
704.197219	39.170000
706.493913	36.330000
708.786031	39.900000
711.081560	37.600000
713.372515	40.250000
715.664885	36.180000
717.954680	38.390000
720.243894	33.130000
722.532529	43.500000
724.818591	38.200000
727.106068	42.280000
729.390973	40.130000
731.675301	43.800000
733.957060	37.870000
736.240233	43.850000
738.522829	41.480000
740.800869	37.110000
743.080324	44.840000
745.359202	38.120000
747.637506	47.720000
749.911260	39.040000
752.186427	37.710000
754.461021	44.910000
756.733056	41.820000
759.006504	43.620000
761.277394	48.150000
763.545728	42.310000
765.815475	43.600000
768.082667	47.040000
770.349290	45.840000
772.615342	48.150000
774.878843	45.050000
777.143757	49.300000
779.408101	49.130000
781.667916	50.210000
783.929143	43.450000
786.189803	46.650000
788.447917	50.000000
790.703486	46.230000
792.962446	50.290000
795.214906	44.570000
797.472734	47.770000
799.726043	52.010000
801.976812	43.670000
804.228993	44.860000
806.478635	44.140000
808.729690	44.580000
810.976233	44.040000
813.224188	42.420000
815.469609	42.400000
817.716441	38.200000
819.962712	46.550000
822.204478	43.740000
824.449628	38.510000
826.688305	41.010000
828.930364	40.980000
831.167925	43.650000
833.406898	37.750000
835.643344	37.390000
837.881201	34.850000
840.116533	34.990000
842.349342	36.380000
844.583562	43.840000
846.815259	39.320000
849.046402	38.970000
851.276990	35.700000
853.507024	36.100000
855.736504	34.110000
857.961502	34.540000
860.189875	36.820000
862.413768	36.650000
864.639073	39.480000
866.859902	37.950000
869.084103	37.230000
871.303831	43.370000
873.524969	37.270000
875.745557	35.350000
877.963636	39.260000
880.183124	41.050000
882.398146	42.020000
884.612620	42.320000
886.826547	41.860000
889.039927	38.430000
891.252759	37.350000
893.465045	40.240000
895.674828	36.470000
897.884066	41.720000
900.092759	40.540000
902.298952	30.610000
904.506556	35.140000
906.711661	38.350000
908.916223	38.560000
911.118290	38.070000
913.321766	42.180000
915.522748	33.280000
917.723188	38.940000
919.925037	35.440000
922.120495	35.180000
924.319312	35.330000
926.513690	41.470000
928.711426	39.610000
930.904726	38.170000
933.099435	37.090000
935.291658	36.710000
937.483342	42.720000
939.674489	38.770000
941.863153	40.170000
944.051281	41.720000
946.236928	38.360000
948.425927	37.620000
950.610503	44.210000
952.794544	39.620000
954.981935	42.380000
957.161022	45.010000
959.343460	47.900000
961.525364	45.270000
963.704793	48.130000
965.881750	42.150000
968.060115	43.510000
970.239887	51.260000
972.413310	48.980000
974.590079	42.370000
976.762441	46.860000
978.936211	49.780000
981.105577	51.150000
983.278287	55.540000
985.448532	50.740000
987.618247	54.380000
989.787435	50.890000
991.952225	49.860000
994.120356	56.040000
996.284092	60.730000
998.449236	57.380000
1000.611920	56.100000
1002.774079	56.430000
1004.933781	61.300000
1007.092958	52.910000
1009.253542	55.030000
1011.411671	60.430000
1013.569277	59.990000
1015.726359	60.930000
1017.882917	61.250000
1020.035096	57.980000
1022.188682	61.580000
1024.341746	61.730000
1026.492361	67.060000
1028.644383	65.490000
1030.792031	66.340000
1032.943011	58.130000
1035.089620	64.730000
1037.235710	67.080000
1039.381282	69.520000
1041.528259	66.450000
1043.668947	66.620000
1045.812965	64.650000
1047.954542	71.080000
1050.095603	69.290000
1052.238068	68.340000
1054.374253	71.020000
1056.513765	74.440000
1058.648922	65.740000
1060.787403	66.320000
1062.921530	73.690000
1065.055144	74.360000
1067.190162	70.020000
1069.320832	70.110000
1071.452906	67.170000
1073.582551	67.240000
1075.711684	60.520000
1077.840305	62.930000
1079.968415	64.920000
1082.094099	63.540000
1084.219273	62.410000
1086.345851	63.070000
1088.468091	59.870000
1090.591736	59.760000
1092.711046	57.880000
1094.835585	62.210000
1096.953880	55.800000
1099.073579	62.950000
1101.190859	54.770000
1103.307632	57.590000
1105.423900	50.970000
1107.537751	55.100000
1109.653007	52.780000
1111.763939	57.780000
1113.878184	53.650000
1115.988108	51.980000
1118.099436	44.900000
1120.210259	48.880000
1122.316766	48.300000
1124.426582	52.240000
1126.532085	49.190000
1128.638990	52.260000
1130.739680	48.070000
1132.845582	48.130000
1134.947175	42.400000
1137.050171	43.670000
1139.152666	43.340000
1141.248954	49.660000
1143.350449	45.470000
1145.447642	47.690000
1147.544337	46.990000
1149.640533	43.870000
1151.736231	41.230000
1153.831432	50.110000
1155.924236	47.020000
1158.018442	46.530000
1160.106457	44.460000
1162.199671	42.240000
1164.286696	47.710000
1166.377020	40.730000
1168.463056	45.890000
1170.552391	38.160000
1172.635544	40.480000
1174.720099	43.300000
1176.806056	46.260000
1178.887731	41.400000
1180.970807	37.630000
1183.051498	42.580000
1185.131698	39.520000
1187.211406	41.740000
1189.290623	43.930000
1191.367458	42.250000
1193.441911	41.120000
1195.519657	42.580000
1197.593133	42.110000
1199.668009	39.360000
1201.738618	41.260000
1203.810628	39.560000
1205.880263	37.640000
1207.951297	38.820000
1210.021845	35.810000
1212.088131	43.450000
1214.155818	43.380000
1216.221133	39.450000
1218.287848	46.800000
1220.350307	42.690000
1222.416051	34.090000
1224.477541	39.000000
1226.540432	39.620000
1228.600955	38.300000
1230.660994	40.590000
1232.720550	35.910000
1234.777742	32.900000
1236.834452	39.210000
1238.888798	36.350000
1240.946426	36.250000
1243.001691	42.750000
1245.052715	34.960000
1247.105139	35.670000
1249.157083	39.930000
1251.206669	38.190000
1253.255776	35.380000
1255.304404	33.800000
1257.352554	34.970000
1259.400226	33.870000
1261.443667	36.660000
1263.490384	34.960000
1265.534747	33.230000
1267.578634	36.750000
1269.620169	31.900000
1271.659355	40.140000
1273.701814	41.630000
1275.740050	31.700000
1277.779685	30.110000
1279.818845	34.390000
1281.853786	34.680000
1283.890126	27.510000
1285.924122	34.550000
1287.959515	34.550000
1289.990696	33.390000
1292.023274	33.810000
1294.055381	30.260000
1296.085147	35.860000
1298.116310	30.550000
1300.143267	33.760000
1302.171621	37.620000
1304.195770	29.120000
1306.223185	36.600000
1308.246397	32.860000
1310.271007	32.080000
1312.293283	31.800000
1314.316956	28.820000
1316.338295	31.060000
1318.359168	37.580000
1320.379573	36.950000
1322.395785	31.850000
1324.413394	31.770000
1326.428675	30.380000
1328.447215	33.770000
1330.461566	30.300000
1332.473590	34.420000
1334.488873	31.000000
1336.499970	29.090000
1338.512464	36.670000
1340.520775	36.620000
1342.532341	30.500000
1344.537869	32.110000
1346.546652	34.440000
1348.551257	34.800000
1350.559116	32.400000
1352.566513	32.550000
1354.567879	35.800000
1356.570641	34.370000
1358.572944	31.860000
1360.574787	38.010000
1362.576170	36.520000
1364.575240	30.960000
1366.573851	31.870000
1368.572003	39.240000
1370.569698	33.870000
1372.563230	32.310000
1374.558157	35.930000
1376.552628	29.570000
1378.546642	29.250000
1380.538349	33.920000
1382.529600	34.090000
1384.518546	28.190000
1386.508888	30.850000
1388.498774	32.290000
1390.486356	30.720000
1392.473485	38.370000
1394.458312	30.590000
1396.444534	28.740000
1398.428455	28.700000
1400.411924	31.780000
1402.394941	33.410000
1404.375660	29.500000
1406.357773	41.710000
1408.337590	28.450000
1410.316955	34.020000
1412.292182	31.310000
1414.270647	33.810000
1416.246819	33.590000
1418.222541	34.030000
1420.197815	38.170000
1422.170797	37.360000
1424.143331	33.600000
1426.115417	35.060000
1428.087056	29.870000
1430.054566	31.030000
1432.027150	34.290000
1433.991928	33.830000
1435.961779	32.210000
1437.927506	34.500000
1439.894625	30.530000
1441.859461	37.310000
1443.820177	38.420000
1445.785961	32.990000
1447.745790	35.370000
1449.707013	38.450000
1451.669627	34.790000
1453.628127	32.660000
1455.586185	34.130000
1457.543801	35.540000
1459.500974	35.920000
1461.455872	39.880000
1463.412163	30.610000
1465.366179	37.230000
1467.319754	34.420000
1469.271057	33.530000
1471.223753	36.860000
1473.174176	38.710000
1475.124161	32.080000
1477.073707	37.180000
1479.020984	38.410000
1480.965993	33.830000
1482.912395	35.670000
1484.858359	40.740000
1486.803886	40.550000
1488.747147	36.660000
1490.689973	35.850000
1492.630534	35.570000
1494.572488	35.610000
1496.512179	40.390000
1498.451435	37.370000
1500.390257	32.890000
1502.326819	35.870000
1504.264772	39.750000
1506.200466	38.880000
1508.135727	37.150000
1510.068731	38.570000
1512.001304	38.120000
1513.933444	38.980000
1515.865152	44.070000
1517.794606	38.900000
1519.725451	41.120000
1521.655864	45.310000
1523.582205	40.790000
1525.509936	41.160000
1527.435418	46.030000
1529.360470	38.910000
1531.285093	42.810000
1533.209286	45.400000
1535.131233	47.540000
1537.054570	45.660000
1538.975660	42.880000
1540.894506	51.970000
1542.814742	50.320000
1544.732735	50.950000
1546.650300	55.960000
1548.565625	61.640000
1550.482339	58.960000
1552.394998	71.650000
1554.310861	75.400000
1556.224484	82.820000
1558.135869	90.780000
1560.048644	92.770000
1561.957369	106.880000
1563.867483	114.690000
1565.777174	132.970000
1567.686442	157.290000
1569.593476	189.760000
1571.498277	235.290000
1573.404467	289.550000
1575.308425	352.420000
1577.211962	421.090000
1579.115079	458.240000
1581.015966	471.020000
1582.918242	447.660000
1584.818290	390.660000
1586.719725	317.180000
1588.617127	251.810000
1590.514110	206.730000
1592.410675	170.350000
1594.308627	139.400000
1596.200745	129.660000
1598.096057	107.570000
1599.990951	91.150000
1601.883623	89.580000
1603.775878	76.880000
1605.665914	66.900000
1607.555534	70.380000
1609.444739	62.940000
1611.333529	58.510000
1613.220101	59.750000
1615.108061	56.260000
1616.992004	52.230000
1618.877334	54.940000
1620.762251	47.980000
1622.644954	47.400000
1624.529044	43.360000
1626.409122	42.500000
1628.290588	44.510000
1630.169843	42.690000
1632.050484	42.980000
1633.925321	49.490000
1635.805139	42.300000
1637.680953	40.690000
1639.556356	40.630000
1641.433145	39.190000
1643.304138	38.090000
1645.178312	38.190000
1647.048487	40.520000
1648.921843	37.500000
1650.792996	46.010000
1652.661948	33.090000
1654.532284	42.500000
1656.398628	43.700000
1658.266357	37.750000
1660.131887	43.830000
1661.998803	42.230000
1663.861730	35.310000
1665.726042	35.790000
1667.588158	36.840000
1669.449869	36.600000
1671.312966	38.790000
1673.173867	36.710000
1675.032576	39.720000
1676.890881	39.980000
1678.750570	36.190000
1680.604493	36.150000
1682.461589	35.570000
1684.318281	37.690000
1686.170998	38.460000
1688.026886	34.380000
1689.878800	41.430000
1691.730313	38.830000
1693.581425	33.670000
1695.432137	38.270000
1697.282447	36.710000
1699.130574	39.650000
1700.980085	39.190000
1702.823846	29.860000
1704.672558	39.140000
1706.515523	36.110000
1708.361655	38.310000
1710.203824	35.260000
1712.049159	34.200000
1713.888753	36.620000
1715.729731	40.660000
1717.572092	30.200000
1719.410497	34.360000
1721.250285	35.280000
1723.087897	35.470000
1724.925115	36.830000
1726.760159	39.690000
1728.596586	40.360000
1730.430841	41.280000
1732.264701	35.900000
1734.098167	34.030000
1735.927688	38.090000
1737.760367	33.740000
1739.589102	37.210000
1741.420994	42.100000
1743.248944	34.540000
1745.076502	36.370000
1746.903669	37.910000
1748.730444	40.550000
1750.556827	37.350000
1752.379274	39.490000
1754.204876	36.380000
1756.026543	39.820000
1757.849592	42.830000
1759.670479	31.500000
1761.490978	35.030000
1763.312857	37.870000
1765.129038	35.200000
1766.948370	39.950000
1768.763774	39.720000
1770.582330	33.970000
1772.396960	35.500000
1774.211203	35.650000
1776.025060	35.660000
1777.838530	33.940000
1779.649847	35.670000
1781.462544	35.130000
1783.274856	37.390000
1785.083249	35.100000
1786.893024	37.460000
1788.698884	38.330000
1790.507889	32.590000
1792.312981	33.720000
1794.119454	30.820000
1795.925543	38.510000
1797.727721	37.470000
1799.533044	36.140000
1801.334458	33.140000
1803.137252	42.560000
1804.936140	31.150000
1806.736409	36.740000
1808.536296	32.360000
1810.334041	34.110000
1812.131406	34.900000
1813.928391	38.390000
1815.724995	31.360000
1817.519460	35.580000
1819.315304	34.850000
1821.105493	34.270000
1822.900579	32.800000
1824.690013	32.790000
1826.482583	37.720000
1828.273018	36.780000
1830.061319	35.900000
1831.852755	31.180000
1833.638545	32.600000
1835.425715	34.040000
1837.210753	34.680000
1838.998925	30.900000
1840.783211	33.480000
1842.565367	29.990000
1844.348903	41.020000
1846.130310	34.520000
1847.913096	35.410000
1849.692001	38.800000
1851.472285	39.210000
1853.250444	37.710000
1855.029981	39.760000
1856.807392	32.000000
1858.582681	31.650000
1860.359347	36.290000
1862.133891	38.210000
1863.909813	31.320000
1865.680114	36.580000
1867.453543	36.200000
1869.224852	33.440000
1870.995790	37.680000
1872.768106	36.670000
1874.534808	34.200000
1876.304635	31.510000
1878.070599	31.500000
1879.839687	37.170000
1881.604913	35.790000
1883.369771	39.450000
1885.136006	34.900000
1886.898382	35.970000
1888.660390	37.300000
1890.422032	30.300000
1892.183307	34.420000
1893.944214	36.570000
1895.704755	36.590000
1897.463186	33.250000
1899.221251	34.850000
1900.977209	39.360000
1902.734543	36.690000
1904.491512	37.220000
1906.246374	43.570000
1907.999132	33.970000
1909.751525	39.520000
1911.505295	34.760000
1913.256961	31.700000
1915.006525	37.780000
1916.757464	38.550000
1918.508041	34.580000
1920.254778	35.640000
1922.002892	37.640000
1923.748906	35.490000
1925.496295	32.890000
1927.241587	34.630000
1928.984781	34.430000
1930.729350	28.090000
1932.471823	31.920000
1934.213937	35.890000
1935.955690	39.160000
1937.697083	35.780000
1939.436383	33.780000
1941.175324	39.680000
1942.913906	35.680000
1944.650397	36.650000
1946.386530	36.965000
1948.124037	37.280000
1949.857722	33.480000
1951.592782	36.490000
1953.325753	38.410000
1955.058368	32.970000
1956.790627	37.370000
1958.522529	38.360000
1960.252345	37.180000
1961.980076	35.550000
1963.709182	33.400000
1965.437932	37.490000
1967.164600	30.570000
1968.890913	28.840000
1970.618599	32.180000
1972.340749	31.800000
1974.066000	35.000000
1975.787444	35.080000
1977.511989	33.480000
1979.234453	33.540000
1980.953115	36.770000
1982.674875	34.970000
1984.392833	38.180000
1986.112164	30.260000
1987.827696	30.800000
1989.548048	28.820000
1991.264602	33.300000
1992.977359	33.470000
1994.693212	32.410000
1996.406993	36.410000
1998.120424	36.640000
1999.831784	35.900000
2001.544516	34.770000
2003.253458	40.650000
2004.965492	35.970000
2006.672017	34.100000
2008.381635	38.140000
2010.089185	35.550000
2011.796388	37.270000
2013.501525	36.340000
2015.206316	38.950000
2016.912478	35.780000
2018.614858	37.920000
2020.318609	38.010000
2022.020298	34.290000
2023.721641	32.430000
2025.422640	37.540000
2027.121577	34.240000
2028.821886	38.750000
2030.518419	35.790000
2032.216324	29.160000
2033.912171	37.090000
2035.611103	36.520000
2037.304549	31.110000
2038.999366	35.810000
2040.693841	37.770000
2042.384547	34.900000
2044.078337	36.130000
2045.768360	41.120000
2047.459754	33.700000
2049.149095	36.140000
2050.839806	33.640000
2052.526754	37.790000
2054.213363	36.170000
2055.901341	33.710000
2057.585560	37.380000
2059.271150	36.900000
2060.956400	32.570000
2062.639601	35.720000
2064.324173	31.630000
2066.003281	32.350000
2067.687176	35.170000
2069.365609	34.970000
2071.047120	33.900000
2072.724879	34.700000
2074.402302	32.750000
2076.081094	34.670000
2077.757844	32.970000
2079.432551	37.840000
2081.108629	31.820000
2082.782665	33.620000
2084.456367	30.420000
2086.129733	36.860000
2087.801060	31.600000
2089.472053	37.760000
2091.142712	33.710000
2092.813037	29.540000
2094.483028	29.730000
2096.150983	31.320000
2097.818605	34.260000
2099.484192	32.390000
2101.151148	36.630000
2102.816071	31.290000
2104.480662	34.450000
2106.143221	31.550000
2107.807148	32.390000
2109.469044	32.020000
2111.130610	36.200000
2112.791844	28.780000
2114.451050	35.550000
2116.109925	41.620000
2117.768471	33.670000
2119.426686	41.440000
2121.081179	33.220000
2122.738736	34.390000
2124.395963	37.020000
2126.049470	34.690000
2127.704344	40.250000
2129.355499	35.050000
2131.009717	36.650000
2132.660217	33.780000
2134.312085	29.980000
2135.958544	38.470000
2137.609758	30.650000
2139.257258	35.180000
2140.906125	34.180000
2142.552973	37.750000
2144.199496	35.000000
2145.845693	34.660000
2147.488182	30.730000
2149.133729	30.620000
2150.775569	32.530000
2152.420466	38.470000
2154.061657	34.230000
2155.702526	26.800000
2157.343070	37.560000
2158.981602	34.790000
2160.621500	34.240000
2162.257698	36.200000
2163.895262	31.120000
2165.532504	40.160000
2167.167736	36.180000
2168.802646	36.500000
2170.437235	27.450000
2172.071503	38.390000
2173.702077	36.050000
2175.335703	29.930000
2176.965637	34.790000
2178.596936	33.410000
2180.226230	34.540000
2181.855205	32.670000
2183.483860	33.760000
2185.112196	34.330000
2186.738530	37.790000
2188.364545	37.570000
2189.988558	30.670000
2191.613937	35.980000
2193.237315	33.090000
2194.862058	37.190000
2196.483120	34.760000
2198.103865	36.730000
2199.725974	29.350000
2201.346086	31.090000
2202.964202	31.680000
2204.582002	34.050000
2206.199487	34.090000
2207.816656	32.140000
2209.433510	33.970000
2211.050048	30.470000
2212.664594	40.760000
2214.277147	27.730000
2215.891064	30.490000
2217.502990	36.050000
2219.116279	35.550000
2220.727578	35.020000
2222.336887	37.880000
2223.947560	32.820000
2225.556244	33.440000
2227.164615	28.780000
2228.771000	37.000000
2230.378747	34.530000
2231.984509	38.260000
2233.589959	32.730000
2235.193424	31.720000
2236.798252	33.540000
2238.401096	33.830000
2240.001957	33.030000
2241.604181	35.800000
2243.204423	40.050000
2244.806027	30.360000
2246.403978	31.110000
2248.003292	34.980000
2249.600626	33.050000
2251.197652	32.620000
2252.796040	32.360000
2254.390779	30.840000
2255.983541	33.060000
2257.577666	31.230000
2259.173152	33.040000
2260.764993	32.900000
2262.356528	30.930000
2263.949425	39.680000
2265.537012	32.960000
2267.129295	33.440000
2268.716272	31.860000
2270.306276	35.570000
2271.890976	30.790000
2273.480370	32.160000
2275.064462	34.940000
2276.649914	31.200000
2278.233398	34.870000
2279.819907	34.470000
2281.402783	34.060000
2282.985356	32.750000
2284.567625	35.480000
2286.146264	36.870000
2287.727928	35.310000
2289.305963	33.210000
2290.887021	33.070000
2292.464452	33.750000
2294.039920	34.430000
2295.618410	31.820000
2297.193276	30.150000
2298.767841	32.800000
2300.342105	30.190000
2301.916070	31.330000
2303.489733	32.530000
2305.063097	35.150000
2306.632842	31.980000
2308.202288	38.020000
2309.774752	31.060000
2311.341942	32.170000
2312.912150	27.700000
2314.478743	33.470000
2316.046696	33.270000
2317.612693	33.320000
2319.178393	35.580000
2320.743795	34.470000
2322.307244	33.250000
2323.872052	36.850000
2325.433252	37.250000
2326.997466	45.820000
2328.556418	54.330000
2330.118384	41.790000
2331.678400	34.470000
2333.238121	37.610000
2334.795892	29.000000
2336.353368	31.480000
2337.910550	30.100000
2339.465784	33.060000
2341.020725	26.540000
2342.575371	31.310000
2344.129724	27.940000
2345.683783	32.230000
2347.237549	37.670000
2348.789370	28.270000
2350.339249	35.190000
2351.892135	31.180000
2353.439778	33.760000
2354.990430	32.620000
2356.537490	32.280000
2358.085908	27.510000
2359.634035	35.730000
2361.178573	29.430000
2362.724469	30.750000
2364.268427	37.940000
2365.813741	33.060000
2367.355472	33.900000
2368.898559	34.140000
2370.439710	28.590000
2371.980572	35.540000
2373.521145	30.940000
2375.061429	35.810000
2376.601424	35.450000
2378.137841	33.850000
2379.677259	33.810000
2381.213099	33.090000
2382.750297	36.770000
2384.283919	32.990000
2385.820541	37.430000
2387.355233	32.500000
2388.887995	33.030000
2390.420470	37.050000
2391.951017	33.570000
2393.484562	37.220000
2395.012896	35.370000
2396.542586	37.150000
2398.071991	32.310000
2399.601111	32.620000
2401.129945	30.430000
2402.653575	31.130000
2404.181840	35.030000
2405.704903	33.730000
2407.232599	36.820000
2408.753456	34.130000
2410.278945	29.730000
2411.800875	33.780000
2413.324159	41.120000
2414.845523	38.910000
2416.364967	36.380000
2417.885766	39.710000
2419.404646	34.940000
2420.923245	36.440000
2422.439926	33.180000
2423.957961	34.450000
2425.475715	33.690000
2426.989917	33.900000
2428.503840	36.400000
2430.017482	40.530000
2431.532479	41.250000
2433.043927	36.180000
2434.556729	41.300000
2436.067619	44.990000
2437.578230	43.110000
2439.086929	35.690000
2440.598614	45.050000
2442.106756	43.790000
2443.614620	41.840000
2445.122206	46.490000
2446.626251	43.950000
2448.133281	40.470000
2449.638403	43.080000
2451.143248	40.420000
2452.646186	46.610000
2454.148848	40.570000
2455.651233	39.890000
2457.151713	41.580000
2458.653546	43.790000
2460.153474	41.990000
2461.653127	41.870000
2463.152505	42.030000
2464.649980	39.270000
2466.145553	45.090000
2467.644106	41.710000
2469.139131	37.330000
2470.635508	35.370000
2472.128359	43.140000
2473.622563	36.940000
2475.116493	37.570000
2476.606899	46.230000
2478.100283	39.090000
2479.591769	39.040000
2481.081358	39.600000
2482.570675	29.270000
2484.058096	38.420000
2485.548493	35.820000
2487.035372	35.720000
2488.523602	36.770000
2490.008315	36.500000
2491.492759	33.900000
2492.978553	35.350000
2494.462456	38.610000
2495.947709	36.830000
2497.427829	36.760000
2498.910922	33.330000
2500.392124	38.340000
2501.873057	36.750000
2503.352101	39.980000
2504.830876	34.960000
2506.309383	32.610000
2507.787622	39.310000
2509.265592	34.910000
2510.740057	39.560000
2512.217492	42.350000
2513.691423	35.740000
2515.166704	35.240000
2516.641718	32.170000
2518.113231	37.260000
2519.586095	40.200000
2521.057076	37.670000
2522.529407	35.930000
2523.996624	38.240000
2525.466808	39.170000
2526.935111	31.750000
2528.403149	30.340000
2529.870922	38.270000
2531.338430	38.430000
2532.805673	37.490000
2534.269424	29.800000
2535.734525	37.190000
2537.197749	36.470000
2538.662322	38.260000
2540.123407	38.740000
2541.585841	37.290000
2543.048012	29.100000
2544.506697	30.800000
2545.969953	40.460000
2547.428114	31.180000
2548.887623	37.310000
2550.342038	40.420000
2551.801024	36.110000
2553.258138	29.760000
2554.713380	32.060000
2556.168362	34.700000
2557.621475	30.590000
2559.075935	34.140000
2560.528527	41.270000
2561.980859	38.460000
2563.431324	34.230000
2564.884744	36.610000
2566.333082	37.560000
2567.784375	36.860000
2569.233803	36.670000
2570.679758	32.660000
2572.128668	31.860000
2573.574108	36.900000
2575.020895	37.630000
2576.465819	35.360000
2577.910486	34.820000
2579.356500	39.300000
2580.799048	34.460000
2582.242943	44.300000
2583.683372	34.860000
2585.125150	36.930000
2586.565068	40.290000
2588.006333	36.530000
2589.444136	36.020000
2590.884889	38.440000
2592.320580	35.780000
2593.759220	35.370000
2595.196002	33.620000
2596.630929	39.700000
2598.068803	39.590000
2599.501620	33.410000
2600.935784	37.650000
2602.368094	38.820000
2603.801750	40.650000
2605.233553	35.350000
2606.665102	37.540000
2608.096399	42.300000
2609.525843	37.170000
2610.955035	36.550000
2612.382377	45.490000
2613.811064	35.260000
2615.239500	36.510000
2616.664488	39.110000
2618.090823	45.700000
2619.515309	40.670000
2620.941141	47.440000
2622.363529	44.930000
2623.787263	44.720000
2625.209150	42.810000
2626.630788	45.390000
2628.050580	41.060000
2629.471718	51.590000
2630.892606	45.510000
2632.310055	48.000000
2633.730445	46.970000
2635.147397	47.470000
2636.564100	50.060000
2637.980555	47.110000
2639.396762	50.610000
2640.812721	47.530000
2642.226839	51.670000
2643.640709	51.440000
2645.052741	50.770000
2646.466116	52.890000
2647.876062	47.880000
2649.288944	53.730000
2650.698397	57.680000
2652.107604	54.620000
2653.514975	56.150000
2654.925280	61.160000
2656.333750	60.690000
2657.740384	64.270000
2659.146773	60.380000
2660.551328	63.090000
2661.957227	64.620000
2663.361293	65.310000
2664.765114	68.820000
2666.168691	71.110000
2667.570437	79.200000
2668.973526	77.510000
2670.373197	75.760000
2671.774212	81.240000
2673.171811	84.240000
2674.572339	80.260000
2675.969453	83.880000
2677.367910	85.630000
2678.764540	91.600000
2680.160927	83.950000
2681.557072	90.890000
2682.951391	90.770000
2684.347053	88.820000
2685.739306	98.550000
2687.132901	94.930000
2688.524672	96.990000
2689.917786	101.460000
2691.309076	93.290000
2692.698543	98.750000
2694.087770	92.100000
2695.476758	100.290000
2696.867087	99.660000
2698.252433	104.210000
2699.640702	102.040000
2701.027151	103.890000
2702.413361	107.890000
2703.799332	110.590000
2705.181905	113.330000
2706.565820	118.520000
2707.949497	116.020000
2709.332935	120.880000
2710.712978	126.940000
2712.094363	125.140000
2713.473933	133.860000
2714.854843	133.750000
2716.233939	136.550000
2717.611221	138.300000
2718.989844	136.380000
2720.366653	138.950000
2721.743227	136.630000
2723.119565	132.180000
2724.494092	129.470000
2725.869959	124.480000
2727.242439	121.000000
2728.617835	119.750000
2729.988271	113.080000
2731.360048	109.510000
2732.731590	103.870000
2734.101324	100.390000
2735.472399	94.450000
2736.841665	93.890000
2738.210698	83.400000
2739.577925	85.070000
2740.944918	78.930000
2742.311679	77.960000
2743.678208	78.870000
2745.042931	72.330000
2746.407422	70.000000
2747.771682	70.620000
2749.135709	60.980000
2750.499505	58.620000
2751.859927	56.820000
2753.223259	55.900000
2754.581649	49.210000
2755.942949	52.150000
2757.300879	47.490000
2758.661717	47.120000
2760.020756	52.050000
2761.376426	44.390000
2762.735004	38.070000
2764.090215	39.750000
2765.445197	41.970000
2766.798382	40.760000
2768.154474	41.080000
2769.507202	34.700000
2770.859702	37.450000
2772.211973	39.620000
2773.565582	40.410000
2774.915831	39.360000
2776.264285	36.810000
2777.615644	34.990000
2778.963645	36.880000
2780.312983	37.580000
2781.660529	39.050000
2783.007849	33.720000
2784.354942	37.200000
2785.700243	33.150000
2787.045319	31.200000
2788.390169	37.850000
2789.734793	33.210000
2791.076065	35.580000
2792.418675	36.180000
2793.761059	37.420000
2795.103218	40.910000
2796.442028	32.770000
2797.783738	31.960000
2799.122099	25.270000
2800.461798	37.820000
2801.799712	32.520000
2803.135841	28.260000
2804.471746	34.030000
2805.808989	33.740000
2807.144448	32.360000
2808.479684	34.410000
2809.813137	32.150000
2811.147927	33.650000
2812.479377	36.480000
2813.813722	30.810000
2815.143169	31.440000
2816.473952	33.090000
2817.804515	29.590000
2819.133298	29.590000
2820.463417	31.000000
2821.791758	31.460000
2823.119878	27.430000
2824.446220	33.300000
2825.773899	29.030000
2827.098244	34.130000
2828.423926	36.140000
2829.747832	33.240000
2831.071518	31.680000
2832.396541	29.700000
2833.718233	27.250000
2835.039707	30.150000
2836.360962	26.520000
2837.681998	26.170000
2839.001261	26.690000
2840.321860	34.920000
2841.640688	32.590000
2842.959297	32.150000
2844.276135	31.090000
2845.592756	29.140000
2846.909160	28.900000
2848.223794	25.800000
2849.539764	30.550000
2850.852413	27.040000
2852.166397	31.380000
2853.480165	29.170000
2854.793716	27.190000
2856.105501	29.470000
2857.415519	30.820000
2858.726872	31.440000
2860.034910	28.770000
2861.344282	24.510000
2862.653440	32.950000
2863.962382	29.040000
2865.269560	30.280000
2866.574976	25.670000
2867.881725	27.480000
2869.186713	26.490000
2870.491486	27.520000
2871.794499	29.570000
2873.100392	28.190000
2874.401431	31.840000
2875.703804	27.510000
2877.004417	25.380000
2878.306364	27.790000
2879.608097	32.150000
2880.906527	31.420000
2882.206290	33.170000
2883.504296	32.650000
2884.802090	25.160000
2886.098128	29.890000
2887.395499	28.160000
2888.691114	25.940000
2889.986518	28.640000
2891.281711	29.910000
2892.573607	27.440000
2893.868379	25.750000
2895.159854	31.350000
2896.452662	27.480000
2897.745260	26.040000
2899.034564	30.510000
2900.325200	26.440000
2901.614085	26.300000
2902.904302	25.190000
2904.191228	29.880000
2905.479486	30.180000
2906.765995	27.350000
2908.052295	23.550000
2909.338388	24.000000
2910.622732	30.850000
2911.909947	28.520000
2913.192336	28.710000
2914.476057	25.140000
2915.758032	26.900000
2917.039799	26.980000
2918.319821	21.640000
2919.602714	32.170000
2920.883861	26.010000
2922.161726	25.590000
2923.442460	27.050000
2924.719913	32.460000
2925.997160	29.060000
2927.272665	27.520000
2928.551038	30.830000
2929.824597	26.600000
2931.101023	26.790000
2932.375708	26.800000
2933.648652	26.450000
2934.922928	28.140000
2936.195464	27.400000
2937.467795	26.200000
2938.736854	23.710000
2940.008778	30.370000
2941.278964	24.220000
2942.548946	25.770000
2943.818725	28.710000
2945.086768	29.270000
2946.353074	25.330000
2947.619179	30.110000
2948.886613	28.900000
2950.152312	29.430000
2951.417810	24.410000
2952.683105	25.570000
2953.945135	29.000000
2955.208495	29.770000
2956.471654	27.420000
2957.733081	25.620000
2958.995837	24.800000
2960.256861	25.910000
2961.516155	27.880000
2962.775249	28.770000
2964.034142	21.870000
2965.292835	24.310000
2966.551328	26.040000
2967.808092	25.730000
2969.064656	26.430000
2970.319492	25.820000
2971.575658	32.190000
2972.828569	27.290000
2974.082809	28.410000
2975.336849	25.620000
2976.589164	26.380000
2977.841281	22.140000
2979.091673	25.950000
2980.344920	29.790000
2981.593390	22.400000
2982.844715	30.800000
2984.092790	26.680000
2985.340668	22.060000
2986.588350	24.080000
2987.835834	24.310000
2989.081597	27.490000
2990.327164	30.590000
2991.574058	27.890000
2992.817708	27.110000
2994.062686	23.820000
2995.304420	27.660000
2996.549006	25.870000
2997.791873	23.920000
2999.031499	27.030000
3000.273975	22.160000
3001.513211	24.840000
3002.753775	23.210000
3003.992622	28.520000
3005.231275	26.170000
3006.468212	21.780000
3007.706477	26.270000
3008.943026	25.390000
3010.179382	21.230000
3011.415544	25.840000
3012.649992	22.120000
3013.884248	26.350000
3015.118310	30.350000
3016.350659	25.780000
3017.581298	24.630000
3018.814782	30.110000
3020.046554	26.560000
3021.276616	30.960000
3022.506485	25.150000
3023.734645	24.230000
3024.964132	25.480000
3026.191909	26.620000
3027.419495	28.370000
3028.648407	30.090000
3029.872578	21.020000
3031.099591	28.310000
3032.323380	30.250000
3033.548496	32.140000
3034.771905	20.930000
3035.995124	22.050000
3037.216638	28.950000
3038.440993	26.640000
3039.660613	29.090000
3040.881559	28.790000
3042.102316	26.770000
3043.321369	27.070000
3044.541747	24.780000
3045.758909	26.410000
3046.977397	23.400000
3048.194182	23.340000
3049.410780	22.700000
3050.627189	29.460000
3051.840385	29.760000
3053.056420	24.820000
3054.269242	26.060000
3055.484901	25.880000
3056.695837	26.500000
3057.908098	23.830000
3059.120172	29.920000
3060.332060	25.090000
3061.542251	20.000000
3062.752255	25.390000
3063.962073	26.310000
3065.170195	26.700000
3066.378132	25.640000
3067.584373	26.330000
3068.791939	23.350000
3069.997810	25.350000
3071.203497	27.350000
3072.408998	22.610000
3073.612806	22.230000
3074.817938	27.530000
3076.021377	27.590000
3077.223125	28.990000
3078.424688	25.820000
3079.626068	22.910000
3080.827264	27.660000
3082.026770	23.710000
3083.226093	25.900000
3084.426739	26.300000
3085.625695	16.580000
3086.821457	26.560000
3088.020048	22.510000
3089.215445	20.320000
3090.412165	21.400000
3091.605693	23.210000
3092.802049	25.150000
3093.996718	23.370000
3095.188197	28.810000
3096.384008	20.060000
3097.575124	27.920000
3098.767564	23.490000
3099.956816	24.780000
3101.148893	27.490000
3102.339287	20.180000
3103.526495	25.650000
3104.715025	24.250000
3105.904878	19.910000
3107.091547	22.430000
3108.278035	28.080000
3109.464345	21.370000
3110.651976	21.390000
3111.836425	23.430000
3113.019195	22.970000
3114.204787	29.470000
3115.388700	25.210000
3116.570934	23.220000
3117.752989	26.890000
3118.934866	20.070000
3120.116565	19.340000
3121.296587	25.860000
3122.474932	23.700000
3123.656097	23.550000
3124.834087	23.430000
3126.011900	27.600000
3127.189536	29.580000
3128.365498	19.070000
3129.541282	22.980000
3130.718388	25.920000
3131.893819	22.340000
3133.067577	26.560000
3134.239662	27.960000
3135.413069	22.600000
3136.586299	24.430000
3137.757858	22.610000
3138.930737	24.910000
3140.100449	22.940000
3141.271482	25.110000
3142.440845	24.810000
3143.608537	26.050000
3144.779045	23.300000
3145.944895	23.690000
3147.115053	26.310000
3148.280555	25.100000
3149.445882	24.670000
3150.611036	25.020000
3151.776017	25.180000
3152.942317	23.860000
3154.103965	24.980000
3155.266932	23.150000
3156.429727	26.100000
3157.592349	21.000000
3158.753305	19.360000
3159.914090	25.750000
3161.074702	27.360000
3162.233650	19.200000
3163.392427	19.790000
3164.551031	27.260000
3165.709464	23.990000
3166.867726	25.470000
3168.024325	21.520000
3169.179263	25.160000
3170.335520	24.930000
3171.490116	24.370000
3172.644542	22.560000
3173.797308	23.010000
3174.949903	25.800000
3176.102329	24.780000
3177.254585	22.660000
3178.406670	21.060000
3179.555609	26.080000
3180.707356	20.580000
3181.857444	25.540000
3183.005876	22.550000
3184.154138	26.050000
3185.302232	25.600000
3186.450157	27.380000
3187.596426	26.230000
3188.742527	25.480000
3189.886974	23.930000
3191.031253	22.790000
3192.175364	20.170000
3193.320792	17.000000
3194.463082	23.020000
3195.605205	26.220000
3196.747160	20.780000
3197.888948	22.820000
3199.030569	20.910000
3200.169055	29.070000
3201.308858	21.390000
3202.449978	22.510000
3203.587965	20.250000
3204.724302	23.720000
3205.860473	19.550000
3206.997961	20.040000
3208.133801	18.460000
3209.270958	27.390000
3210.403502	28.270000
3211.540328	24.370000
3212.672542	23.210000
3213.806073	26.520000
3214.939440	22.060000
3216.069679	21.280000
3217.202716	20.820000
3218.332627	17.690000
3219.463854	18.480000
3220.591957	18.370000
3221.722856	23.370000
3222.852111	20.600000
3223.979723	24.080000
3225.104212	24.170000
3226.232977	23.500000
3227.358620	22.100000
3228.484101	19.330000
3229.607939	21.550000
3230.734573	26.110000
3231.856609	22.110000
3232.979961	19.710000
3234.103151	25.820000
3235.226178	28.420000
3236.347567	27.470000
3237.468793	34.690000
3238.588382	28.390000
3239.707809	27.940000
3240.825598	29.290000
3241.946179	28.350000
3243.063647	27.690000
3244.180954	33.470000
3245.298101	29.950000
3246.413611	28.370000
3247.530437	26.120000
3248.644153	27.600000
3249.760658	31.820000
3250.875529	25.530000
3251.987290	28.380000
3253.098893	29.470000
3254.211811	22.790000
3255.324569	25.160000
3256.434221	20.840000
3257.545188	21.870000
3258.655996	26.450000
3259.765172	26.820000
3260.872717	22.940000
3261.981577	20.020000
3263.090279	23.290000
3264.195878	23.360000
3265.302791	22.600000
3266.408075	18.870000
3267.514673	22.010000
3268.618171	27.790000
3269.722984	21.960000
3270.827638	24.850000
3271.929195	23.050000
3273.030595	18.920000
3274.133309	19.770000
3275.235867	22.100000
3276.335328	20.640000
3277.437573	18.320000
3278.536722	25.960000
3279.634247	24.130000
3280.731616	21.910000
3281.831767	27.270000
3282.928826	23.830000
3284.025729	19.190000
3285.122477	20.010000
3286.214666	19.820000
3287.311105	23.850000
3288.405921	20.210000
3289.500583	18.860000
3290.593623	20.230000
3291.686508	21.190000
3292.777773	24.220000
3293.870351	20.050000
3294.961309	19.050000
3296.050647	24.820000
3297.139832	23.610000
3298.230330	18.120000
3299.317743	23.140000
3300.405003	21.220000
3301.493576	19.460000
3302.581996	19.860000
3303.665870	15.660000
3304.753985	22.150000
3305.839018	21.960000
3306.922436	24.500000
3308.007166	26.230000
3309.090280	20.560000
3310.174707	21.480000
3311.256055	22.180000
3312.338715	14.890000
3313.419761	18.960000
3314.500656	25.850000
3315.579937	26.900000
3316.659068	16.770000
3317.739511	17.020000
3318.816879	18.790000
3319.895559	19.340000
3320.972627	18.610000
3322.049546	18.490000
3323.124853	18.690000
3324.200011	15.830000
3325.276480	23.770000
3326.349879	18.980000
3327.423128	26.950000
3328.497689	22.650000
3329.570641	18.850000
3330.641984	21.140000
3331.714638	24.190000
3332.784226	20.760000
3333.855124	24.130000
3334.924415	16.810000
3335.995017	20.580000
3337.064012	23.320000
3338.131401	15.220000
3339.197185	22.370000
3340.267195	22.140000
3341.334142	18.270000
3342.398027	20.620000
3343.464679	25.690000
3344.529728	25.180000
3345.593173	24.220000
3346.656472	22.740000
3347.719624	23.960000
3348.782630	17.730000
3349.845490	23.650000
3350.906748	21.470000
3351.964949	21.220000
3353.027370	21.200000
3354.086736	21.450000
3355.145956	22.070000
3356.206485	16.810000
3357.262506	22.500000
3358.321290	25.580000
3359.375567	19.430000
3360.432608	18.390000
3361.488050	19.740000
3362.544802	23.350000
3363.599955	22.170000
3364.653511	22.830000
3365.705471	23.160000
3366.760192	23.110000
3367.811864	21.980000
3368.863393	19.860000
3369.916230	16.720000
3370.966020	19.500000
3372.017119	21.740000
3373.065172	16.610000
3374.115984	20.400000
3375.163752	21.010000
3376.211376	17.780000
3377.258859	15.280000
3378.304749	19.940000
3379.351947	16.390000
3380.396103	20.260000
3381.443017	21.770000
3382.488339	15.610000
3383.530620	20.870000
3384.572760	17.550000
3385.616209	23.720000
3386.659516	18.990000
3387.701233	28.150000
3388.742810	20.560000
3389.784245	16.900000
3390.824092	17.000000
3391.862350	22.680000
3392.901916	18.980000
3393.941342	18.360000
3394.979180	13.270000
3396.015431	20.170000
3397.051543	21.350000
3398.088962	23.430000
3399.123348	20.560000
3400.159041	18.060000
3401.194595	18.660000
3402.227118	18.670000
3403.262394	22.710000
3404.294639	22.070000
3405.326746	23.530000
3406.357269	16.050000
3407.389099	19.410000
3408.420791	25.070000
3409.449455	16.250000
3410.477982	19.880000
3411.507815	20.170000
3412.537511	16.330000
3413.564181	16.720000
3414.592157	17.340000
3415.617110	14.090000
3416.644812	18.300000
3417.669491	19.940000
3418.695476	16.010000
3419.719881	20.240000
3420.744150	17.360000
3421.766840	16.300000
3422.789394	22.650000
3423.813254	17.660000
3424.834094	20.690000
3425.854798	22.280000
3426.876809	18.030000
3427.895801	23.370000
3428.914657	14.840000
3429.934820	20.250000
3430.951966	14.960000
