-118.304647	-0.290000
-115.635047	-1.140000
-112.968382	-1.650000
-110.302469	1.680000
-107.639489	6.210000
-104.975078	5.940000
-102.313598	0.070000
-99.650689	1.510000
-96.992886	1.660000
-94.333654	-0.150000
-91.675170	1.120000
-89.019611	-5.020000
-86.362622	-0.070000
-83.710732	3.890000
-81.057412	4.300000
-78.407011	1.570000
-75.755182	3.460000
-73.108442	8.020000
-70.460274	4.480000
-67.812848	3.610000
-65.168337	3.000000
-62.522396	-0.880000
-59.881537	2.610000
-57.239249	4.920000
-54.599870	2.870000
-51.959061	5.140000
-49.318993	1.920000
-46.683998	6.900000
-44.047573	6.520000
-41.414051	6.250000
-38.779101	14.390000
-36.149216	5.550000
-33.515739	9.700000
-30.887324	7.970000
-28.259643	12.610000
-25.630533	6.340000
-23.006480	22.270000
-20.378838	14.650000
-17.756249	32.980000
-15.134392	32.410000
-12.513265	65.280000
-9.892869	158.260000
-7.275360	512.290000
-4.656423	1749.270000
-2.040371	5795.830000
0.574952	10941.850000
3.189547	5801.180000
5.801261	677.680000
8.414403	89.050000
11.022511	43.080000
13.634201	29.790000
16.240860	16.940000
18.848947	24.700000
21.456310	15.760000
24.058648	18.140000
26.664564	6.110000
29.265458	10.250000
31.867780	1.830000
34.465085	9.450000
37.065965	8.450000
39.661830	8.350000
42.259124	7.930000
44.855698	5.780000
47.447263	0.650000
50.040256	2.490000
52.630388	5.440000
55.221947	5.780000
57.810648	-1.030000
60.400775	5.000000
62.985903	-1.220000
65.572459	10.030000
68.158301	2.370000
70.741289	5.600000
73.325703	2.040000
75.902989	4.690000
78.483841	-0.780000
81.061844	8.530000
83.639137	-2.080000
86.217856	-4.680000
88.791593	2.740000
91.366758	1.730000
93.939079	0.950000
96.510692	6.450000
99.079465	0.510000
101.649665	2.360000
104.217026	1.550000
106.785814	3.170000
109.351765	1.550000
111.914881	3.120000
114.481553	4.590000
117.039004	1.930000
119.602140	2.310000
122.160316	10.890000
124.722047	9.020000
127.278821	21.630000
129.837021	18.740000
132.390269	27.590000
134.942819	38.950000
137.498919	59.620000
140.050071	72.420000
142.600526	87.590000
145.150283	90.120000
147.697221	102.280000
150.243464	99.020000
152.791132	109.480000
155.338104	107.990000
157.880141	104.880000
160.421484	99.330000
162.962134	102.690000
165.504210	98.320000
168.043474	108.480000
170.579930	99.610000
173.115694	105.170000
175.652884	102.660000
178.189383	103.170000
180.723076	99.420000
183.253965	101.430000
185.784166	100.580000
188.315793	105.160000
190.844618	98.190000
193.370644	100.350000
195.895984	91.080000
198.422749	104.970000
200.946718	98.590000
203.470002	95.730000
205.992601	101.320000
208.512407	95.070000
211.031529	99.280000
213.549970	99.510000
216.069834	95.100000
218.582697	103.430000
221.099091	100.390000
223.614803	101.220000
226.125625	100.250000
228.637872	108.140000
231.147337	100.890000
233.656122	105.190000
236.164230	100.760000
238.673762	111.880000
241.178413	105.660000
243.682388	106.550000
246.187787	109.250000
248.688311	114.680000
251.192358	109.870000
253.689435	110.690000
256.190035	104.730000
258.687863	112.880000
261.185018	108.620000
263.681500	108.910000
266.173119	110.120000
268.668258	107.120000
271.160630	109.860000
273.652332	115.020000
276.141271	111.990000
278.631633	111.170000
281.119234	107.930000
283.604075	122.620000
286.092431	113.900000
288.573847	113.310000
291.058777	115.190000
293.538862	117.040000
296.022459	113.820000
298.501213	124.600000
300.981390	116.780000
303.458816	121.950000
305.935578	119.130000
308.411676	126.330000
310.885027	119.980000
313.357715	134.100000
315.829742	138.060000
318.301108	154.770000
320.769729	163.990000
323.237692	168.170000
325.707076	150.100000
328.171638	145.230000
330.639704	133.140000
333.102950	128.000000
335.565538	130.160000
338.027470	128.620000
340.488745	128.720000
342.947286	133.770000
345.407249	129.000000
347.864479	132.110000
350.321055	127.620000
352.776977	130.680000
355.230169	125.510000
357.684784	134.680000
360.134597	123.580000
362.587906	134.760000
365.036416	132.580000
367.484276	129.540000
369.933558	123.560000
372.378046	130.640000
374.823956	124.780000
377.269216	126.760000
379.711758	124.280000
382.153652	135.030000
384.594899	119.860000
387.033430	126.570000
389.473382	125.420000
391.910622	129.430000
394.345149	127.490000
396.783164	133.360000
399.216402	128.790000
401.651061	128.800000
404.080948	129.380000
406.514320	129.430000
408.942922	128.110000
411.370882	125.610000
413.800264	130.470000
416.224880	127.780000
418.650918	125.770000
421.076315	127.330000
423.501072	124.310000
425.921071	127.170000
428.342490	123.730000
430.761214	141.510000
433.181358	132.110000
435.598807	130.480000
438.017676	135.250000
440.433852	131.260000
442.845280	134.660000
445.260185	140.560000
447.672401	133.850000
450.083982	133.710000
452.494929	133.330000
454.903190	129.380000
457.310818	125.410000
459.717814	131.830000
462.124179	127.460000
464.527861	129.540000
466.930913	123.070000
469.333335	121.660000
471.735127	119.690000
474.134241	120.270000
476.534775	118.240000
478.934680	121.830000
481.329863	126.770000
483.728512	128.030000
486.122440	123.590000
488.515743	123.840000
490.908421	120.250000
493.300473	117.580000
495.693943	111.930000
498.082701	112.480000
500.468793	109.720000
502.856305	98.560000
505.243194	94.100000
507.627419	91.220000
510.013062	87.070000
512.396044	81.250000
514.776365	84.710000
517.158105	82.340000
519.537186	76.670000
521.917686	77.610000
524.295528	65.220000
526.670714	73.990000
529.045284	66.650000
531.421271	72.370000
533.794606	62.430000
536.169358	72.340000
538.539425	62.530000
540.908876	73.640000
543.279745	62.990000
545.645933	65.780000
548.013540	65.680000
550.378502	58.660000
552.742850	62.410000
555.106585	67.560000
557.471738	55.970000
559.832219	60.510000
562.194118	60.000000
564.553376	60.180000
566.909996	61.000000
569.270062	59.440000
571.623436	57.690000
573.980255	57.510000
576.334439	53.850000
578.688014	56.090000
581.040982	57.910000
583.391317	58.740000
585.743070	59.190000
588.088146	55.400000
590.438685	51.650000
592.782552	60.520000
595.131880	58.180000
597.476559	66.200000
599.818614	53.750000
602.162086	55.120000
604.502935	55.220000
606.843181	61.190000
609.180808	51.380000
611.521869	54.150000
613.858292	51.710000
616.196132	50.240000
618.531355	49.200000
620.863962	49.450000
623.197985	51.000000
625.529394	53.020000
627.860205	48.000000
630.190419	54.910000
632.520034	49.630000
634.845026	49.200000
637.175460	49.930000
639.501273	47.680000
641.824478	40.080000
644.149100	43.100000
646.471116	51.130000
648.792538	47.920000
651.111358	46.840000
653.431593	44.690000
655.751235	43.810000
658.068276	48.130000
660.384725	43.310000
662.698576	43.680000
665.013843	41.830000
667.326513	46.550000
669.640598	38.140000
671.950083	45.910000
674.260984	40.970000
676.569292	46.970000
678.877012	42.420000
681.186146	48.920000
683.490688	38.940000
685.794644	46.250000
688.098014	41.970000
690.402798	40.140000
692.702995	35.390000
695.004608	36.580000
697.305635	36.680000
699.602081	39.870000
701.899942	39.350000
704.197219	44.310000
706.493913	37.140000
708.786031	40.640000
711.081560	38.270000
713.372515	40.000000
715.664885	35.630000
717.954680	41.790000
720.243894	37.090000
722.532529	41.190000
724.818591	41.210000
727.106068	43.160000
729.390973	37.700000
731.675301	44.580000
733.957060	39.720000
736.240233	44.060000
738.522829	36.240000
740.800869	39.810000
743.080324	41.810000
745.359202	40.220000
747.637506	41.870000
749.911260	42.410000
752.186427	38.120000
754.461021	45.660000
756.733056	40.260000
759.006504	41.700000
761.277394	42.670000
763.545728	42.510000
765.815475	40.220000
768.082667	51.090000
770.349290	37.260000
772.615342	49.210000
774.878843	46.190000
777.143757	51.680000
779.408101	42.160000
781.667916	52.520000
783.929143	47.310000
786.189803	50.270000
788.447917	45.770000
790.703486	49.400000
792.962446	46.500000
795.214906	47.890000
797.472734	46.950000
799.726043	50.030000
801.976812	44.630000
804.228993	48.060000
806.478635	43.640000
808.729690	46.470000
810.976233	43.220000
813.224188	45.420000
815.469609	40.150000
817.716441	39.850000
819.962712	43.060000
822.204478	44.460000
824.449628	37.330000
826.688305	45.310000
828.930364	38.040000
831.167925	45.240000
833.406898	35.100000
835.643344	41.400000
837.881201	36.480000
840.116533	42.000000
842.349342	32.680000
844.583562	41.310000
846.815259	38.780000
849.046402	39.980000
851.276990	37.670000
853.507024	36.860000
855.736504	32.680000
857.961502	36.450000
860.189875	35.510000
862.413768	38.650000
864.639073	36.770000
866.859902	42.640000
869.084103	41.070000
871.303831	44.040000
873.524969	33.650000
875.745557	36.580000
877.963636	35.810000
880.183124	38.600000
882.398146	38.600000
884.612620	41.710000
886.826547	40.230000
889.039927	37.670000
891.252759	35.310000
893.465045	39.620000
895.674828	31.430000
897.884066	42.570000
900.092759	38.690000
902.298952	38.010000
904.506556	35.530000
906.711661	35.610000
908.916223	35.320000
911.118290	37.000000
913.321766	34.310000
915.522748	33.540000
917.723188	37.410000
919.925037	34.380000
922.120495	35.460000
924.319312	38.620000
926.513690	31.660000
928.711426	38.620000
930.904726	38.990000
933.099435	38.310000
935.291658	34.960000
937.483342	38.200000
939.674489	34.750000
941.863153	37.660000
944.051281	37.670000
946.236928	38.650000
948.425927	33.760000
950.610503	42.270000
952.794544	37.190000
954.981935	42.250000
957.161022	37.340000
959.343460	45.060000
961.525364	47.510000
963.704793	45.770000
965.881750	44.160000
968.060115	48.840000
970.239887	47.750000
972.413310	53.260000
974.590079	44.830000
976.762441	52.650000
978.936211	52.280000
981.105577	54.460000
983.278287	55.830000
985.448532	55.520000
987.618247	54.870000
989.787435	58.890000
991.952225	49.320000
994.120356	59.590000
996.284092	55.010000
998.449236	63.530000
1000.611920	55.670000
1002.774079	59.780000
1004.933781	59.480000
1007.092958	57.200000
1009.253542	59.010000
1011.411671	62.640000
1013.569277	62.730000
1015.726359	63.940000
1017.882917	58.170000
1020.035096	65.450000
1022.188682	64.100000
1024.341746	67.530000
1026.492361	63.790000
1028.644383	69.180000
1030.792031	67.810000
1032.943011	63.210000
1035.089620	66.920000
1037.235710	68.010000
1039.381282	70.170000
1041.528259	71.250000
1043.668947	69.990000
1045.812965	74.500000
1047.954542	76.170000
1050.095603	76.200000
1052.238068	67.780000
1054.374253	80.480000
1056.513765	73.720000
1058.648922	73.610000
1060.787403	68.300000
1062.921530	76.860000
1065.055144	70.620000
1067.190162	75.550000
1069.320832	71.230000
1071.452906	69.870000
1073.582551	67.550000
1075.711684	75.130000
1077.840305	65.770000
1079.968415	68.010000
1082.094099	66.870000
1084.219273	66.050000
1086.345851	62.530000
1088.468091	64.660000
1090.591736	62.770000
1092.711046	61.440000
1094.835585	59.430000
1096.953880	54.680000
1099.073579	52.950000
1101.190859	52.880000
1103.307632	57.490000
1105.423900	59.020000
1107.537751	52.690000
1109.653007	50.210000
1111.763939	51.480000
1113.878184	61.020000
1115.988108	48.520000
1118.099436	48.560000
1120.210259	50.210000
1122.316766	54.770000
1124.426582	51.250000
1126.532085	48.390000
1128.638990	43.870000
1130.739680	53.750000
1132.845582	49.390000
1134.947175	44.940000
1137.050171	41.810000
1139.152666	44.900000
1141.248954	47.560000
1143.350449	49.020000
1145.447642	42.620000
1147.544337	45.700000
1149.640533	38.760000
1151.736231	47.560000
1153.831432	45.920000
1155.924236	48.050000
1158.018442	43.310000
1160.106457	47.720000
1162.199671	39.780000
1164.286696	46.990000
1166.377020	39.920000
1168.463056	47.220000
1170.552391	38.740000
1172.635544	42.650000
1174.720099	43.150000
1176.806056	44.470000
1178.887731	37.890000
1180.970807	38.780000
1183.051498	41.830000
1185.131698	41.600000
1187.211406	41.450000
1189.290623	41.840000
1191.367458	40.790000
1193.441911	44.890000
1195.519657	45.110000
1197.593133	42.590000
1199.668009	38.750000
1201.738618	42.840000
1203.810628	41.420000
1205.880263	36.630000
1207.951297	37.640000
1210.021845	37.110000
1212.088131	42.930000
1214.155818	38.870000
1216.221133	39.420000
1218.287848	40.740000
1220.350307	36.820000
1222.416051	40.560000
1224.477541	35.570000
1226.540432	35.520000
1228.600955	32.830000
1230.660994	36.220000
1232.720550	38.020000
1234.777742	34.500000
1236.834452	37.520000
1238.888798	40.590000
1240.946426	32.960000
1243.001691	41.490000
1245.052715	36.190000
1247.105139	39.080000
1249.157083	33.760000
1251.206669	37.770000
1253.255776	33.570000
1255.304404	40.560000
1257.352554	31.890000
1259.400226	35.220000
1261.443667	35.620000
1263.490384	38.460000
1265.534747	30.340000
1267.578634	32.830000
1269.620169	33.640000
1271.659355	37.750000
1273.701814	37.020000
1275.740050	35.980000
1277.779685	31.730000
1279.818845	30.840000
1281.853786	28.910000
1283.890126	30.240000
1285.924122	31.510000
1287.959515	36.620000
1289.990696	30.430000
1292.023274	37.410000
1294.055381	30.240000
1296.085147	34.970000
1298.116310	31.680000
1300.143267	35.810000
1302.171621	32.810000
1304.195770	28.760000
1306.223185	36.550000
1308.246397	32.240000
1310.271007	28.490000
1312.293283	30.800000
1314.316956	28.570000
1316.338295	34.600000
1318.359168	32.700000
1320.379573	37.950000
1322.395785	32.530000
1324.413394	35.830000
1326.428675	34.960000
1328.447215	35.900000
1330.461566	29.000000
1332.473590	41.340000
1334.488873	31.300000
1336.499970	37.070000
1338.512464	35.150000
1340.520775	43.950000
1342.532341	34.320000
1344.537869	39.840000
1346.546652	40.150000
1348.551257	44.070000
1350.559116	35.470000
1352.566513	37.420000
1354.567879	37.140000
1356.570641	42.760000
1358.572944	39.520000
1360.574787	37.180000
1362.576170	34.070000
1364.575240	39.050000
1366.573851	36.280000
1368.572003	38.260000
1370.569698	35.840000
1372.563230	36.500000
1374.558157	34.540000
1376.552628	33.270000
1378.546642	30.890000
1380.538349	38.160000
1382.529600	28.200000
1384.518546	31.300000
1386.508888	35.380000
1388.498774	29.260000
1390.486356	33.810000
1392.473485	34.160000
1394.458312	27.940000
1396.444534	25.960000
1398.428455	26.940000
1400.411924	34.400000
1402.394941	24.450000
1404.375660	29.430000
1406.357773	31.600000
1408.337590	33.480000
1410.316955	26.490000
1412.292182	31.640000
1414.270647	26.800000
1416.246819	36.530000
1418.222541	32.270000
1420.197815	34.640000
1422.170797	32.580000
1424.143331	33.830000
1426.115417	30.020000
1428.087056	33.060000
1430.054566	28.570000
1432.027150	30.410000
1433.991928	35.120000
1435.961779	33.530000
1437.927506	28.750000
1439.894625	33.460000
1441.859461	35.310000
1443.820177	38.650000
1445.785961	28.000000
1447.745790	35.200000
1449.707013	32.770000
1451.669627	35.300000
1453.628127	31.950000
1455.586185	36.790000
1457.543801	40.490000
1459.500974	32.730000
1461.455872	28.200000
1463.412163	34.850000
1465.366179	33.880000
1467.319754	31.250000
1469.271057	31.090000
1471.223753	31.810000
1473.174176	36.390000
1475.124161	38.780000
1477.073707	34.390000
1479.020984	32.830000
1480.965993	31.610000
1482.912395	32.250000
1484.858359	40.450000
1486.803886	40.710000
1488.747147	37.630000
1490.689973	42.720000
1492.630534	35.730000
1494.572488	39.530000
1496.512179	33.700000
1498.451435	37.050000
1500.390257	34.940000
1502.326819	43.370000
1504.264772	33.640000
1506.200466	35.530000
1508.135727	36.520000
1510.068731	37.460000
1512.001304	35.890000
1513.933444	39.120000
1515.865152	40.810000
1517.794606	35.800000
1519.725451	35.470000
1521.655864	46.490000
1523.582205	37.760000
1525.509936	43.050000
1527.435418	43.470000
1529.360470	44.750000
1531.285093	40.730000
1533.209286	49.880000
1535.131233	44.470000
1537.054570	52.610000
1538.975660	47.770000
1540.894506	54.610000
1542.814742	56.840000
1544.732735	55.340000
1546.650300	58.120000
1548.565625	64.360000
1550.482339	69.500000
1552.394998	78.290000
1554.310861	87.010000
1556.224484	100.190000
1558.135869	95.420000
1560.048644	115.000000
1561.957369	123.240000
1563.867483	150.090000
1565.777174	176.470000
1567.686442	210.990000
1569.593476	250.710000
1571.498277	306.100000
1573.404467	367.390000
1575.308425	434.420000
1577.211962	474.990000
1579.115079	491.370000
1581.015966	476.440000
1582.918242	429.590000
1584.818290	358.020000
1586.719725	298.760000
1588.617127	246.280000
1590.514110	208.310000
1592.410675	162.650000
1594.308627	143.320000
1596.200745	127.980000
1598.096057	112.920000
1599.990951	95.220000
1601.883623	95.360000
1603.775878	78.020000
1605.665914	75.740000
1607.555534	69.240000
1609.444739	66.860000
1611.333529	60.650000
1613.220101	61.880000
1615.108061	57.010000
1616.992004	57.200000
1618.877334	56.020000
1620.762251	52.650000
1622.644954	51.450000
1624.529044	48.350000
1626.409122	41.040000
1628.290588	45.810000
1630.169843	40.720000
1632.050484	46.920000
1633.925321	43.500000
1635.805139	40.210000
1637.680953	40.300000
1639.556356	40.880000
1641.433145	37.770000
1643.304138	35.110000
1645.178312	38.790000
1647.048487	39.590000
1648.921843	36.290000
1650.792996	37.350000
1652.661948	33.800000
1654.532284	37.330000
1656.398628	44.320000
1658.266357	36.240000
1660.131887	34.570000
1661.998803	39.130000
1663.861730	29.720000
1665.726042	33.200000
1667.588158	33.640000
1669.449869	36.650000
1671.312966	38.120000
1673.173867	38.270000
1675.032576	35.360000
1676.890881	39.100000
1678.750570	38.870000
1680.604493	37.290000
1682.461589	32.490000
1684.318281	34.320000
1686.170998	33.840000
1688.026886	34.350000
1689.878800	30.430000
1691.730313	37.550000
1693.581425	28.000000
1695.432137	37.030000
1697.282447	31.600000
1699.130574	35.670000
1700.980085	33.490000
1702.823846	38.400000
1704.672558	33.690000
1706.515523	34.660000
1708.361655	35.520000
1710.203824	37.580000
1712.049159	26.990000
1713.888753	38.800000
1715.729731	31.760000
1717.572092	34.270000
1719.410497	29.810000
1721.250285	37.700000
1723.087897	31.180000
1724.925115	37.880000
1726.760159	31.260000
1728.596586	35.050000
1730.430841	30.620000
1732.264701	38.060000
1734.098167	35.780000
1735.927688	40.250000
1737.760367	34.740000
1739.589102	32.940000
1741.420994	31.330000
1743.248944	38.370000
1745.076502	31.590000
1746.903669	32.380000
1748.730444	31.990000
1750.556827	38.260000
1752.379274	32.280000
1754.204876	33.290000
1756.026543	31.570000
1757.849592	42.190000
1759.670479	30.240000
1761.490978	37.290000
1763.312857	34.180000
1765.129038	37.620000
1766.948370	33.590000
1768.763774	37.880000
1770.582330	33.250000
1772.396960	33.430000
1774.211203	35.420000
1776.025060	35.680000
1777.838530	30.090000
1779.649847	34.190000
1781.462544	30.670000
1783.274856	36.160000
1785.083249	30.960000
1786.893024	36.060000
1788.698884	37.990000
1790.507889	29.360000
1792.312981	31.030000
1794.119454	32.630000
1795.925543	31.300000
1797.727721	33.680000
1799.533044	33.680000
1801.334458	31.070000
1803.137252	37.340000
1804.936140	35.150000
1806.736409	32.890000
1808.536296	36.050000
1810.334041	29.080000
1812.131406	34.350000
1813.928391	31.850000
1815.724995	33.520000
1817.519460	32.710000
1819.315304	37.160000
1821.105493	31.080000
1822.900579	36.280000
1824.690013	31.120000
1826.482583	34.420000
1828.273018	31.500000
1830.061319	37.250000
1831.852755	33.400000
1833.638545	32.450000
1835.425715	31.090000
1837.210753	31.960000
1838.998925	28.220000
1840.783211	30.220000
1842.565367	28.950000
1844.348903	37.100000
1846.130310	32.310000
1847.913096	34.800000
1849.692001	33.380000
1851.472285	41.650000
1853.250444	33.770000
1855.029981	34.510000
1856.807392	33.110000
1858.582681	30.460000
1860.359347	29.450000
1862.133891	36.020000
1863.909813	27.370000
1865.680114	35.970000
1867.453543	31.470000
1869.224852	33.680000
1870.995790	30.170000
1872.768106	36.560000
1874.534808	28.570000
1876.304635	33.050000
1878.070599	37.360000
1879.839687	39.120000
1881.604913	33.940000
1883.369771	38.910000
1885.136006	32.500000
1886.898382	36.040000
1888.660390	30.930000
1890.422032	30.490000
1892.183307	34.420000
1893.944214	38.120000
1895.704755	30.070000
1897.463186	34.720000
1899.221251	29.830000
1900.977209	39.480000
1902.734543	33.940000
1904.491512	34.890000
1906.246374	31.300000
1907.999132	29.640000
1909.751525	36.530000
1911.505295	34.340000
1913.256961	31.540000
1915.006525	27.050000
1916.757464	32.670000
1918.508041	33.660000
1920.254778	31.240000
1922.002892	37.740000
1923.748906	29.810000
1925.496295	29.910000
1927.241587	32.990000
1928.984781	34.320000
1930.729350	28.170000
1932.471823	31.580000
1934.213937	33.250000
1935.955690	36.770000
1937.697083	32.600000
1939.436383	33.220000
1941.175324	37.470000
1942.913906	35.630000
1944.650397	33.950000
1946.386530	34.470000
1948.124037	34.990000
1949.857722	33.550000
1951.592782	33.650000
1953.325753	37.670000
1955.058368	33.760000
1956.790627	36.830000
1958.522529	29.540000
1960.252345	37.520000
1961.980076	34.740000
1963.709182	35.660000
1965.437932	30.120000
1967.164600	27.740000
1968.890913	28.290000
1970.618599	30.560000
1972.340749	32.980000
1974.066000	32.890000
1975.787444	29.630000
1977.511989	30.620000
1979.234453	32.510000
1980.953115	36.800000
1982.674875	29.740000
1984.392833	35.350000
1986.112164	25.730000
1987.827696	31.410000
1989.548048	30.050000
1991.264602	35.170000
1992.977359	27.900000
1994.693212	35.090000
1996.406993	33.100000
1998.120424	35.210000
1999.831784	37.040000
2001.544516	32.170000
2003.253458	35.390000
2004.965492	34.410000
2006.672017	32.380000
2008.381635	29.290000
2010.089185	30.210000
2011.796388	36.790000
2013.501525	35.260000
2015.206316	33.350000
2016.912478	33.770000
2018.614858	34.580000
2020.318609	28.370000
2022.020298	36.430000
2023.721641	34.100000
2025.422640	38.960000
2027.121577	32.130000
2028.821886	33.930000
2030.518419	31.880000
2032.216324	30.650000
2033.912171	32.080000
2035.611103	34.940000
2037.304549	28.580000
2038.999366	37.220000
2040.693841	30.970000
2042.384547	35.540000
2044.078337	33.720000
2045.768360	36.870000
2047.459754	31.850000
2049.149095	33.860000
2050.839806	27.160000
2052.526754	36.270000
2054.213363	32.450000
2055.901341	39.010000
2057.585560	34.670000
2059.271150	37.690000
2060.956400	31.490000
2062.639601	34.380000
2064.324173	30.430000
2066.003281	29.420000
2067.687176	33.490000
2069.365609	38.530000
2071.047120	31.280000
2072.724879	36.250000
2074.402302	33.120000
2076.081094	34.710000
2077.757844	31.920000
2079.432551	38.490000
2081.108629	28.570000
2082.782665	33.670000
2084.456367	29.160000
2086.129733	35.990000
2087.801060	34.000000
2089.472053	37.510000
2091.142712	31.540000
2092.813037	29.700000
2094.483028	30.210000
2096.150983	34.170000
2097.818605	28.210000
2099.484192	29.440000
2101.151148	28.330000
2102.816071	36.080000
2104.480662	28.680000
2106.143221	31.170000
2107.807148	27.350000
2109.469044	31.850000
2111.130610	30.000000
2112.791844	26.960000
2114.451050	30.400000
2116.109925	37.280000
2117.768471	31.690000
2119.426686	35.840000
2121.081179	33.140000
2122.738736	34.250000
2124.395963	30.440000
2126.049470	30.040000
2127.704344	37.500000
2129.355499	37.710000
2131.009717	28.990000
2132.660217	33.140000
2134.312085	27.600000
2135.958544	36.260000
2137.609758	28.990000
2139.257258	34.140000
2140.906125	33.410000
2142.552973	34.130000
2144.199496	31.720000
2145.845693	36.620000
2147.488182	26.180000
2149.133729	29.960000
2150.775569	33.720000
2152.420466	32.750000
2154.061657	34.380000
2155.702526	30.010000
2157.343070	31.190000
2158.981602	31.790000
2160.621500	30.950000
2162.257698	32.810000
2163.895262	35.000000
2165.532504	38.720000
2167.167736	33.900000
2168.802646	34.770000
2170.437235	29.300000
2172.071503	34.040000
2173.702077	30.780000
2175.335703	32.130000
2176.965637	27.580000
2178.596936	33.710000
2180.226230	29.390000
2181.855205	27.080000
2183.483860	32.240000
2185.112196	32.090000
2186.738530	33.250000
2188.364545	37.680000
2189.988558	34.190000
2191.613937	35.200000
2193.237315	30.610000
2194.862058	34.920000
2196.483120	31.130000
2198.103865	33.130000
2199.725974	24.900000
2201.346086	32.760000
2202.964202	29.300000
2204.582002	35.800000
2206.199487	33.390000
2207.816656	36.690000
2209.433510	31.820000
2211.050048	31.740000
2212.664594	33.750000
2214.277147	29.980000
2215.891064	29.450000
2217.502990	37.370000
2219.116279	28.060000
2220.727578	33.970000
2222.336887	30.280000
2223.947560	31.850000
2225.556244	31.050000
2227.164615	31.040000
2228.771000	31.520000
2230.378747	36.480000
2231.984509	32.000000
2233.589959	37.470000
2235.193424	28.170000
2236.798252	29.320000
2238.401096	30.400000
2240.001957	32.410000
2241.604181	32.280000
2243.204423	35.260000
2244.806027	30.170000
2246.403978	29.980000
2248.003292	27.310000
2249.600626	33.330000
2251.197652	26.680000
2252.796040	31.110000
2254.390779	33.230000
2255.983541	34.030000
2257.577666	28.820000
2259.173152	33.440000
2260.764993	26.010000
2262.356528	30.950000
2263.949425	32.320000
2265.537012	33.280000
2267.129295	28.030000
2268.716272	32.420000
2270.306276	29.100000
2271.890976	31.130000
2273.480370	29.580000
2275.064462	32.370000
2276.649914	31.910000
2278.233398	32.570000
2279.819907	33.030000
2281.402783	32.330000
2282.985356	30.780000
2284.567625	33.550000
2286.146264	31.230000
2287.727928	32.850000
2289.305963	31.770000
2290.887021	35.300000
2292.464452	33.450000
2294.039920	31.600000
2295.618410	31.470000
2297.193276	30.180000
2298.767841	32.450000
2300.342105	32.540000
2301.916070	30.550000
2303.489733	34.410000
2305.063097	29.290000
2306.632842	32.210000
2308.202288	31.050000
2309.774752	32.360000
2311.341942	26.830000
2312.912150	28.960000
2314.478743	27.210000
2316.046696	32.710000
2317.612693	33.060000
2319.178393	32.990000
2320.743795	27.370000
2322.307244	34.940000
2323.872052	34.090000
2325.433252	39.100000
2326.997466	40.780000
2328.556418	55.060000
2330.118384	42.980000
2331.678400	40.410000
2333.238121	33.680000
2334.795892	32.840000
2336.353368	29.900000
2337.910550	37.450000
2339.465784	30.980000
2341.020725	28.410000
2342.575371	27.270000
2344.129724	33.900000
2345.683783	26.630000
2347.237549	35.420000
2348.789370	28.360000
2350.339249	30.930000
2351.892135	32.830000
2353.439778	36.590000
2354.990430	30.130000
2356.537490	28.110000
2358.085908	32.130000
2359.634035	36.000000
2361.178573	29.250000
2362.724469	35.840000
2364.268427	33.850000
2365.813741	34.040000
2367.355472	29.550000
2368.898559	30.470000
2370.439710	28.820000
2371.980572	35.020000
2373.521145	27.230000
2375.061429	35.940000
2376.601424	34.010000
2378.137841	32.310000
2379.677259	33.250000
2381.213099	34.080000
2382.750297	26.010000
2384.283919	32.550000
2385.820541	29.080000
2387.355233	33.060000
2388.887995	29.590000
2390.420470	31.710000
2391.951017	32.110000
2393.484562	37.940000
2395.012896	33.590000
2396.542586	36.380000
2398.071991	32.380000
2399.601111	35.080000
2401.129945	31.200000
2402.653575	27.470000
2404.181840	33.130000
2405.704903	36.600000
2407.232599	33.690000
2408.753456	39.330000
2410.278945	30.960000
2411.800875	34.690000
2413.324159	35.060000
2414.845523	41.020000
2416.364967	33.450000
2417.885766	42.950000
2419.404646	37.130000
2420.923245	41.780000
2422.439926	33.070000
2423.957961	38.780000
2425.475715	34.140000
2426.989917	40.460000
2428.503840	32.870000
2430.017482	42.540000
2431.532479	37.310000
2433.043927	37.840000
2434.556729	40.690000
2436.067619	44.620000
2437.578230	40.280000
2439.086929	42.130000
2440.598614	43.970000
2442.106756	44.570000
2443.614620	39.070000
2445.122206	46.030000
2446.626251	38.000000
2448.133281	42.150000
2449.638403	42.670000
2451.143248	45.740000
2452.646186	40.100000
2454.148848	43.400000
2455.651233	40.910000
2457.151713	46.220000
2458.653546	41.430000
2460.153474	37.540000
2461.653127	43.300000
2463.152505	43.150000
2464.649980	39.280000
2466.145553	45.480000
2467.644106	37.620000
2469.139131	40.420000
2470.635508	35.390000
2472.128359	43.290000
2473.622563	30.000000
2475.116493	38.300000
2476.606899	36.350000
2478.100283	42.770000
2479.591769	38.940000
2481.081358	44.330000
2482.570675	28.990000
2484.058096	40.630000
2485.548493	35.660000
2487.035372	36.800000
2488.523602	31.540000
2490.008315	38.030000
2491.492759	32.700000
2492.978553	36.260000
2494.462456	42.170000
2495.947709	34.790000
2497.427829	32.290000
2498.910922	37.430000
2500.392124	36.100000
2501.873057	35.190000
2503.352101	35.820000
2504.830876	39.060000
2506.309383	33.710000
2507.787622	42.440000
2509.265592	32.810000
2510.740057	35.900000
2512.217492	33.170000
2513.691423	37.350000
2515.166704	30.950000
2516.641718	36.560000
2518.113231	33.320000
2519.586095	43.060000
2521.057076	34.760000
2522.529407	41.100000
2523.996624	34.930000
2525.466808	44.410000
2526.935111	30.130000
2528.403149	32.860000
2529.870922	32.680000
2531.338430	39.070000
2532.805673	33.540000
2534.269424	38.070000
2535.734525	32.620000
2537.197749	36.390000
2538.662322	33.090000
2540.123407	40.210000
2541.585841	36.240000
2543.048012	32.060000
2544.506697	35.580000
2545.969953	40.990000
2547.428114	32.740000
2548.887623	37.620000
2550.342038	36.220000
2551.801024	35.280000
2553.258138	32.490000
2554.713380	35.970000
2556.168362	33.120000
2557.621475	36.900000
2559.075935	33.680000
2560.528527	42.600000
2561.980859	33.620000
2563.431324	33.970000
2564.884744	29.270000
2566.333082	37.800000
2567.784375	30.920000
2569.233803	38.760000
2570.679758	33.170000
2572.128668	29.080000
2573.574108	35.860000
2575.020895	37.840000
2576.465819	35.460000
2577.910486	36.120000
2579.356500	33.690000
2580.799048	38.290000
2582.242943	31.980000
2583.683372	37.210000
2585.125150	38.320000
2586.565068	38.460000
2588.006333	35.790000
2589.444136	40.840000
2590.884889	40.040000
2592.320580	40.530000
2593.759220	37.490000
2595.196002	39.820000
2596.630929	41.060000
2598.068803	41.070000
2599.501620	31.820000
2600.935784	38.220000
2602.368094	38.380000
2603.801750	43.110000
2605.233553	37.690000
2606.665102	43.180000
2608.096399	40.910000
2609.525843	40.830000
2610.955035	35.240000
2612.382377	45.060000
2613.811064	35.730000
2615.239500	45.290000
2616.664488	35.240000
2618.090823	44.750000
2619.515309	44.470000
2620.941141	47.230000
2622.363529	45.290000
2623.787263	51.270000
2625.209150	46.320000
2626.630788	49.750000
2628.050580	45.220000
2629.471718	53.090000
2630.892606	44.350000
2632.310055	48.270000
2633.730445	47.420000
2635.147397	53.220000
2636.564100	54.040000
2637.980555	52.730000
2639.396762	53.870000
2640.812721	51.810000
2642.226839	52.250000
2643.640709	57.560000
2645.052741	54.550000
2646.466116	62.480000
2647.876062	55.790000
2649.288944	60.910000
2650.698397	65.610000
2652.107604	64.300000
2653.514975	65.810000
2654.925280	74.050000
2656.333750	73.540000
2657.740384	71.950000
2659.146773	71.240000
2660.551328	76.360000
2661.957227	76.110000
2663.361293	82.940000
2664.765114	84.860000
2666.168691	83.440000
2667.570437	89.520000
2668.973526	94.820000
2670.373197	87.660000
2671.774212	100.020000
2673.171811	99.930000
2674.572339	106.300000
2675.969453	101.190000
2677.367910	108.980000
2678.764540	105.460000
2680.160927	100.410000
2681.557072	108.060000
2682.951391	111.000000
2684.347053	110.610000
2685.739306	116.230000
2687.132901	116.470000
2688.524672	118.230000
2689.917786	110.760000
2691.309076	119.710000
2692.698543	118.270000
2694.087770	111.530000
2695.476758	124.470000
2696.867087	125.380000
2698.252433	122.130000
2699.640702	126.110000
2701.027151	131.110000
2702.413361	131.610000
2703.799332	131.040000
2705.181905	139.450000
2706.565820	139.780000
2707.949497	144.000000
2709.332935	142.910000
2710.712978	151.990000
2712.094363	143.070000
2713.473933	145.750000
2714.854843	147.890000
2716.233939	149.740000
2717.611221	143.100000
2718.989844	142.770000
2720.366653	140.960000
2721.743227	137.630000
2723.119565	133.610000
2724.494092	130.640000
2725.869959	119.690000
2727.242439	119.140000
2728.617835	111.330000
2729.988271	109.670000
2731.360048	103.300000
2732.731590	102.010000
2734.101324	94.160000
2735.472399	94.510000
2736.841665	84.320000
2738.210698	88.410000
2739.577925	79.290000
2740.944918	76.240000
2742.311679	72.840000
2743.678208	77.290000
2745.042931	71.590000
2746.407422	70.100000
2747.771682	63.060000
2749.135709	58.790000
2750.499505	54.450000
2751.859927	55.740000
2753.223259	50.050000
2754.581649	47.730000
2755.942949	46.870000
2757.300879	49.600000
2758.661717	43.780000
2760.020756	50.570000
2761.376426	45.990000
2762.735004	41.250000
2764.090215	34.320000
2765.445197	45.640000
2766.798382	45.800000
2768.154474	40.120000
2769.507202	33.630000
2770.859702	42.710000
2772.211973	37.100000
2773.565582	36.390000
2774.915831	36.300000
2776.264285	36.910000
2777.615644	39.760000
2778.963645	35.530000
2780.312983	39.040000
2781.660529	38.030000
2783.007849	34.410000
2784.354942	36.630000
2785.700243	32.460000
2787.045319	36.820000
2788.390169	38.880000
2789.734793	37.570000
2791.076065	33.860000
2792.418675	41.760000
2793.761059	33.440000
2795.103218	39.480000
2796.442028	34.220000
2797.783738	32.170000
2799.122099	28.740000
2800.461798	35.480000
2801.799712	28.250000
2803.135841	36.590000
2804.471746	34.060000
2805.808989	40.560000
2807.144448	39.400000
2808.479684	35.400000
2809.813137	30.400000
2811.147927	34.820000
2812.479377	31.590000
2813.813722	33.740000
2815.143169	31.140000
2816.473952	33.540000
2817.804515	29.120000
2819.133298	27.200000
2820.463417	31.570000
2821.791758	35.770000
2823.119878	23.440000
2824.446220	33.630000
2825.773899	29.890000
2827.098244	31.620000
2828.423926	33.290000
2829.747832	34.110000
2831.071518	28.830000
2832.396541	33.460000
2833.718233	25.410000
2835.039707	31.120000
2836.360962	26.800000
2837.681998	28.050000
2839.001261	24.170000
2840.321860	37.190000
2841.640688	25.300000
2842.959297	30.850000
2844.276135	28.450000
2845.592756	30.220000
2846.909160	27.730000
2848.223794	26.510000
2849.539764	29.800000
2850.852413	29.860000
2852.166397	28.410000
2853.480165	27.330000
2854.793716	27.170000
2856.105501	33.910000
2857.415519	27.430000
2858.726872	30.570000
2860.034910	27.700000
2861.344282	32.280000
2862.653440	27.030000
2863.962382	27.140000
2865.269560	30.110000
2866.574976	26.650000
2867.881725	28.440000
2869.186713	30.880000
2870.491486	22.980000
2871.794499	26.030000
2873.100392	26.050000
2874.401431	35.630000
2875.703804	25.350000
2877.004417	28.950000
2878.306364	27.230000
2879.608097	33.400000
2880.906527	29.090000
2882.206290	33.940000
2883.504296	26.060000
2884.802090	26.250000
2886.098128	26.790000
2887.395499	28.610000
2888.691114	23.280000
2889.986518	32.300000
2891.281711	28.270000
2892.573607	30.090000
2893.868379	24.660000
2895.159854	30.710000
2896.452662	24.790000
2897.745260	27.600000
2899.034564	29.700000
2900.325200	26.260000
2901.614085	25.920000
2902.904302	29.480000
2904.191228	27.390000
2905.479486	31.150000
2906.765995	25.210000
2908.052295	29.960000
2909.338388	21.770000
2910.622732	31.560000
2911.909947	30.170000
2913.192336	29.150000
2914.476057	25.260000
2915.758032	33.180000
2917.039799	23.440000
2918.319821	30.020000
2919.602714	30.210000
2920.883861	29.560000
2922.161726	24.030000
2923.442460	33.230000
2924.719913	31.410000
2925.997160	26.650000
2927.272665	23.640000
2928.551038	26.380000
2929.824597	26.490000
2931.101023	27.110000
2932.375708	25.560000
2933.648652	28.800000
2934.922928	27.840000
2936.195464	27.940000
2937.467795	25.190000
2938.736854	29.820000
2940.008778	20.720000
2941.278964	23.810000
2942.548946	24.090000
2943.818725	32.380000
2945.086768	24.880000
2946.353074	27.210000
2947.619179	24.960000
2948.886613	29.170000
2950.152312	27.980000
2951.417810	25.770000
2952.683105	28.280000
2953.945135	33.370000
2955.208495	27.180000
2956.471654	23.200000
2957.733081	23.770000
2958.995837	26.800000
2960.256861	24.710000
2961.516155	26.320000
2962.775249	26.980000
2964.034142	28.390000
2965.292835	23.960000
2966.551328	28.030000
2967.808092	23.470000
2969.064656	28.590000
2970.319492	25.000000
2971.575658	32.750000
2972.828569	26.920000
2974.082809	25.330000
2975.336849	24.690000
2976.589164	31.440000
2977.841281	23.420000
2979.091673	30.040000
2980.344920	25.860000
2981.593390	26.780000
2982.844715	27.200000
2984.092790	27.950000
2985.340668	23.290000
2986.588350	29.870000
2987.835834	29.980000
2989.081597	28.120000
2990.327164	30.890000
2991.574058	24.550000
2992.817708	25.770000
2994.062686	26.340000
2995.304420	23.730000
2996.549006	32.560000
2997.791873	23.700000
2999.031499	27.270000
3000.273975	18.720000
3001.513211	28.400000
3002.753775	26.130000
3003.992622	29.770000
3005.231275	23.200000
3006.468212	26.660000
3007.706477	26.690000
3008.943026	30.250000
3010.179382	20.090000
3011.415544	22.440000
3012.649992	19.300000
3013.884248	24.840000
3015.118310	27.380000
3016.350659	26.060000
3017.581298	23.210000
3018.814782	30.740000
3020.046554	25.360000
3021.276616	29.400000
3022.506485	26.510000
3023.734645	23.120000
3024.964132	21.830000
3026.191909	24.090000
3027.419495	25.990000
3028.648407	30.030000
3029.872578	23.350000
3031.099591	26.820000
3032.323380	29.650000
3033.548496	26.200000
3034.771905	24.530000
3035.995124	19.400000
3037.216638	23.540000
3038.440993	27.700000
3039.660613	24.560000
3040.881559	25.520000
3042.102316	25.830000
3043.321369	25.090000
3044.541747	22.000000
3045.758909	24.070000
3046.977397	24.190000
3048.194182	30.000000
3049.410780	24.020000
3050.627189	29.010000
3051.840385	23.300000
3053.056420	26.910000
3054.269242	21.400000
3055.484901	27.970000
3056.695837	26.590000
3057.908098	21.380000
3059.120172	26.010000
3060.332060	28.300000
3061.542251	21.580000
3062.752255	31.860000
3063.962073	20.650000
3065.170195	23.100000
3066.378132	22.230000
3067.584373	23.090000
3068.791939	27.080000
3069.997810	25.905000
3071.203497	24.730000
3072.408998	26.290000
3073.612806	18.270000
3074.817938	27.470000
3076.021377	25.360000
3077.223125	24.970000
3078.424688	23.730000
3079.626068	22.760000
3080.827264	25.260000
3082.026770	25.680000
3083.226093	22.990000
3084.426739	19.890000
3085.625695	22.150000
3086.821457	21.960000
3088.020048	27.990000
3089.215445	23.160000
3090.412165	23.440000
3091.605693	23.350000
3092.802049	23.940000
3093.996718	23.730000
3095.188197	20.610000
3096.384008	24.940000
3097.575124	29.990000
3098.767564	24.160000
3099.956816	26.680000
3101.148893	25.710000
3102.339287	22.260000
3103.526495	28.050000
3104.715025	19.870000
3105.904878	21.310000
3107.091547	21.520000
3108.278035	27.280000
3109.464345	18.920000
3110.651976	28.020000
3111.836425	22.420000
3113.019195	28.020000
3114.204787	23.050000
3115.388700	32.400000
3116.570934	20.930000
3117.752989	19.510000
3118.934866	25.030000
3120.116565	23.140000
3121.296587	25.290000
3122.474932	23.730000
3123.656097	21.450000
3124.834087	24.540000
3126.011900	23.650000
3127.189536	28.650000
3128.365498	23.210000
3129.541282	28.920000
3130.718388	29.390000
3131.893819	25.480000
3133.067577	22.240000
3134.239662	24.800000
3135.413069	17.740000
3136.586299	24.050000
3137.757858	20.930000
3138.930737	26.370000
3140.100449	26.180000
3141.271482	24.510000
3142.440845	26.340000
3143.608537	28.670000
3144.779045	18.120000
3145.944895	25.220000
3147.115053	26.970000
3148.280555	25.530000
3149.445882	24.040000
3150.611036	26.860000
3151.776017	29.110000
3152.942317	21.630000
3154.103965	22.840000
3155.266932	26.580000
3156.429727	24.050000
3157.592349	27.860000
3158.753305	16.690000
3159.914090	25.820000
3161.074702	19.570000
3162.233650	24.140000
3163.392427	21.920000
3164.551031	26.140000
3165.709464	22.200000
3166.867726	19.090000
3168.024325	19.060000
3169.179263	26.420000
3170.335520	19.280000
3171.490116	27.310000
3172.644542	19.870000
3173.797308	28.680000
3174.949903	20.850000
3176.102329	24.000000
3177.254585	23.490000
3178.406670	21.380000
3179.555609	21.490000
3180.707356	22.060000
3181.857444	22.750000
3183.005876	21.810000
3184.154138	24.140000
3185.302232	29.260000
3186.450157	18.160000
3187.596426	28.320000
3188.742527	24.950000
3189.886974	25.560000
3191.031253	20.450000
3192.175364	18.840000
3193.320792	20.010000
3194.463082	22.850000
3195.605205	17.720000
3196.747160	18.720000
3197.888948	21.880000
3199.030569	19.850000
3200.169055	23.370000
3201.308858	26.920000
3202.449978	21.300000
3203.587965	23.720000
3204.724302	21.840000
3205.860473	20.920000
3206.997961	17.520000
3208.133801	22.370000
3209.270958	23.030000
3210.403502	28.480000
3211.540328	21.680000
3212.672542	26.550000
3213.806073	22.800000
3214.939440	22.810000
3216.069679	20.300000
3217.202716	23.940000
3218.332627	15.500000
3219.463854	18.410000
3220.591957	19.910000
3221.722856	22.220000
3222.852111	20.520000
3223.979723	21.940000
3225.104212	18.540000
3226.232977	29.550000
3227.358620	25.420000
3228.484101	26.720000
3229.607939	21.610000
3230.734573	30.330000
3231.856609	24.670000
3232.979961	24.120000
3234.103151	27.500000
3235.226178	27.110000
3236.347567	25.980000
3237.468793	32.310000
3238.588382	31.670000
3239.707809	32.180000
3240.825598	27.120000
3241.946179	30.910000
3243.063647	28.360000
3244.180954	31.460000
3245.298101	30.180000
3246.413611	29.770000
3247.530437	26.380000
3248.644153	29.280000
3249.760658	19.650000
3250.875529	25.480000
3251.987290	21.270000
3253.098893	27.690000
3254.211811	24.390000
3255.324569	27.320000
3256.434221	20.300000
3257.545188	21.300000
3258.655996	22.040000
3259.765172	28.630000
3260.872717	20.130000
3261.981577	21.360000
3263.090279	19.990000
3264.195878	26.270000
3265.302791	17.840000
3266.408075	20.290000
3267.514673	18.870000
3268.618171	28.530000
3269.722984	15.340000
3270.827638	25.400000
3271.929195	20.750000
3273.030595	21.790000
3274.133309	19.750000
3275.235867	22.090000
3276.335328	25.520000
3277.437573	20.390000
3278.536722	22.820000
3279.634247	26.660000
3280.731616	18.260000
3281.831767	27.600000
3282.928826	20.770000
3284.025729	23.960000
3285.122477	16.520000
3286.214666	23.390000
3287.311105	21.270000
3288.405921	23.550000
3289.500583	19.570000
3290.593623	23.470000
3291.686508	15.330000
3292.777773	24.700000
3293.870351	19.780000
3294.961309	22.800000
3296.050647	21.070000
3297.139832	26.040000
3298.230330	14.040000
3299.317743	25.930000
3300.405003	21.840000
3301.493576	19.850000
3302.581996	16.580000
3303.665870	22.370000
3304.753985	17.560000
3305.839018	21.910000
3306.922436	25.120000
3308.007166	25.690000
3309.090280	21.510000
3310.174707	17.710000
3311.256055	22.680000
3312.338715	21.320000
3313.419761	22.230000
3314.500656	24.950000
3315.579937	22.650000
3316.659068	19.120000
3317.739511	15.380000
3318.816879	26.700000
3319.895559	16.740000
3320.972627	18.850000
3322.049546	15.870000
3323.124853	27.730000
3324.200011	19.510000
3325.276480	23.420000
3326.349879	17.820000
3327.423128	27.200000
3328.497689	20.980000
3329.570641	23.360000
3330.641984	19.180000
3331.714638	23.680000
3332.784226	18.910000
3333.855124	21.680000
3334.924415	16.140000
3335.995017	19.420000
3337.064012	16.530000
3338.131401	20.660000
3339.197185	21.160000
3340.267195	27.280000
3341.334142	19.120000
3342.398027	24.500000
3343.464679	23.930000
3344.529728	27.220000
3345.593173	21.740000
3346.656472	21.960000
3347.719624	19.510000
3348.782630	26.120000
3349.845490	20.400000
3350.906748	21.300000
3351.964949	21.010000
3353.027370	20.150000
3354.086736	18.050000
3355.145956	25.410000
3356.206485	13.040000
3357.262506	24.370000
3358.321290	25.670000
3359.375567	16.300000
3360.432608	17.580000
3361.488050	20.950000
3362.544802	19.050000
3363.599955	21.280000
3364.653511	20.190000
3365.705471	24.070000
3366.760192	19.860000
3367.811864	22.550000
3368.863393	20.450000
3369.916230	18.980000
3370.966020	14.480000
3372.017119	20.390000
3373.065172	17.290000
3374.115984	24.080000
3375.163752	17.540000
3376.211376	21.140000
3377.258859	12.680000
3378.304749	22.290000
3379.351947	17.900000
3380.396103	23.890000
3381.443017	21.010000
3382.488339	22.710000
3383.530620	17.740000
3384.572760	17.390000
3385.616209	20.520000
3386.659516	21.250000
3387.701233	25.650000
3388.742810	24.690000
3389.784245	20.050000
3390.824092	20.930000
3391.862350	22.510000
3392.901916	21.670000
3393.941342	18.480000
3394.979180	12.690000
3396.015431	19.720000
3397.051543	20.770000
3398.088962	24.160000
3399.123348	23.300000
3400.159041	15.710000
3401.194595	17.140000
3402.227118	17.390000
3403.262394	23.400000
3404.294639	21.810000
3405.326746	21.100000
3406.357269	11.960000
3407.389099	21.850000
3408.420791	24.560000
3409.449455	18.400000
3410.477982	18.710000
3411.507815	24.300000
3412.537511	15.670000
3413.564181	19.350000
3414.592157	17.990000
3415.617110	20.890000
3416.644812	19.520000
3417.669491	22.670000
3418.695476	16.560000
3419.719881	21.160000
3420.744150	21.020000
3421.766840	22.490000
3422.789394	18.650000
3423.813254	19.810000
3424.834094	18.580000
3425.854798	16.160000
3426.876809	18.960000
3427.895801	22.360000
3428.914657	14.790000
3429.934820	23.890000
3430.951966	16.570000
