-165.528079	1.459890
-162.858479	3.654945
-160.191814	3.933766
-157.525901	2.840759
-154.862921	0.920330
-152.198510	-1.283117
-149.537030	-3.225175
-146.874121	1.202797
-144.216318	0.674126
-141.557086	0.545455
-138.898602	0.311888
-136.243043	4.728671
-133.586054	5.731469
-130.934164	3.920280
-128.280844	1.888112
-125.630443	2.454545
-122.978614	0.309091
-120.331874	1.272727
-117.683706	-0.495105
-115.036280	4.839161
-112.391769	2.485315
-109.745828	4.969231
-107.104969	4.058741
-104.462681	4.981818
-101.823302	1.215385
-99.182493	0.903497
-96.542425	3.128671
-93.907430	5.279720
-91.271005	5.793007
-88.637483	7.951049
-86.002533	5.137063
-83.372648	7.468531
-80.739171	7.984615
-78.110756	12.613986
-75.483075	15.297902
-72.853965	13.060140
-70.229912	4.574825
-67.602270	-31.394406
-64.979681	-118.058741
-62.357824	-135.801399
-59.736697	136.264336
-57.116301	589.704895
-54.498792	974.781818
-51.879855	1249.909091
-49.263803	1404.137063
-46.648480	1435.783217
-44.033885	1349.200000
-41.422171	1144.176224
-38.809029	827.419580
-36.200921	421.132867
-33.589231	12.206993
-30.982572	-206.386014
-28.374485	-134.120280
-25.767122	-15.927273
-23.164784	6.939860
-20.558868	11.630769
-17.957974	6.998601
-15.355652	4.619580
-12.758347	7.759441
-10.157467	6.283916
-7.561602	1.062937
-4.964308	1.520280
-2.367734	-1.116084
0.223831	-0.323077
2.816824	-0.412587
5.406956	1.910490
7.998515	3.786014
10.587216	6.260140
13.177343	3.906294
15.762471	5.686713
18.349027	6.330070
20.934869	5.820979
23.517857	5.406993
26.102271	8.865734
28.679557	7.784615
31.260409	10.562238
33.838412	12.165035
36.415705	14.316084
38.994424	11.037762
41.568161	11.970629
44.143326	12.030769
46.715647	14.258741
49.287260	15.478322
51.856033	21.844755
54.426233	18.977622
56.993594	17.159441
59.562382	12.125874
62.128333	7.790210
64.691449	4.201399
67.258121	13.688112
69.815572	39.176224
72.378708	79.802797
74.936884	124.528671
77.498615	173.416783
80.055389	219.051748
82.613589	281.232168
85.166837	349.700699
87.719387	440.153846
90.275487	544.295105
92.826639	649.337063
95.377094	751.398601
97.926851	849.623776
100.473789	927.303497
103.020032	981.853147
105.567700	1008.369231
108.114672	1014.820979
110.656709	1004.276923
113.198052	1007.412587
115.738702	1020.090909
118.280778	1065.072727
120.820042	1130.784615
123.356498	1205.243357
125.892262	1308.211189
128.429452	1425.528671
130.965951	1578.499301
133.499644	1779.250350
136.030533	2047.581818
138.560735	2427.744056
141.092361	2929.959441
143.621186	3598.897902
146.147212	4395.023776
148.672552	5292.111888
151.199317	6182.344056
153.723286	6955.748252
156.246570	7509.728671
158.769169	7760.219580
161.288975	7677.844755
163.808098	7278.658741
166.326538	6620.158042
168.846402	5811.622378
171.359265	4944.159441
173.875659	4132.781818
176.391371	3425.064336
178.902193	2879.180420
181.414440	2462.878322
183.923905	2146.011189
186.432690	1909.910490
188.940798	1732.535664
191.450330	1584.777622
193.954981	1474.850350
196.458956	1380.191608
198.964355	1301.886713
201.464879	1242.930070
203.968926	1240.325874
206.466003	1321.997203
208.966603	1447.650350
211.464431	1542.265734
213.961586	1596.415385
216.458068	1608.787413
218.949687	1567.075524
221.444826	1466.618182
223.937198	1326.006993
226.428900	1148.429371
228.917839	957.227972
231.408201	792.952448
233.895802	710.405594
236.380643	693.218182
238.868999	694.613986
241.350415	682.791608
243.835345	676.135664
246.315430	667.952448
248.799027	659.222378
251.277781	652.212587
253.757958	649.425175
256.235384	643.344056
258.712146	643.261538
261.188244	638.440559
263.661595	646.927273
266.134283	650.079720
268.606310	660.135664
271.077676	666.868531
273.546297	675.539860
276.014260	679.774825
278.483644	678.232168
280.948206	673.200000
283.416272	667.320280
285.879518	651.048951
288.342106	626.678322
290.804038	589.229371
293.265313	602.330070
295.723854	732.886713
298.183817	988.464336
300.641047	1258.806993
303.097623	1483.798601
305.553545	1633.967832
308.006737	1701.338462
310.461352	1681.895105
312.911165	1583.622378
315.364474	1398.078322
317.812984	1151.113287
320.260844	892.969231
322.710126	710.187413
325.154614	655.600000
327.600524	681.893706
330.045784	692.346853
332.488326	694.879720
334.930220	709.220979
337.371467	740.490909
339.809998	763.197203
342.249951	803.570629
344.687190	856.650350
347.121717	915.479720
349.559732	956.932867
351.992970	978.686713
354.427629	972.261538
356.857516	950.475524
359.290888	914.351049
361.719490	876.363636
364.147450	842.325874
366.576832	811.895105
369.001448	787.606993
371.427486	790.149650
373.852883	804.770629
376.277640	832.067133
378.697639	850.895105
381.119058	874.286713
383.537782	901.633566
385.957926	946.096503
388.375375	1000.448951
390.794244	1055.050350
393.210420	1105.285315
395.621848	1146.405594
398.036753	1156.047552
400.448969	1349.213986
402.860550	2256.990210
405.271497	4649.586014
407.679758	8328.071329
410.087386	12344.902098
412.494382	15771.130070
414.900747	18104.099301
417.304429	19101.850350
419.707481	18700.959441
422.109903	16920.770629
424.511695	13945.932867
426.910809	10172.455944
429.311343	6392.616783
431.711248	3541.595804
434.106431	2228.313287
436.505080	1923.871329
438.899009	1883.293706
441.292311	1793.303497
443.684989	1665.069930
446.077041	1532.713287
448.470511	1454.723077
450.859269	1430.974825
453.245361	1452.023776
455.632873	1477.149650
458.019762	1485.230769
460.403987	1481.489510
462.789630	1451.976224
465.172612	1391.062937
467.552933	1305.479720
469.934673	1208.016783
472.313754	1089.765035
474.694254	979.574825
477.072096	917.979021
479.447282	902.934266
481.821852	902.193007
484.197839	892.208392
486.571174	877.812587
488.945926	866.739860
491.315993	856.623776
493.685444	841.082517
496.056313	834.983217
498.422501	836.169231
500.790108	826.569231
503.155070	818.285315
505.519418	811.181818
507.883153	793.749650
510.248306	782.409790
512.608787	768.302098
514.970686	756.309091
517.329944	743.037762
519.686564	739.506294
522.046630	731.525874
524.400004	729.725874
526.756823	736.162238
529.111007	736.672727
531.464582	735.524476
533.817550	736.562238
536.167885	733.124476
538.519638	737.991608
540.864714	735.830769
543.215254	736.241958
545.559120	734.248951
547.908448	734.565035
550.253127	727.567832
552.595182	723.897902
554.938654	720.935664
557.279503	711.627972
559.619750	702.425175
561.957376	696.681119
564.298437	691.304895
566.634860	690.657343
568.972700	682.927273
571.307923	684.918881
573.640530	689.625175
575.974553	697.379021
578.305962	696.012587
580.636773	698.634965
582.966987	694.218182
585.296602	688.909091
587.621594	686.499301
589.952028	684.095105
592.277841	676.230769
594.601046	675.565035
596.925668	673.748252
599.247684	679.433566
601.569106	684.646154
603.887926	689.047552
606.208161	686.910490
608.527803	688.009790
610.844844	682.935664
613.161293	681.420979
615.475144	683.058741
617.790411	677.158042
620.103081	671.448951
622.417166	673.988811
624.726651	675.373427
627.037552	671.537063
629.345860	672.760839
631.653580	676.246154
633.962714	683.650350
636.267256	694.110490
638.571212	708.051748
640.874582	735.907692
643.179366	757.584615
645.479563	777.552448
647.781176	788.696503
650.082203	790.648951
652.378649	777.730070
654.676510	759.092308
656.973787	739.913287
659.270481	718.784615
661.562599	695.706294
663.858128	680.082517
666.149083	665.275524
668.441453	667.187413
670.731248	666.895105
673.020462	668.367832
675.309097	663.994406
677.595159	666.997203
679.882636	666.223776
682.167541	670.363636
684.451869	673.928671
686.733628	675.397203
689.016801	670.197203
691.299397	670.565035
693.577437	665.588811
695.856892	668.944056
698.135770	668.794406
700.414074	661.679720
702.687828	662.381818
704.962995	667.579021
707.237589	671.916084
709.509624	679.930070
711.783072	684.295105
714.053962	690.787413
716.322296	694.186014
718.592043	701.173427
720.859236	704.283916
723.125858	702.784615
725.391910	704.549650
727.655411	700.661538
729.920325	705.095105
732.184669	705.767832
734.444484	708.506294
736.705711	716.026573
738.966371	722.776224
741.224485	734.048951
743.480054	744.960839
745.739014	758.634965
747.991475	794.069930
750.249302	874.823776
752.502611	995.899301
754.753380	1113.461538
757.005561	1208.328671
759.255203	1265.746853
761.506258	1281.418182
763.752801	1257.931469
766.000756	1196.784615
768.246177	1102.906294
770.493009	989.994406
772.739280	877.409790
774.981046	794.344056
777.226196	763.507692
779.464873	758.274126
781.706932	754.977622
783.944493	754.549650
786.183466	750.489510
788.419912	743.167832
790.657769	741.626573
792.893101	738.909091
795.125910	740.004196
797.360130	739.998601
799.591827	736.400000
801.822970	733.401399
804.053558	734.734266
806.283592	730.447552
808.513072	729.601399
810.738070	731.875524
812.966443	727.650350
815.190336	722.987413
817.415641	724.086713
819.636470	717.358042
821.860671	721.167832
824.080399	717.683916
826.301537	715.888112
828.522125	717.071329
830.740204	718.745455
832.959692	721.813986
835.174714	727.871329
837.389188	734.464336
839.603115	739.563636
841.816495	743.488112
844.029327	748.181818
846.241613	748.327273
848.451396	750.889510
850.660634	741.612587
852.869327	737.530070
855.075520	728.184615
857.283124	724.102098
859.488229	719.560839
861.692791	716.195804
863.894858	711.970629
866.098334	709.559441
868.299316	710.135664
870.499756	717.671329
872.701605	717.865734
874.897063	719.439161
877.095880	716.300699
879.290258	719.878322
881.487994	715.069930
883.681294	713.669930
885.876003	706.829371
888.068226	704.186014
890.259910	696.802797
892.451057	694.615385
894.639721	694.883916
896.827849	697.062937
899.013496	691.212587
901.202495	697.594406
903.387071	696.503497
905.571112	700.355245
907.758503	696.394406
909.937590	697.812587
912.120028	697.381818
914.301932	696.300699
916.481361	695.646154
918.658318	693.938462
920.836683	692.597203
923.016455	691.096503
925.189878	691.661538
927.366647	696.711888
929.539009	693.952448
931.712779	693.629371
933.882145	697.398601
936.054855	703.636364
938.225100	709.253147
940.394815	707.081119
942.564003	710.619580
944.728793	708.047552
946.896924	706.311888
949.060660	701.255944
951.225804	695.941259
953.388488	694.325874
955.550647	694.620979
957.710349	693.848951
959.869526	694.906294
962.030110	698.667133
964.188239	700.082517
966.345845	702.525874
968.502927	710.497902
970.659485	713.483916
972.811664	712.509091
974.965250	709.356643
977.118314	704.123077
979.268929	706.787413
981.420951	707.486713
983.568599	703.048951
985.719579	703.433566
987.866188	706.074126
990.012278	707.310490
992.157850	711.862937
994.304827	713.365035
996.445515	716.818182
998.589533	718.606993
1000.731110	718.942657
1002.872171	716.881119
1005.014636	719.272727
1007.150821	720.725874
1009.290333	723.492308
1011.425490	731.685315
1013.563971	739.264336
1015.698098	746.239161
1017.831712	750.165035
1019.966731	753.118881
1022.097400	789.269930
1024.229474	860.622378
1026.359119	961.620979
1028.488252	1063.869930
1030.616873	1140.993007
1032.744983	1191.826573
1034.870667	1207.888112
1036.995841	1188.062937
1039.122419	1131.509091
1041.244659	1045.173427
1043.368304	936.363636
1045.487614	829.454545
1047.612153	759.885315
1049.730448	728.362238
1051.850147	718.763636
1053.967427	714.586014
1056.084200	708.563636
1058.200468	703.998601
1060.314319	707.492308
1062.429575	707.174825
1064.540507	711.095105
1066.654752	719.062937
1068.764676	719.634965
1070.876004	718.678322
1072.986827	717.545455
1075.093334	714.295105
1077.203150	712.001399
1079.308653	709.841958
1081.415558	707.813986
1083.516248	704.152448
1085.622150	707.489510
1087.723743	707.704895
1089.826739	709.383217
1091.929234	712.972028
1094.025522	712.001399
1096.127017	710.904895
1098.224210	715.653147
1100.320905	731.576224
1102.417101	767.820979
1104.512800	801.942657
1106.608000	841.071329
1108.700804	877.486713
1110.795011	898.492308
1112.883025	902.658741
1114.976239	887.850350
1117.063264	860.601399
1119.153588	823.355245
1121.239624	777.160839
1123.328959	739.211189
1125.412112	711.597203
1127.496667	696.072727
1129.582624	686.349650
1131.664299	688.346853
1133.747376	691.068531
1135.828066	692.637762
1137.908266	694.372028
1139.987974	695.949650
1142.067191	698.053147
1144.144026	702.793007
1146.218479	700.612587
1148.296225	706.381818
1150.369701	701.939860
1152.444577	699.159441
1154.515186	697.058741
1156.587196	694.348252
1158.656831	690.742657
1160.727865	691.756643
1162.798413	697.809790
1164.864699	701.300699
1166.932386	703.595804
1168.997701	707.213986
1171.064416	710.944056
1173.126875	719.720280
1175.192619	718.534266
1177.254109	722.749650
1179.317000	725.619580
1181.377523	727.261538
1183.437562	726.995804
1185.497118	725.862937
1187.554310	725.882517
1189.611020	722.697902
1191.665366	718.397203
1193.722994	713.981818
1195.778259	710.109091
1197.829283	705.794406
1199.881707	692.998601
1201.933651	690.458741
1203.983237	689.904895
1206.032344	686.406993
1208.080973	682.879720
1210.129122	681.537063
1212.176794	683.716084
1214.220235	685.697902
1216.266952	687.682517
1218.311315	693.358042
1220.355202	694.872727
1222.396737	689.360839
1224.435923	686.304895
1226.478382	689.776224
1228.516618	686.777622
1230.556253	687.451748
1232.595413	677.843357
1234.630354	677.198601
1236.666694	674.911888
1238.700690	671.979021
1240.736083	673.987413
1242.767264	680.213986
1244.799842	677.067133
1246.831949	680.332867
1248.861715	686.004196
1250.892878	685.318881
1252.919835	682.468531
1254.948189	684.278322
1256.972338	675.130070
1258.999753	675.637762
1261.022965	670.523077
1263.047575	666.749650
1265.069851	666.151049
1267.093524	670.551049
1269.114863	669.041958
1271.135736	676.909091
1273.156141	676.255944
1275.172353	681.927273
1277.189962	683.292308
1279.205243	685.254545
1281.223783	682.534266
1283.238134	680.737063
1285.250158	677.753846
1287.265441	678.518881
1289.276538	683.158042
1291.289032	683.025175
1293.297343	678.878322
1295.308909	683.009790
1297.314437	681.282517
1299.323220	684.696503
1301.327825	677.282517
1303.335684	678.232168
1305.343081	673.727273
1307.344447	672.324476
1309.347209	674.851748
1311.349512	680.338462
1313.351355	681.942657
1315.352738	677.110490
1317.351808	674.303497
1319.350419	671.562238
1321.348572	669.029371
1323.346266	667.303497
1325.339798	660.187413
1327.334725	665.716084
1329.329196	661.251748
1331.323210	660.127273
1333.314917	659.995804
1335.306168	656.924476
1337.295114	651.000000
1339.285456	646.744056
1341.275342	643.300699
1343.262924	642.441958
1345.250053	646.309091
1347.234880	647.511888
1349.221102	646.390210
1351.205023	656.588811
1353.188492	654.367832
1355.171509	656.328671
1357.152228	654.667133
1359.134341	650.711888
1361.114158	646.622378
1363.093523	647.448951
1365.068750	648.497902
1367.047215	653.226573
1369.023387	656.205594
1370.999110	657.100699
1372.974383	656.281119
1374.947365	659.478322
1376.919899	659.191608
1378.891985	661.949650
1380.863624	662.220979
1382.831134	658.725874
1384.803718	652.471329
1386.768496	656.980420
1388.738347	660.239161
1390.704074	663.316084
1392.671193	658.893706
1394.636029	655.359441
1396.596745	649.420979
1398.562529	648.165035
1400.522358	646.159441
1402.483581	650.344056
1404.446195	646.618182
1406.404695	646.502098
1408.362753	648.029371
1410.320369	655.804196
1412.277542	660.893706
1414.232440	660.124476
1416.188731	657.191608
1418.142747	653.695105
1420.096322	648.572028
1422.047625	652.832168
1424.000321	649.752448
1425.950744	652.513287
1427.900729	648.348252
1429.850275	652.186014
1431.797552	650.332867
1433.742561	650.271329
1435.688963	651.233566
1437.634927	650.924476
1439.580454	647.386014
1441.523715	647.330070
1443.466541	647.899301
1445.407103	652.883916
1447.349056	654.419580
1449.288747	660.720280
1451.228004	660.885315
1453.166825	657.871329
1455.103387	656.925874
1457.041340	659.773427
1458.977034	659.186014
1460.912295	657.125874
1462.845299	653.834965
1464.777872	657.248951
1466.710012	655.942657
1468.641720	656.486713
1470.571174	653.381818
1472.502019	655.751049
1474.432432	653.318881
1476.358773	649.100699
1478.286504	649.100699
1480.211986	647.979021
1482.137038	643.872727
1484.061661	638.412587
1485.985854	634.507692
1487.907801	641.271329
1489.831138	641.567832
1491.752228	638.846154
1493.671074	635.744056
1495.591310	637.502098
1497.509303	638.664336
1499.426869	641.394406
1501.342193	642.587413
1503.258907	644.748252
1505.171566	646.878322
1507.087429	647.718881
1509.001052	649.977622
1510.912437	656.914685
1512.825212	656.566434
1514.733937	652.661538
1516.644051	653.067133
1518.553742	646.295105
1520.463010	647.657343
1522.370044	651.071329
1524.274845	651.692308
1526.181035	659.303497
1528.084993	664.296503
1529.988530	667.577622
1531.891647	665.250350
1533.792534	664.945455
1535.694810	664.092308
1537.594858	662.907692
1539.496293	662.276923
1541.393695	651.930070
1543.290678	648.053147
1545.187243	650.338462
1547.085196	650.532867
1548.977313	654.695105
1550.872625	651.257343
1552.767519	648.595804
1554.660191	647.546853
1556.552446	650.521678
1558.442482	651.953846
1560.332102	652.215385
1562.221307	648.651748
1564.110097	644.437762
1565.996669	645.282517
1567.884629	646.683916
1569.768572	646.469930
1571.653902	642.965035
1573.538819	635.320280
1575.421522	635.667133
1577.305612	638.481119
1579.185690	638.560839
1581.067156	635.725874
1582.946411	630.951049
1584.827052	624.806993
1586.701889	623.745455
1588.581707	624.574825
1590.457521	621.738462
1592.332924	622.586014
1594.209713	621.718881
1596.080706	620.636364
1597.954880	627.253147
1599.825055	629.288112
1601.698411	632.036364
1603.569564	632.700699
1605.438516	633.314685
1607.308852	629.358042
1609.175196	630.172028
1611.042925	630.611189
1612.908455	628.309091
1614.775371	627.872727
1616.638298	625.770629
1618.502610	620.372028
1620.364726	617.942657
1622.226437	610.844755
1624.089534	606.590210
1625.950435	601.549650
1627.809144	601.149650
1629.667449	598.233566
1631.527138	602.100699
1633.381061	606.510490
1635.238157	613.146853
1637.094849	614.802797
1638.947566	616.460140
1640.803454	616.763636
1642.655368	614.765035
1644.506881	607.232168
1646.357993	595.131469
1648.208705	591.439161
1650.059015	585.882517
1651.907142	582.765035
1653.756653	582.668531
1655.600414	581.834965
1657.449126	585.749650
1659.292091	583.377622
1661.138223	586.900699
1662.980392	594.676923
1664.825727	592.903497
1666.665321	589.117483
1668.506299	588.271329
1670.348660	593.615385
1672.187065	593.820979
1674.026853	598.588811
1675.864465	599.148252
1677.701683	597.627972
1679.536727	596.061538
1681.373154	593.353846
1683.207409	595.758042
1685.041269	594.626573
1686.874735	585.601399
1688.704256	579.907692
1690.536935	577.769231
1692.365670	578.248951
1694.197562	577.279720
1696.025512	576.651748
1697.853071	572.285315
1699.680237	566.969231
1701.507012	567.938462
1703.333395	569.204196
1705.155842	575.268531
1706.981444	576.759441
1708.803111	581.451748
1710.626160	586.211189
1712.447047	590.893706
1714.267546	592.188811
1716.089425	589.309091
1717.905606	584.472727
1719.724938	580.692308
1721.540342	577.497902
1723.358898	576.051748
1725.173528	572.198601
1726.987771	574.124476
1728.801628	576.885315
1730.615098	580.577622
1732.426415	586.339860
1734.239112	587.013986
1736.051424	584.862937
1737.859817	591.938462
1739.669592	591.365035
1741.475452	593.527273
1743.284457	589.979021
1745.089549	583.144056
1746.896022	579.366434
1748.702111	574.317483
1750.504289	570.559441
1752.309612	566.844755
1754.111026	561.360839
1755.913820	559.660140
1757.712708	563.576224
1759.512977	570.724476
1761.312864	567.002797
1763.110609	570.141259
1764.907974	568.071329
1766.704959	566.483916
1768.501563	566.623776
1770.296028	565.973427
1772.091872	565.580420
1773.882061	566.151049
1775.677147	562.218182
1777.466581	565.472727
1779.259151	565.920280
1781.049586	567.193007
1782.837887	567.223776
1784.629323	571.563636
1786.415113	564.958042
1788.202283	564.780420
1789.987321	561.737063
1791.775493	563.271329
1793.559779	557.239161
1795.341935	555.425175
1797.125471	549.391608
1798.906878	546.370629
1800.689664	547.692308
1802.468569	552.674126
1804.248853	552.572028
1806.027012	555.237762
1807.806549	554.026573
1809.583961	558.634965
1811.359249	560.920280
1813.135915	559.689510
1814.910459	554.857343
1816.686381	554.342657
1818.456682	550.935664
1820.230111	551.383217
1822.001420	556.788811
1823.772358	555.100699
1825.544674	555.124476
1827.311376	556.630769
1829.081203	553.630769
1830.847167	554.735664
1832.616255	551.734266
1834.381481	554.507692
1836.146339	548.640559
1837.912574	545.310490
1839.674950	541.696503
1841.436959	543.198601
1843.198600	542.097902
1844.959875	544.230769
1846.720782	543.271329
1848.481323	543.016783
1850.239754	544.113287
1851.997819	547.386014
1853.753777	546.994406
1855.511111	551.539860
1857.268080	541.637762
1859.022942	544.139860
1860.775700	540.647552
1862.528093	541.135664
1864.281863	533.892308
1866.033529	532.798601
1867.783093	530.309091
1869.534032	534.156643
1871.284609	536.717483
1873.031346	537.934266
1874.779460	536.237762
1876.525474	539.897902
1878.272863	543.029371
1880.018155	549.139860
1881.761349	546.029371
1883.505918	544.050350
1885.248391	538.900699
1886.990505	536.194406
1888.732258	536.209790
1890.473651	534.478322
1892.212951	531.647552
1893.951892	532.005594
1895.690474	531.546853
1897.426965	539.131469
1899.163098	541.977622
1900.900605	544.745455
1902.634290	544.669930
1904.369350	545.342657
1906.102321	549.464336
1907.834936	544.426573
1909.567195	539.871329
1911.299097	537.152448
1913.028913	531.709091
1914.756644	529.275524
1916.485750	524.186014
1918.214500	524.342657
1919.941168	521.244755
1921.667481	523.314685
1923.395167	524.009790
1925.117317	525.770629
1926.842568	526.204196
1928.564012	522.816783
1930.288557	520.518881
1932.011021	525.191608
1933.729683	526.844755
1935.451443	531.134266
1937.169401	532.215385
1938.888732	536.138462
1940.604264	535.748252
1942.324616	536.405594
1944.041170	532.061538
1945.753927	533.163636
1947.469780	526.162238
1949.183561	527.911888
1950.896992	524.362238
1952.608352	527.630769
1954.321084	530.186014
1956.030026	532.180420
1957.742060	532.176224
1959.448585	535.741259
1961.158203	533.012587
1962.865754	535.158042
1964.572956	533.099301
1966.278093	533.053147
1967.982884	533.380420
1969.689046	536.665734
1971.391426	533.969231
1973.095177	532.380420
1974.796866	527.625175
1976.498210	525.965035
1978.199208	525.892308
1979.898145	523.823776
1981.598454	521.668531
1983.294987	528.422378
1984.992893	528.167832
1986.688739	528.264336
1988.387671	532.944056
1990.081117	530.226573
1991.775934	526.254545
1993.470409	522.131469
1995.161115	520.313287
1996.854905	523.186014
1998.544928	521.718881
2000.236322	519.781818
2001.925663	520.555245
2003.616374	522.149650
2005.303322	519.523077
2006.989931	519.625175
2008.677909	518.267133
2010.362128	513.467133
2012.047718	511.353846
2013.732968	513.097902
2015.416169	516.468531
2017.100741	518.953846
2018.779849	517.728671
2020.463744	518.558042
2022.142177	512.013986
2023.823688	506.811189
2025.501447	502.602797
2027.178870	503.118881
2028.857662	501.455944
2030.534412	502.107692
2032.209120	503.395804
2033.885197	506.584615
2035.559233	507.097902
2037.232935	508.579021
2038.906301	503.581818
2040.577628	503.639161
2042.248621	500.233566
2043.919280	497.595804
2045.589605	495.295105
2047.259596	494.467133
2048.927551	498.257343
2050.595173	498.707692
2052.260760	498.987413
2053.927716	504.002797
2055.592639	503.959441
2057.257230	506.047552
2058.919789	503.907692
2060.583716	509.776224
2062.245612	507.426573
2063.907178	510.002797
2065.568412	512.496503
2067.227618	510.220979
2068.886493	509.714685
2070.545039	507.106294
2072.203254	510.556643
2073.857747	514.945455
2075.515304	514.331469
2077.172531	518.516084
2078.826038	519.050350
2080.480912	518.509091
2082.132067	514.595804
2083.786285	517.391608
2085.436785	516.479720
2087.088653	508.769231
2088.735112	505.672727
2090.386326	504.593007
2092.033826	503.671329
2093.682693	500.612587
2095.329541	496.534266
2096.976064	497.008392
2098.622261	496.981818
2100.264750	497.986014
2101.910297	498.006993
2103.552137	499.194406
2105.197034	501.107692
2106.838225	501.893706
2108.479094	501.496503
2110.119638	501.009790
2111.758170	493.695105
2113.398068	487.682517
2115.034266	480.004196
2116.671830	474.390210
2118.309072	479.377622
2119.944304	484.864336
2121.579214	483.704895
2123.213803	483.062937
2124.848071	484.748252
2126.478645	487.019580
2128.112271	486.088112
2129.742205	487.090909
2131.373504	478.218182
2133.002798	475.538462
2134.631773	469.558042
2136.260428	472.058741
2137.888764	478.914685
2139.515098	481.088112
2141.141113	478.304895
2142.765126	476.737063
2144.390505	474.749650
2146.013883	479.116084
2147.638626	484.679720
2149.259688	487.606993
2150.880433	485.495105
2152.502543	485.050350
2154.122655	486.279720
2155.740770	490.949650
2157.358570	487.130070
2158.976055	483.581818
2160.593224	478.812587
2162.210078	473.846154
2163.826616	468.630769
2165.441162	474.471329
2167.053715	477.875524
2168.667632	477.565035
2170.279558	471.401399
2171.892847	473.376224
2173.504146	478.346853
2175.113455	478.900699
2176.724128	478.072727
2178.332812	478.370629
2179.941183	472.827972
2181.547568	470.400000
2183.155315	472.225175
2184.761077	475.419580
2186.366527	470.314685
2187.969992	468.952448
2189.574820	466.295105
2191.177664	469.278322
2192.778525	467.970629
2194.380749	469.344056
2195.980991	473.099301
2197.582595	474.441958
2199.180546	471.818182
2200.779860	474.282517
2202.377194	475.573427
2203.974220	475.113287
2205.572608	472.683916
2207.167347	476.200000
2208.760109	474.893706
2210.354234	469.815385
2211.949720	461.776224
2213.541561	465.959441
2215.133096	465.468531
2216.725993	463.113287
2218.313580	465.493706
2219.905863	464.510490
2221.492840	463.299301
2223.082844	465.681119
2224.667544	464.383217
2226.256938	459.606993
2227.841030	450.839161
2229.426482	444.556643
2231.009966	435.409790
2232.596475	436.412587
2234.179351	435.388811
2235.761924	436.046853
2237.344193	441.374825
2238.922832	442.911189
2240.504496	448.899301
2242.082531	452.360140
2243.663589	450.057343
2245.241020	448.632867
2246.816488	444.018182
2248.394978	444.172727
2249.969844	441.488112
2251.544409	439.758741
2253.118673	441.226573
2254.692638	439.189510
2256.266301	438.205594
2257.839665	436.271329
2259.409410	435.002797
2260.978856	430.198601
2262.551320	425.809790
2264.118510	425.230769
2265.688718	428.048951
2267.255311	434.541259
2268.823264	435.120280
2270.389261	435.980420
2271.954961	441.314685
2273.520363	443.257343
2275.083812	451.374825
2276.648620	447.114685
2278.209820	445.151049
2279.774034	439.479720
2281.332986	436.088112
2282.894952	434.051748
2284.454968	433.791608
2286.014689	430.227972
2287.572460	426.944056
2289.129936	432.113287
2290.687118	433.911888
2292.242352	432.118881
2293.797293	431.678322
2295.351939	424.725874
2296.906292	423.580420
2298.460351	421.503497
2300.014117	421.537063
2301.565938	423.248951
2303.115817	426.311888
2304.668703	426.197203
2306.216346	431.665734
2307.766998	437.446154
2309.314058	435.151049
2310.862476	429.268531
2312.410603	421.121678
2313.955141	419.416783
2315.501037	418.268531
2317.044995	418.313287
2318.590309	419.615385
2320.132040	428.153846
2321.675127	429.779021
2323.216278	427.675524
2324.757140	427.071329
2326.297713	425.924476
2327.837997	420.281119
2329.377992	415.149650
2330.914409	411.953846
2332.453827	414.672727
2333.989667	414.458741
2335.526865	415.022378
2337.060487	413.468531
2338.597109	419.493706
2340.131801	416.769231
2341.664563	417.794406
2343.197038	415.253147
2344.727585	416.626573
2346.261130	415.983217
2347.789464	422.100699
2349.319154	426.717483
2350.848559	428.886713
2352.377679	430.044755
2353.906513	429.018182
2355.430143	424.128671
2356.958408	425.486713
2358.481471	423.015385
2360.009167	424.316084
2361.530024	421.662937
2363.055513	421.325874
2364.577443	418.837762
2366.100727	421.946853
2367.622091	416.970629
2369.141535	416.369231
2370.662334	416.381818
2372.181214	412.909091
2373.699813	411.769231
2375.216494	411.696503
2376.734529	414.752448
2378.252283	415.057343
2379.766485	409.022378
2381.280408	407.725874
2382.794050	401.727273
2384.309047	403.586014
2385.820495	399.107692
2387.333298	405.072727
2388.844187	405.200000
2390.354798	403.741259
2391.863497	403.848951
2393.375182	405.420979
2394.883324	406.483916
2396.391188	407.711888
2397.898774	401.427972
2399.402819	403.755245
2400.909849	399.295105
2402.414971	401.805594
2403.919816	402.946853
2405.422754	406.909091
2406.925416	404.253147
2408.427801	400.475524
2409.928281	397.986014
2411.430114	394.986014
2412.930042	391.009790
2414.429695	392.976224
2415.929073	388.418182
2417.426548	389.727273
2418.922121	390.069930
2420.420674	393.661538
2421.915699	395.804196
2423.412076	398.597203
2424.904927	395.732867
2426.399131	396.363636
2427.893061	393.276923
2429.383467	392.027972
2430.876851	391.332867
2432.368337	392.303497
2433.857926	387.879720
2435.347243	386.215385
2436.834664	388.509091
2438.325061	393.135664
2439.811940	390.825175
2441.300170	393.413986
2442.784883	391.907692
2444.269327	396.193007
2445.755121	394.324476
2447.239024	398.352448
2448.724277	396.755245
2450.204397	396.367832
2451.687490	392.855944
2453.168692	388.320280
2454.649625	387.383217
2456.128669	384.963636
2457.607444	384.499301
2459.085951	382.869930
2460.564190	384.416783
2462.042160	386.362238
2463.516625	387.601399
2464.994060	389.479720
2466.467991	387.202797
2467.943272	391.184615
2469.418286	389.226573
2470.889799	382.640559
2472.362663	376.579021
2473.833644	375.366434
2475.305975	377.432168
2476.773192	378.201399
2478.243376	383.883916
2479.711679	384.380420
2481.179717	387.541259
2482.647490	386.997203
2484.114998	385.244755
2485.582241	385.520280
2487.045992	383.879720
2488.511093	381.967832
2489.974317	379.160839
2491.438890	382.882517
2492.899975	380.462937
2494.362409	384.226573
2495.824580	387.430769
2497.283265	388.237762
2498.746521	384.370629
2500.204682	382.467133
2501.664191	376.258741
2503.118606	374.702098
2504.577592	374.731469
2506.034706	377.060140
2507.489948	377.927273
2508.944930	381.172028
2510.398043	382.013986
2511.852504	386.321678
2513.305095	387.588811
2514.757427	386.612587
2516.207892	378.170629
2517.661312	378.552448
2519.109650	372.219580
2520.560943	370.865734
2522.010371	367.097902
2523.456326	369.086713
2524.905236	372.167832
2526.350676	372.419580
2527.797463	370.822378
2529.242387	370.725874
2530.687054	368.597203
2532.133068	370.748252
2533.575616	368.619580
2535.019511	374.174825
2536.459941	372.351049
2537.901718	373.117483
2539.341636	372.556643
2540.782901	377.895105
2542.220704	380.475524
2543.661457	375.362238
2545.097148	372.612587
2546.535788	372.067133
2547.972570	365.896503
2549.407497	366.706294
2550.845371	366.216783
2552.278188	368.544056
2553.712352	364.903497
2555.144662	366.808392
2556.578318	367.542657
2558.010121	370.227972
2559.441670	372.247552
2560.872967	366.977622
2562.302411	363.372028
2563.731603	366.720280
2565.158945	364.825175
2566.587632	368.517483
2568.016068	366.632168
2569.441056	364.125874
2570.867391	359.441958
2572.291877	362.777622
2573.717709	357.165035
2575.140097	356.559441
2576.563831	352.893706
2577.985718	344.696503
2579.407356	340.570629
2580.827148	345.002797
2582.248286	346.672727
2583.669174	350.194406
2585.086623	352.773427
2586.507013	358.393007
2587.923965	357.462937
2589.340668	363.436364
2590.757123	359.987413
2592.173330	360.352448
2593.589289	356.369231
2595.003407	353.619580
2596.417277	347.598601
2597.829309	348.289510
2599.242684	344.172028
2600.652630	344.604196
2602.065512	342.904895
2603.474965	345.776224
2604.884172	343.590210
2606.291543	346.804196
2607.701848	344.806993
2609.110318	353.416783
2610.516952	359.530070
2611.923341	362.869930
2613.327896	361.195804
2614.733795	361.212587
2616.137861	354.002797
2617.541682	351.200000
2618.945259	342.586014
2620.347005	342.567832
2621.750094	338.967832
2623.149765	332.064336
2624.550780	330.874126
2625.948379	338.393007
2627.348907	338.938462
2628.746021	344.837762
2630.144478	348.686713
2631.541108	355.358042
2632.937495	358.394406
2634.333640	361.027972
2635.727959	358.644755
2637.123621	357.921678
2638.515874	353.562238
2639.909469	346.716084
2641.301240	345.576224
2642.694354	343.962238
2644.085644	340.816783
2645.475111	343.444755
2646.864338	341.236364
2648.253326	340.001399
2649.643655	338.346853
2651.029001	340.285315
2652.417270	336.576224
2653.803719	340.009790
2655.189929	341.050350
2656.575900	343.861538
2657.958473	344.627972
2659.342388	349.639161
2660.726065	349.267133
2662.109503	347.745455
2663.489546	342.412587
2664.870931	338.811189
2666.250501	339.012587
2667.631411	336.481119
2669.010507	331.149650
2670.387789	332.876923
2671.766412	331.598601
2673.143222	330.934266
2674.519795	327.675524
2675.896133	334.304895
2677.270660	331.525874
2678.646527	331.022378
2680.019007	331.332867
2681.394403	334.276923
2682.764839	331.335664
2684.136616	331.721678
2685.508158	333.620979
2686.877892	336.605594
2688.248967	336.313287
2689.618233	335.713287
2690.987266	329.875524
2692.354493	332.488112
2693.721486	326.426573
2695.088247	329.566434
2696.454776	330.959441
2697.819499	330.689510
2699.183990	323.465734
2700.548250	326.734266
2701.912277	326.739860
2703.276073	324.355245
2704.636495	321.229371
2705.999827	321.338462
2707.358217	318.320280
2708.719517	321.993007
2710.077447	322.443357
2711.438285	325.332867
2712.797324	321.169231
2714.152994	321.437762
2715.511572	315.352448
2716.866783	316.752448
2718.221765	313.427972
2719.574950	311.012587
2720.931042	310.855944
2722.283770	316.387413
2723.636270	315.591608
2724.988541	319.288112
2726.342150	318.818182
2727.692399	315.748252
2729.040853	311.009790
2730.392212	313.265734
2731.740213	306.187413
2733.089551	305.977622
2734.437097	303.043357
2735.784417	300.402797
2737.131510	301.629371
2738.476812	305.767832
2739.821887	298.195804
2741.166737	297.155245
2742.511361	291.248951
2743.852633	289.808392
2745.195243	286.755245
2746.537627	288.973427
2747.879786	288.102098
2749.218596	291.542657
2750.560306	296.411189
2751.898667	296.911888
2753.238366	301.488112
2754.576280	306.527273
2755.912409	301.848951
2757.248314	301.138462
2758.585557	297.881119
2759.921016	298.030769
2761.256252	294.321678
2762.589705	302.489510
2763.924495	302.250350
2765.255945	306.120280
2766.590290	309.716084
2767.919737	309.353846
2769.250520	310.906294
2770.581083	313.730070
2771.909866	312.071329
2773.239985	316.356643
2774.568326	310.304895
2775.896446	307.906294
2777.222788	301.300699
2778.550467	300.625175
2779.874812	292.813986
2781.200494	292.941259
2782.524400	293.629371
2783.848086	293.282517
2785.173109	292.934266
2786.494801	293.530070
2787.816275	294.755245
2789.137530	296.920280
2790.458566	291.460140
2791.777829	295.201399
2793.098428	292.832168
2794.417256	289.946853
2795.735865	287.506294
2797.052703	288.233566
2798.369324	287.779021
2799.685728	288.134266
2801.000362	283.979021
2802.316332	281.827972
2803.628981	280.258741
2804.942965	279.230769
2806.256733	279.288112
2807.570284	283.548252
2808.882069	282.767832
2810.192087	282.186014
2811.503440	281.401399
2812.811478	283.285315
2814.120850	282.921678
2815.430008	284.009790
2816.738950	282.627972
2818.046128	284.162238
2819.351544	287.219580
2820.658293	287.883916
2821.963281	289.917483
2823.268054	286.623776
2824.571067	288.092308
2825.876960	287.323077
2827.177999	285.152448
2828.480372	288.476923
2829.780985	288.696503
2831.082932	289.179021
2832.384665	290.916084
2833.683095	292.560839
2834.982858	291.367832
2836.280864	290.033566
2837.578658	287.732867
2838.874696	282.458741
2840.172067	279.584615
2841.467682	276.601399
2842.763086	277.574825
2844.058279	283.520280
2845.350175	282.226573
2846.644947	286.261538
2847.936422	285.229371
2849.229230	287.658741
2850.521828	286.868531
2851.811132	286.383217
2853.101768	284.317483
2854.390653	281.948252
2855.680870	275.924476
2856.967796	275.195804
2858.256054	275.913287
2859.542563	278.605594
2860.828863	273.275524
2862.114956	274.205594
2863.399300	270.102098
2864.686515	272.854545
2865.968904	270.330070
2867.252625	271.356643
2868.534600	271.895105
2869.816367	275.945455
2871.096390	275.734266
2872.379282	276.159441
2873.660429	277.563636
2874.938294	279.461538
2876.219028	273.644755
2877.496481	273.300699
2878.773728	271.759441
2880.049233	272.572028
2881.327606	268.524476
2882.601165	267.818182
2883.877591	264.131469
2885.152276	270.422378
2886.425220	269.948252
2887.699496	272.558042
2888.972032	269.702098
2890.244363	270.026573
2891.513422	265.060140
2892.785346	266.331469
2894.055532	264.325874
2895.325514	265.397203
2896.595293	264.844755
2897.863336	263.579021
2899.129642	262.324476
2900.395747	266.924476
2901.663181	264.988811
2902.928880	269.892308
2904.194378	266.011189
2905.459673	265.661538
2906.721703	262.320280
2907.985063	265.254545
2909.248222	264.462937
2910.509649	270.598601
2911.772405	272.071329
2913.033429	271.226573
2914.292723	269.167832
2915.551817	272.085315
2916.810710	269.481119
2918.069403	276.092308
2919.327896	272.471329
2920.584660	269.720280
2921.841224	268.131469
2923.096061	266.644755
2924.352226	263.875524
2925.605137	262.478322
2926.859377	256.297902
2928.113417	257.620979
2929.365732	257.552448
2930.617849	260.208392
2931.868241	257.271329
2933.121488	264.681119
2934.369958	262.453147
2935.621283	261.450350
2936.869358	258.658741
2938.117237	258.269930
2939.364918	255.029371
2940.612402	254.229371
2941.858165	252.983217
2943.103732	255.904895
2944.350626	254.190210
2945.594276	255.033566
2946.839254	254.346853
2948.080988	260.600000
2949.325574	257.211189
2950.568441	255.420979
2951.808067	253.346853
2953.050543	253.681119
2954.289779	250.137063
2955.530343	250.598601
2956.769190	244.755245
2958.007843	241.127273
2959.244780	239.781818
2960.483045	242.317483
2961.719594	244.163636
2962.955950	245.337063
2964.192112	241.166434
2965.426560	239.875524
2966.660816	237.601399
2967.894878	238.997203
2969.127227	238.475524
2970.357866	239.009790
2971.591350	237.420979
2972.823122	240.668531
2974.053184	246.179021
2975.283053	249.897902
2976.511213	250.949650
2977.740700	248.179021
2978.968477	246.970629
2980.196063	244.864336
2981.424975	243.907692
2982.649146	246.518881
2983.876159	239.549650
2985.099948	237.902098
2986.325064	238.749650
2987.548473	241.064336
2988.771692	237.386014
2989.993206	237.406993
2991.217561	235.366434
2992.437181	237.703497
2993.658127	237.293706
2994.878884	241.464336
2996.097937	240.739860
2997.318315	239.254545
2998.535477	237.005594
2999.753965	237.806993
3000.970750	239.751049
3002.187348	242.135664
3003.403757	236.269930
3004.616953	240.528671
3005.832988	241.338462
3007.045810	243.830769
3008.261469	242.783217
3009.472405	246.745455
3010.684666	239.586014
3011.896741	237.365035
3013.108628	238.630769
3014.318819	235.142657
3015.528823	234.397203
3016.738641	233.994406
3017.946763	228.851748
3019.154700	229.469930
3020.360941	232.033566
3021.568507	233.611189
3022.774378	235.717483
3023.980065	240.285315
3025.185566	238.661538
3026.389374	240.054545
3027.594506	240.528671
3028.797945	240.047552
3029.999693	239.949650
3031.201256	237.365035
3032.402636	233.834965
3033.603832	232.559441
3034.803338	232.422378
3036.002661	229.443357
3037.203307	228.784615
3038.402263	230.111888
3039.598025	227.930070
3040.796616	232.454545
3041.992013	228.913287
3043.188733	228.479720
3044.382261	226.353846
3045.578617	226.176224
3046.773286	224.476923
3047.964765	225.745455
3049.160576	223.398601
3050.351692	223.937063
3051.544132	225.577622
3052.733384	227.871329
3053.925461	227.349650
3055.115855	229.132867
3056.303063	223.015385
3057.491593	219.579021
3058.681446	219.384615
3059.868115	219.506294
3061.054603	214.931469
3062.240913	218.562238
3063.428544	219.800000
3064.612993	221.770629
3065.795763	222.990210
3066.981355	226.125874
3068.165268	222.236364
3069.347502	217.867133
3070.529557	213.748252
3071.711434	209.959441
3072.893133	206.637762
3074.073155	207.847552
3075.251500	209.099301
3076.432665	218.545455
3077.610655	221.725874
3078.788468	225.387413
3079.966104	223.611189
3081.142066	225.068531
3082.317850	221.588811
3083.494956	218.086713
3084.670387	214.290909
3085.844145	212.493706
3087.016230	206.737063
3088.189637	211.734266
3089.362867	214.145455
3090.534426	215.994406
3091.707305	215.211189
3092.877017	216.197203
3094.048050	209.883916
3095.217413	212.611189
3096.385105	212.083916
3097.555613	210.064336
3098.721463	207.111888
3099.891621	209.802797
3101.057123	208.765035
3102.222450	211.893706
3103.387604	210.888112
3104.552585	208.469930
3105.718885	206.593007
3106.880533	203.160839
3108.043500	200.609790
3109.206295	203.717483
3110.368917	199.980420
3111.529873	200.667133
3112.690658	202.166434
3113.851270	204.721678
3115.010218	205.489510
3116.168995	207.265734
3117.327599	211.169231
3118.486032	211.581818
3119.644294	208.921678
3120.800893	211.159441
3121.955831	208.988811
3123.112088	211.209790
3124.266684	210.299301
3125.421110	212.969231
3126.573876	207.436364
3127.726471	210.337063
3128.878897	207.742657
3130.031153	208.994406
3131.183238	206.344056
3132.332177	208.082517
3133.483924	206.201399
3134.634012	206.855944
3135.782444	197.776224
3136.930706	195.590210
3138.078800	190.457343
3139.226725	190.973427
3140.372994	189.703497
3141.519095	195.787413
3142.663542	194.464336
3143.807821	198.380420
3144.951932	201.717483
3146.097360	211.181818
3147.239650	211.093706
3148.381773	216.251748
3149.523728	214.247552
3150.665516	215.227972
3151.807137	211.588811
3152.945623	212.541259
3154.085426	207.581818
3155.226546	202.064336
3156.364533	197.626573
3157.500870	192.267133
3158.637041	188.829371
3159.774529	189.488112
3160.910369	187.461538
3162.047526	188.977622
3163.180070	188.384615
3164.316896	192.786014
3165.449110	190.300699
3166.582641	195.151049
3167.716008	194.467133
3168.846247	191.958042
3169.979284	186.744056
3171.109195	182.731469
3172.240422	178.766434
3173.368525	179.306294
3174.499424	175.703497
3175.628679	176.892308
3176.756291	175.200000
3177.880780	179.158042
3179.009545	177.744056
3180.135188	182.229371
3181.260669	182.257343
3182.384507	181.899301
3183.511141	178.297902
3184.633177	179.646154
3185.756529	181.365035
3186.879719	183.843357
3188.002746	188.127273
3189.124135	192.303497
3190.245361	191.779021
3191.364950	193.362238
3192.484377	188.257343
3193.602166	190.395804
3194.722747	191.925874
3195.840215	192.672727
3196.957522	189.779021
3198.074669	192.439161
3199.190179	194.916084
3200.307005	195.236364
3201.420721	193.555245
3202.537226	192.629371
3203.652097	190.555245
3204.763858	189.015385
3205.875461	185.462937
3206.988379	185.525874
3208.101137	180.099301
3209.210789	176.781818
3210.321756	172.615385
3211.432564	173.461538
3212.541740	176.654545
3213.649285	180.717483
3214.758145	177.093706
3215.866847	182.141259
3216.972446	185.889510
3218.079359	190.530070
3219.184643	188.412587
3220.291241	188.812587
3221.394739	181.486713
3222.499552	179.623776
3223.604206	175.158042
3224.705763	175.795804
3225.807163	176.134266
3226.909877	177.027972
3228.012435	173.120280
3229.111896	176.772028
3230.214141	178.397203
3231.313290	182.595804
3232.410815	182.275524
3233.508184	187.881119
3234.608335	188.365035
3235.705394	192.204196
3236.802297	188.197203
3237.899045	185.872727
3238.991235	177.688112
3240.087673	176.896503
3241.182489	172.030769
3242.277151	171.402797
3243.370191	168.025175
3244.463076	169.742657
3245.554341	171.977622
3246.646919	177.555245
3247.737877	178.404196
3248.827215	176.423776
3249.916400	174.323077
3251.006898	174.507692
3252.094311	171.917483
3253.181571	175.958042
3254.270144	177.593007
3255.358564	181.044755
3256.442438	182.974825
3257.530553	189.047552
3258.615586	186.851748
3259.699004	184.440559
3260.783734	175.695105
3261.866848	168.027972
3262.951275	168.032168
3264.032623	168.741259
3265.115283	169.816783
3266.196329	174.730070
3267.277224	178.739860
3268.356505	182.497902
3269.435636	182.762238
3270.516079	182.755245
3271.593447	177.240559
3272.672127	178.927273
3273.749195	171.517483
3274.826114	171.994406
3275.901421	170.802797
3276.976579	172.348252
3278.053048	170.069930
3279.126447	171.225175
3280.199696	167.911888
3281.274257	165.787413
3282.347209	162.581818
3283.418552	164.897902
3284.491206	165.839161
3285.560794	173.802797
3286.631692	174.083916
3287.700983	176.248951
3288.771585	175.041958
3289.840580	173.123077
3290.907969	163.704895
3291.973753	166.944056
3293.043763	166.504895
3294.110710	169.050350
3295.174595	172.639161
3296.241247	176.590210
3297.306296	176.415385
3298.369741	177.058741
3299.433040	175.097902
3300.496192	172.372028
3301.559198	169.020979
3302.622058	160.909091
3303.683316	151.306294
3304.741517	153.239161
3305.803938	152.724476
3306.863304	153.749650
3307.922524	155.979021
3308.983053	158.983217
3310.039074	161.370629
3311.097858	164.476923
3312.152135	165.398601
3313.209176	165.237762
3314.264618	163.674126
3315.321370	161.935664
3316.376523	158.131469
3317.430079	159.871329
3318.482039	158.500699
3319.536760	157.002797
3320.588432	159.703497
3321.639961	163.090909
3322.692798	169.349650
3323.742588	170.848951
3324.793687	169.234965
3325.841740	169.553846
3326.892552	169.552448
3327.940320	167.572028
3328.987944	162.528671
3330.035427	165.951049
3331.081317	164.613986
3332.128515	159.374825
3333.172671	158.829371
3334.219585	161.096503
3335.264907	164.597203
3336.307188	163.137063
3337.349329	161.541259
3338.392777	158.137063
3339.436084	156.552448
3340.477802	155.360839
3341.519378	156.044755
3342.560813	160.717483
3343.600660	160.598601
3344.638918	158.559441
3345.678484	159.507692
3346.717910	163.783217
3347.755748	162.395804
3348.791999	159.636364
3349.828111	158.029371
3350.865530	156.250350
3351.899916	152.888112
3352.935609	154.784615
3353.971163	154.904895
3355.003686	156.437762
3356.038962	156.218182
3357.071207	156.353846
3358.103314	156.559441
3359.133837	160.500699
3360.165667	160.341259
3361.197359	158.650350
3362.226023	162.562238
3363.254550	164.513287
3364.284383	160.679720
3365.314079	163.177622
3366.340749	160.793007
3367.368725	160.654545
3368.393678	156.328671
3369.421380	155.716084
3370.446059	152.879720
3371.472044	150.044755
3372.496449	148.727273
3373.520718	149.890909
3374.543408	152.572028
3375.565962	155.300699
3376.589822	153.837762
3377.610662	158.137063
3378.631366	159.742857
3379.653377	160.716384
3380.672369	160.862537
3381.691225	159.986214
3382.711388	157.892308
3383.728534	154.385714
