-165.528079	7.400000
-162.858479	7.000000
-160.191814	1.200000
-157.525901	-5.200000
-154.862921	11.400000
-152.198510	-5.200000
-149.537030	-9.600000
-146.874121	-21.000000
-144.216318	9.600000
-141.557086	-34.400000
-138.898602	16.600000
-136.243043	3.000000
-133.586054	14.800000
-130.934164	-15.400000
-128.280844	-4.400000
-125.630443	-2.600000
-122.978614	3.000000
-120.331874	-27.400000
-117.683706	-10.800000
-115.036280	8.200000
-112.391769	-4.600000
-109.745828	-12.400000
-107.104969	18.600000
-104.462681	-8.000000
-101.823302	-14.600000
-99.182493	-12.200000
-96.542425	2.800000
-93.907430	19.600000
-91.271005	-0.400000
-88.637483	-4.800000
-86.002533	23.600000
-83.372648	-0.800000
-80.739171	-14.000000
-78.110756	4.200000
-75.483075	9.600000
-72.853965	4.400000
-70.229912	25.800000
-67.602270	21.800000
-64.979681	14.000000
-62.357824	36.200000
-59.736697	39.000000
-57.116301	96.400000
-54.498792	224.800000
-51.879855	843.200000
-49.263803	2040.400000
-46.648480	3216.200000
-44.033885	1875.800000
-41.422171	364.800000
-38.809029	27.600000
-36.200921	-1.000000
-33.589231	24.600000
-30.982572	18.800000
-28.374485	14.000000
-25.767122	-1.200000
-23.164784	-0.800000
-20.558868	-0.600000
-17.957974	-6.400000
-15.355652	11.600000
-12.758347	-9.200000
-10.157467	6.600000
-7.561602	23.200000
-4.964308	4.800000
-2.367734	14.400000
0.223831	4.000000
2.816824	-6.600000
5.406956	-0.200000
7.998515	33.600000
10.587216	-3.400000
13.177343	26.200000
15.762471	20.400000
18.349027	18.200000
20.934869	-8.800000
23.517857	3.400000
26.102271	-6.400000
28.679557	22.200000
31.260409	8.200000
33.838412	17.600000
36.415705	0.600000
38.994424	12.400000
41.568161	-4.400000
44.143326	-10.600000
46.715647	16.200000
49.287260	7.600000
51.856033	6.000000
54.426233	8.200000
56.993594	36.400000
59.562382	28.600000
62.128333	10.600000
64.691449	21.200000
67.258121	8.400000
69.815572	39.600000
72.378708	48.400000
74.936884	81.600000
77.498615	168.200000
80.055389	293.400000
82.613589	355.400000
85.166837	369.400000
87.719387	358.000000
90.275487	442.800000
92.826639	606.400000
95.377094	795.400000
97.926851	906.000000
100.473789	1030.800000
103.020032	1037.000000
105.567700	1025.200000
108.114672	994.600000
110.656709	1000.000000
113.198052	997.200000
115.738702	996.600000
118.280778	1082.000000
120.820042	1158.000000
123.356498	1257.400000
125.892262	1332.200000
128.429452	1441.200000
130.965951	1625.600000
133.499644	1818.600000
136.030533	2072.200000
138.560735	2385.000000
141.092361	2879.600000
143.621186	3469.800000
146.147212	4165.800000
148.672552	5032.200000
151.199317	5985.800000
153.723286	7022.000000
156.246570	7874.000000
158.769169	8225.200000
161.288975	8024.800000
163.808098	7456.600000
166.326538	6632.200000
168.846402	5564.800000
171.359265	4722.800000
173.875659	3882.000000
176.391371	3356.800000
178.902193	2853.600000
181.414440	2492.600000
183.923905	2218.400000
186.432690	1986.200000
188.940798	1769.200000
191.450330	1635.000000
193.954981	1453.400000
196.458956	1433.400000
198.964355	1360.400000
201.464879	1286.800000
203.968926	1255.800000
206.466003	1252.000000
208.966603	1265.400000
211.464431	1382.600000
213.961586	1632.200000
216.458068	1964.400000
218.949687	2013.000000
221.444826	1577.400000
223.937198	1160.000000
226.428900	965.000000
228.917839	861.800000
231.408201	822.800000
233.895802	783.200000
236.380643	779.000000
238.868999	746.800000
241.350415	735.000000
243.835345	701.000000
246.315430	699.000000
248.799027	680.800000
251.277781	683.800000
253.757958	655.000000
256.235384	673.400000
258.712146	657.200000
261.188244	680.400000
263.661595	673.800000
266.134283	687.600000
268.606310	656.200000
271.077676	702.200000
273.546297	708.000000
276.014260	724.000000
278.483644	717.200000
280.948206	697.600000
283.416272	676.800000
285.879518	680.400000
288.342106	662.200000
290.804038	692.000000
293.265313	701.600000
295.723854	753.400000
298.183817	772.800000
300.641047	892.200000
303.097623	1261.000000
305.553545	1903.600000
308.006737	2509.200000
310.461352	2243.800000
312.911165	1467.800000
315.364474	1067.000000
317.812984	876.800000
320.260844	816.000000
322.710126	779.800000
325.154614	767.600000
327.600524	769.600000
330.045784	765.800000
332.488326	727.000000
334.930220	687.200000
337.371467	757.200000
339.809998	745.200000
342.249951	783.400000
344.687190	922.000000
347.121717	963.600000
349.559732	973.200000
351.992970	916.400000
354.427629	1054.600000
356.857516	1052.000000
359.290888	939.600000
361.719490	859.400000
364.147450	786.400000
366.576832	763.000000
369.001448	810.600000
371.427486	791.800000
373.852883	811.000000
376.277640	859.600000
378.697639	860.000000
381.119058	918.800000
383.537782	931.600000
385.957926	986.200000
388.375375	1079.200000
390.794244	1135.800000
393.210420	1219.800000
395.621848	1433.800000
398.036753	1660.800000
400.448969	1936.800000
402.860550	2595.400000
405.271497	3530.800000
407.679758	5164.200000
410.087386	8322.400000
412.494382	14015.200000
414.900747	21488.400000
417.304429	26606.800000
419.707481	24161.800000
422.109903	16571.600000
424.511695	10095.000000
426.910809	6535.200000
429.311343	4589.400000
431.711248	3549.000000
434.106431	2871.800000
436.505080	2468.400000
438.899009	2168.200000
441.292311	1964.400000
443.684989	1789.800000
446.077041	1656.000000
448.470511	1503.000000
450.859269	1481.000000
453.245361	1345.400000
455.632873	1376.000000
458.019762	1464.000000
460.403987	1688.200000
462.789630	1741.400000
465.172612	1512.400000
467.552933	1232.200000
469.934673	1095.200000
472.313754	1046.200000
474.694254	986.400000
477.072096	976.600000
479.447282	948.600000
481.821852	905.000000
484.197839	896.800000
486.571174	905.400000
488.945926	909.000000
491.315993	862.800000
493.685444	884.600000
496.056313	816.200000
498.422501	880.600000
500.790108	822.600000
503.155070	840.000000
505.519418	787.800000
507.883153	839.400000
510.248306	800.600000
512.608787	772.800000
514.970686	791.000000
517.329944	755.600000
519.686564	756.400000
522.046630	766.200000
524.400004	800.200000
526.756823	771.000000
529.111007	764.600000
531.464582	776.000000
533.817550	731.000000
536.167885	751.000000
538.519638	764.000000
540.864714	751.200000
543.215254	764.800000
545.559120	790.000000
547.908448	738.400000
550.253127	766.200000
552.595182	742.000000
554.938654	765.800000
557.279503	754.000000
559.619750	707.200000
561.957376	721.800000
564.298437	739.000000
566.634860	726.000000
568.972700	705.800000
571.307923	692.400000
573.640530	720.000000
575.974553	683.000000
578.305962	761.800000
580.636773	702.800000
582.966987	749.800000
585.296602	716.400000
587.621594	707.600000
589.952028	701.200000
592.277841	722.200000
594.601046	734.200000
596.925668	693.600000
599.247684	736.000000
601.569106	698.200000
603.887926	715.600000
606.208161	717.400000
608.527803	676.200000
610.844844	686.400000
613.161293	705.600000
615.475144	693.800000
617.790411	682.000000
620.103081	682.400000
622.417166	648.600000
624.726651	701.200000
627.037552	683.600000
629.345860	695.800000
631.653580	717.200000
633.962714	717.600000
636.267256	719.000000
638.571212	708.400000
640.874582	725.400000
643.179366	766.200000
645.479563	769.400000
647.781176	824.000000
650.082203	822.200000
652.378649	825.600000
654.676510	781.600000
656.973787	747.000000
659.270481	728.000000
661.562599	704.400000
663.858128	672.200000
666.149083	730.000000
668.441453	706.800000
670.731248	728.000000
673.020462	709.600000
675.309097	698.800000
677.595159	677.600000
679.882636	743.200000
682.167541	693.600000
684.451869	696.000000
686.733628	681.600000
689.016801	684.000000
691.299397	657.000000
693.577437	653.600000
695.856892	711.400000
698.135770	739.400000
700.414074	680.000000
702.687828	714.200000
704.962995	692.000000
707.237589	700.000000
709.509624	712.400000
711.783072	729.200000
714.053962	713.200000
716.322296	739.200000
718.592043	722.800000
720.859236	703.000000
723.125858	721.200000
725.391910	742.400000
727.655411	738.400000
729.920325	747.600000
732.184669	726.400000
734.444484	755.200000
736.705711	756.400000
738.966371	776.800000
741.224485	781.800000
743.480054	773.200000
745.739014	780.600000
747.991475	829.200000
750.249302	872.000000
752.502611	910.400000
754.753380	1054.600000
757.005561	1188.400000
759.255203	1393.800000
761.506258	1535.600000
763.752801	1417.600000
766.000756	1244.400000
768.246177	984.400000
770.493009	937.400000
772.739280	861.200000
774.981046	826.800000
777.226196	793.000000
779.464873	815.600000
781.706932	801.200000
783.944493	779.600000
786.183466	755.200000
788.419912	766.800000
790.657769	751.000000
792.893101	780.800000
795.125910	765.800000
797.360130	780.200000
799.591827	723.200000
801.822970	727.000000
804.053558	740.600000
806.283592	760.400000
808.513072	738.600000
810.738070	767.800000
812.966443	765.600000
815.190336	796.600000
817.415641	737.200000
819.636470	767.400000
821.860671	734.800000
824.080399	698.400000
826.301537	718.400000
828.522125	729.600000
830.740204	695.600000
832.959692	765.400000
835.174714	756.400000
837.389188	780.000000
839.603115	764.600000
841.816495	788.400000
844.029327	781.800000
846.241613	762.800000
848.451396	747.200000
850.660634	734.000000
852.869327	748.800000
855.075520	753.600000
857.283124	796.000000
859.488229	764.400000
861.692791	734.800000
863.894858	772.000000
866.098334	696.600000
868.299316	722.600000
870.499756	709.000000
872.701605	756.400000
874.897063	711.800000
877.095880	730.800000
879.290258	755.200000
881.487994	738.200000
883.681294	713.200000
885.876003	734.800000
888.068226	683.600000
890.259910	731.600000
892.451057	714.200000
894.639721	724.200000
896.827849	728.400000
899.013496	729.800000
901.202495	698.400000
903.387071	752.400000
905.571112	696.400000
907.758503	718.800000
909.937590	733.200000
912.120028	725.600000
914.301932	732.600000
916.481361	732.600000
918.658318	723.400000
920.836683	726.200000
923.016455	732.400000
925.189878	730.600000
927.366647	734.800000
929.539009	707.200000
931.712779	735.200000
933.882145	688.800000
936.054855	729.400000
938.225100	722.400000
940.394815	730.200000
942.564003	740.200000
944.728793	726.000000
946.896924	735.200000
949.060660	729.800000
951.225804	738.800000
953.388488	696.600000
955.550647	737.600000
957.710349	718.000000
959.869526	739.600000
962.030110	710.600000
964.188239	709.800000
966.345845	728.200000
968.502927	722.000000
970.659485	714.200000
972.811664	754.000000
974.965250	733.000000
977.118314	738.800000
979.268929	705.800000
981.420951	753.200000
983.568599	711.400000
985.719579	716.800000
987.866188	736.600000
990.012278	738.800000
992.157850	728.800000
994.304827	755.000000
996.445515	746.400000
998.589533	752.000000
1000.731110	749.800000
1002.872171	778.200000
1005.014636	740.400000
1007.150821	798.600000
1009.290333	758.600000
1011.425490	760.600000
1013.563971	789.000000
1015.698098	793.400000
1017.831712	756.400000
1019.966731	795.400000
1022.097400	811.400000
1024.229474	871.400000
1026.359119	915.000000
1028.488252	1024.600000
1030.616873	1155.000000
1032.744983	1331.800000
1034.870667	1428.600000
1036.995841	1313.800000
1039.122419	1097.600000
1041.244659	946.800000
1043.368304	862.000000
1045.487614	820.000000
1047.612153	775.200000
1049.730448	797.800000
1051.850147	746.400000
1053.967427	746.000000
1056.084200	729.600000
1058.200468	745.000000
1060.314319	763.600000
1062.429575	726.000000
1064.540507	743.400000
1066.654752	734.000000
1068.764676	684.000000
1070.876004	757.000000
1072.986827	709.200000
1075.093334	726.400000
1077.203150	729.200000
1079.308653	700.400000
1081.415558	764.000000
1083.516248	744.800000
1085.622150	715.800000
1087.723743	738.600000
1089.826739	739.400000
1091.929234	762.400000
1094.025522	747.200000
1096.127017	756.200000
1098.224210	776.400000
1100.320905	731.600000
1102.417101	764.600000
1104.512800	799.800000
1106.608000	868.000000
1108.700804	944.400000
1110.795011	999.600000
1112.883025	983.200000
1114.976239	895.200000
1117.063264	934.800000
1119.153588	772.400000
1121.239624	798.000000
1123.328959	769.800000
1125.412112	738.800000
1127.496667	740.000000
1129.582624	756.800000
1131.664299	721.400000
1133.747376	757.000000
1135.828066	713.000000
1137.908266	721.800000
1139.987974	721.800000
1142.067191	699.200000
1144.144026	709.600000
1146.218479	718.000000
1148.296225	731.200000
1150.369701	750.600000
1152.444577	719.200000
1154.515186	727.800000
1156.587196	711.000000
1158.656831	705.200000
1160.727865	703.600000
1162.798413	746.000000
1164.864699	756.800000
1166.932386	730.800000
1168.997701	700.600000
1171.064416	726.000000
1173.126875	736.800000
1175.192619	719.000000
1177.254109	717.000000
1179.317000	775.400000
1181.377523	739.000000
1183.437562	766.400000
1185.497118	772.400000
1187.554310	761.800000
1189.611020	720.200000
1191.665366	713.000000
1193.722994	758.400000
1195.778259	731.000000
1197.829283	674.800000
1199.881707	736.600000
1201.933651	747.600000
1203.983237	706.800000
1206.032344	701.000000
1208.080973	709.000000
1210.129122	720.000000
1212.176794	730.800000
1214.220235	677.800000
1216.266952	690.400000
1218.311315	697.200000
1220.355202	716.000000
1222.396737	707.800000
1224.435923	689.400000
1226.478382	703.600000
1228.516618	735.000000
1230.556253	713.400000
1232.595413	730.400000
1234.630354	733.000000
1236.666694	707.400000
1238.700690	672.200000
1240.736083	696.400000
1242.767264	713.800000
1244.799842	744.200000
1246.831949	685.000000
1248.861715	683.200000
1250.892878	679.600000
1252.919835	697.800000
1254.948189	675.600000
1256.972338	691.800000
1258.999753	656.400000
1261.022965	678.000000
1263.047575	715.600000
1265.069851	681.000000
1267.093524	684.200000
1269.114863	707.800000
1271.135736	721.200000
1273.156141	722.000000
1275.172353	672.400000
1277.189962	689.600000
1279.205243	712.800000
1281.223783	712.000000
1283.238134	709.000000
1285.250158	725.000000
1287.265441	688.000000
1289.276538	702.400000
1291.289032	695.800000
1293.297343	706.200000
1295.308909	712.200000
1297.314437	720.400000
1299.323220	686.000000
1301.327825	698.600000
1303.335684	693.400000
1305.343081	717.200000
1307.344447	695.800000
1309.347209	709.800000
1311.349512	683.800000
1313.351355	691.000000
1315.352738	649.800000
1317.351808	697.400000
1319.350419	708.600000
1321.348572	701.200000
1323.346266	664.800000
1325.339798	684.000000
1327.334725	687.000000
1329.329196	699.400000
1331.323210	708.400000
1333.314917	711.000000
1335.306168	675.200000
1337.295114	708.200000
1339.285456	678.200000
1341.275342	674.200000
1343.262924	693.000000
1345.250053	703.600000
1347.234880	647.000000
1349.221102	690.400000
1351.205023	622.000000
1353.188492	643.600000
1355.171509	670.600000
1357.152228	687.200000
1359.134341	656.800000
1361.114158	695.600000
1363.093523	637.600000
1365.068750	682.200000
1367.047215	651.800000
1369.023387	663.800000
1370.999110	682.600000
1372.974383	675.800000
1374.947365	662.800000
1376.919899	722.000000
1378.891985	661.000000
1380.863624	685.800000
1382.831134	654.400000
1384.803718	682.200000
1386.768496	702.000000
1388.738347	706.600000
1390.704074	665.600000
1392.671193	700.200000
1394.636029	680.400000
1396.596745	691.400000
1398.562529	667.400000
1400.522358	660.400000
1402.483581	656.800000
1404.446195	699.000000
1406.404695	670.400000
1408.362753	700.200000
1410.320369	698.200000
1412.277542	683.800000
1414.232440	654.800000
1416.188731	670.400000
1418.142747	682.200000
1420.096322	666.200000
1422.047625	678.400000
1424.000321	663.000000
1425.950744	667.600000
1427.900729	634.000000
1429.850275	667.800000
1431.797552	689.000000
1433.742561	681.000000
1435.688963	698.200000
1437.634927	639.000000
1439.580454	653.400000
1441.523715	666.000000
1443.466541	688.000000
1445.407103	674.200000
1447.349056	687.600000
1449.288747	658.800000
1451.228004	672.200000
1453.166825	636.800000
1455.103387	696.600000
1457.041340	663.800000
1458.977034	685.400000
1460.912295	693.200000
1462.845299	670.200000
1464.777872	654.800000
1466.710012	698.000000
1468.641720	656.600000
1470.571174	672.800000
1472.502019	671.600000
1474.432432	656.200000
1476.358773	669.400000
1478.286504	692.800000
1480.211986	668.800000
1482.137038	669.600000
1484.061661	657.000000
1485.985854	632.200000
1487.907801	639.200000
1489.831138	676.800000
1491.752228	684.800000
1493.671074	661.600000
1495.591310	642.400000
1497.509303	673.800000
1499.426869	646.400000
1501.342193	662.600000
1503.258907	668.600000
1505.171566	682.400000
1507.087429	673.800000
1509.001052	692.800000
1510.912437	650.000000
1512.825212	678.400000
1514.733937	672.000000
1516.644051	688.400000
1518.553742	633.400000
1520.463010	694.800000
1522.370044	675.400000
1524.274845	707.400000
1526.181035	680.600000
1528.084993	665.400000
1529.988530	680.800000
1531.891647	700.200000
1533.792534	719.400000
1535.694810	678.000000
1537.594858	700.400000
1539.496293	646.600000
1541.393695	684.000000
1543.290678	696.600000
1545.187243	681.200000
1547.085196	705.600000
1548.977313	657.200000
1550.872625	662.600000
1552.767519	661.200000
1554.660191	687.000000
1556.552446	649.600000
1558.442482	673.200000
1560.332102	639.800000
1562.221307	650.000000
1564.110097	689.000000
1565.996669	680.400000
1567.884629	690.200000
1569.768572	648.000000
1571.653902	671.400000
1573.538819	675.600000
1575.421522	650.000000
1577.305612	682.000000
1579.185690	636.200000
1581.067156	640.000000
1582.946411	646.800000
1584.827052	659.400000
1586.701889	645.800000
1588.581707	656.800000
1590.457521	635.400000
1592.332924	631.000000
1594.209713	633.600000
1596.080706	657.000000
1597.954880	613.400000
1599.825055	647.600000
1601.698411	671.200000
1603.569564	662.800000
1605.438516	657.400000
1607.308852	657.800000
1609.175196	641.000000
1611.042925	655.000000
1612.908455	639.800000
1614.775371	661.000000
1616.638298	647.600000
1618.502610	655.800000
1620.364726	641.800000
1622.226437	613.600000
1624.089534	616.800000
1625.950435	652.400000
1627.809144	649.800000
1629.667449	633.200000
1631.527138	624.400000
1633.381061	624.000000
1635.238157	638.000000
1637.094849	634.000000
1638.947566	609.200000
1640.803454	626.400000
1642.655368	634.600000
1644.506881	607.800000
1646.357993	611.800000
1648.208705	627.400000
1650.059015	577.800000
1651.907142	608.000000
1653.756653	608.800000
1655.600414	622.400000
1657.449126	614.200000
1659.292091	604.800000
1661.138223	617.200000
1662.980392	596.800000
1664.825727	641.000000
1666.665321	615.800000
1668.506299	611.800000
1670.348660	620.400000
1672.187065	634.000000
1674.026853	612.200000
1675.864465	633.200000
1677.701683	648.800000
1679.536727	608.400000
1681.373154	617.200000
1683.207409	622.200000
1685.041269	621.800000
1686.874735	585.400000
1688.704256	610.400000
1690.536935	631.200000
1692.365670	623.000000
1694.197562	609.000000
1696.025512	567.000000
1697.853071	607.400000
1699.680237	598.400000
1701.507012	587.200000
1703.333395	599.400000
1705.155842	591.800000
1706.981444	586.200000
1708.803111	599.800000
1710.626160	615.800000
1712.447047	597.000000
1714.267546	600.400000
1716.089425	610.800000
1717.905606	610.000000
1719.724938	583.000000
1721.540342	604.000000
1723.358898	613.800000
1725.173528	617.000000
1726.987771	577.400000
1728.801628	590.600000
1730.615098	627.400000
1732.426415	614.400000
1734.239112	600.600000
1736.051424	615.800000
1737.859817	581.200000
1739.669592	581.800000
1741.475452	587.000000
1743.284457	614.000000
1745.089549	585.800000
1746.896022	567.400000
1748.702111	586.000000
1750.504289	587.600000
1752.309612	590.400000
1754.111026	578.200000
1755.913820	591.800000
1757.712708	594.200000
1759.512977	582.600000
1761.312864	596.800000
1763.110609	603.800000
1764.907974	575.600000
1766.704959	572.200000
1768.501563	587.200000
1770.296028	588.400000
1772.091872	625.000000
1773.882061	582.400000
1775.677147	617.600000
1777.466581	590.000000
1779.259151	613.200000
1781.049586	568.800000
1782.837887	575.600000
1784.629323	567.600000
1786.415113	600.800000
1788.202283	618.400000
1789.987321	591.800000
1791.775493	593.800000
1793.559779	599.800000
1795.341935	555.000000
1797.125471	552.600000
1798.906878	599.200000
1800.689664	565.000000
1802.468569	547.200000
1804.248853	581.800000
1806.027012	545.000000
1807.806549	600.200000
1809.583961	577.200000
1811.359249	581.200000
1813.135915	576.000000
1814.910459	606.400000
1816.686381	577.800000
1818.456682	571.600000
1820.230111	560.000000
1822.001420	583.200000
1823.772358	572.000000
1825.544674	588.000000
1827.311376	565.200000
1829.081203	601.400000
1830.847167	587.000000
1832.616255	568.600000
1834.381481	568.400000
1836.146339	560.800000
1837.912574	570.200000
1839.674950	617.600000
1841.436959	554.200000
1843.198600	585.800000
1844.959875	524.400000
1846.720782	597.000000
1848.481323	542.600000
1850.239754	564.200000
1851.997819	550.600000
1853.753777	564.800000
1855.511111	568.600000
1857.268080	555.200000
1859.022942	540.800000
1860.775700	570.200000
1862.528093	534.400000
1864.281863	582.800000
1866.033529	538.400000
1867.783093	538.600000
1869.534032	545.000000
1871.284609	541.000000
1873.031346	534.600000
1874.779460	575.000000
1876.525474	526.400000
1878.272863	564.000000
1880.018155	545.800000
1881.761349	544.000000
1883.505918	530.400000
1885.248391	537.600000
1886.990505	534.800000
1888.732258	569.000000
1890.473651	543.600000
1892.212951	567.400000
1893.951892	559.200000
1895.690474	543.400000
1897.426965	579.600000
1899.163098	559.800000
1900.900605	540.000000
1902.634290	544.400000
1904.369350	555.000000
1906.102321	539.400000
1907.834936	530.600000
1909.567195	590.200000
1911.299097	558.400000
1913.028913	526.000000
1914.756644	571.000000
1916.485750	566.200000
1918.214500	530.800000
1919.941168	583.200000
1921.667481	554.400000
1923.395167	563.800000
1925.117317	547.200000
1926.842568	562.600000
1928.564012	559.600000
1930.288557	551.000000
1932.011021	524.200000
1933.729683	541.800000
1935.451443	566.200000
1937.169401	556.400000
1938.888732	555.800000
1940.604264	563.600000
1942.324616	548.600000
1944.041170	574.200000
1945.753927	563.000000
1947.469780	576.000000
1949.183561	569.000000
1950.896992	555.000000
1952.608352	521.200000
1954.321084	539.800000
1956.030026	562.400000
1957.742060	556.200000
1959.448585	546.200000
1961.158203	569.400000
1962.865754	521.200000
1964.572956	540.200000
1966.278093	567.400000
1967.982884	547.400000
1969.689046	537.200000
1971.391426	542.200000
1973.095177	543.200000
1974.796866	571.400000
1976.498210	571.600000
1978.199208	555.400000
1979.898145	547.400000
1981.598454	562.400000
1983.294987	542.600000
1984.992893	575.800000
1986.688739	542.400000
1988.387671	574.400000
1990.081117	544.000000
1991.775934	547.600000
1993.470409	527.800000
1995.161115	553.000000
1996.854905	535.200000
1998.544928	545.800000
2000.236322	523.400000
2001.925663	544.800000
2003.616374	549.600000
2005.303322	581.800000
2006.989931	565.800000
2008.677909	530.000000
2010.362128	551.800000
2012.047718	518.600000
2013.732968	538.600000
2015.416169	556.600000
2017.100741	518.400000
2018.779849	556.800000
2020.463744	549.600000
2022.142177	527.200000
2023.823688	506.000000
2025.501447	539.000000
2027.178870	545.400000
2028.857662	526.000000
2030.534412	507.400000
2032.209120	527.800000
2033.885197	536.000000
2035.559233	533.200000
2037.232935	514.000000
2038.906301	521.600000
2040.577628	516.200000
2042.248621	518.400000
2043.919280	490.600000
2045.589605	542.000000
2047.259596	494.800000
2048.927551	487.600000
2050.595173	538.600000
2052.260760	503.600000
2053.927716	508.600000
2055.592639	533.400000
2057.257230	530.200000
2058.919789	497.600000
2060.583716	526.400000
2062.245612	505.800000
2063.907178	513.800000
2065.568412	553.200000
2067.227618	497.200000
2068.886493	546.000000
2070.545039	501.600000
2072.203254	564.200000
2073.857747	530.600000
2075.515304	532.000000
2077.172531	521.400000
2078.826038	551.200000
2080.480912	545.400000
2082.132067	544.200000
2083.786285	520.400000
2085.436785	534.600000
2087.088653	514.200000
2088.735112	544.400000
2090.386326	520.200000
2092.033826	512.800000
2093.682693	519.000000
2095.329541	527.000000
2096.976064	509.800000
2098.622261	530.800000
2100.264750	514.600000
2101.910297	517.600000
2103.552137	546.600000
2105.197034	538.200000
2106.838225	528.400000
2108.479094	528.200000
2110.119638	534.600000
2111.758170	523.600000
2113.398068	526.800000
2115.034266	523.400000
2116.671830	489.800000
2118.309072	497.600000
2119.944304	486.000000
2121.579214	510.000000
2123.213803	472.400000
2124.848071	524.800000
2126.478645	510.400000
2128.112271	515.000000
2129.742205	485.800000
2131.373504	506.800000
2133.002798	500.600000
2134.631773	508.200000
2136.260428	496.800000
2137.888764	525.000000
2139.515098	463.400000
2141.141113	522.000000
2142.765126	474.000000
2144.390505	486.800000
2146.013883	497.600000
2147.638626	498.800000
2149.259688	491.400000
2150.880433	505.600000
2152.502543	480.200000
2154.122655	514.400000
2155.740770	493.400000
2157.358570	482.200000
2158.976055	496.000000
2160.593224	501.200000
2162.210078	483.600000
2163.826616	483.800000
2165.441162	459.000000
2167.053715	499.200000
2168.667632	472.800000
2170.279558	492.800000
2171.892847	485.200000
2173.504146	505.600000
2175.113455	457.600000
2176.724128	463.200000
2178.332812	496.600000
2179.941183	519.400000
2181.547568	498.000000
2183.155315	477.200000
2184.761077	481.400000
2186.366527	496.000000
2187.969992	502.600000
2189.574820	489.400000
2191.177664	481.000000
2192.778525	495.600000
2194.380749	504.800000
2195.980991	510.600000
2197.582595	462.200000
2199.180546	477.000000
2200.779860	459.000000
2202.377194	504.400000
2203.974220	493.800000
2205.572608	476.200000
2207.167347	472.000000
2208.760109	488.400000
2210.354234	465.600000
2211.949720	469.200000
2213.541561	495.000000
2215.133096	475.000000
2216.725993	441.600000
2218.313580	461.400000
2219.905863	448.800000
2221.492840	480.400000
2223.082844	460.600000
2224.667544	465.600000
2226.256938	471.400000
2227.841030	462.200000
2229.426482	441.800000
2231.009966	467.200000
2232.596475	474.600000
2234.179351	448.600000
2235.761924	438.000000
2237.344193	483.800000
2238.922832	461.200000
2240.504496	460.000000
2242.082531	453.600000
2243.663589	455.800000
2245.241020	456.900000
2246.816488	458.000000
2248.394978	444.600000
2249.969844	443.800000
2251.544409	467.600000
2253.118673	460.000000
2254.692638	444.600000
2256.266301	451.200000
2257.839665	428.000000
2259.409410	471.600000
2260.978856	445.800000
2262.551320	461.600000
2264.118510	469.400000
2265.688718	437.000000
2267.255311	444.000000
2268.823264	456.400000
2270.389261	448.800000
2271.954961	445.600000
2273.520363	463.400000
2275.083812	463.600000
2276.648620	452.600000
2278.209820	490.200000
2279.774034	462.600000
2281.332986	466.000000
2282.894952	448.800000
2284.454968	476.800000
2286.014689	463.200000
2287.572460	455.000000
2289.129936	448.400000
2290.687118	461.200000
2292.242352	426.800000
2293.797293	447.800000
2295.351939	441.000000
2296.906292	494.800000
2298.460351	419.400000
2300.014117	456.000000
2301.565938	432.400000
2303.115817	460.200000
2304.668703	428.200000
2306.216346	454.000000
2307.766998	434.600000
2309.314058	467.200000
2310.862476	433.800000
2312.410603	426.000000
2313.955141	461.000000
2315.501037	483.000000
2317.044995	447.000000
2318.590309	445.800000
2320.132040	423.200000
2321.675127	447.800000
2323.216278	432.400000
2324.757140	434.800000
2326.297713	464.600000
2327.837997	441.000000
2329.377992	443.800000
2330.914409	409.600000
2332.453827	406.000000
2333.989667	475.400000
2335.526865	446.000000
2337.060487	440.800000
2338.597109	423.000000
2340.131801	454.400000
2341.664563	389.600000
2343.197038	450.600000
2344.727585	419.800000
2346.261130	449.000000
2347.789464	431.800000
2349.319154	433.200000
2350.848559	418.200000
2352.377679	423.200000
2353.906513	414.600000
2355.430143	460.400000
2356.958408	421.800000
2358.481471	436.800000
2360.009167	411.200000
2361.530024	433.400000
2363.055513	434.200000
2364.577443	434.600000
2366.100727	413.800000
2367.622091	458.400000
2369.141535	402.400000
2370.662334	421.600000
2372.181214	412.400000
2373.699813	452.000000
2375.216494	412.800000
2376.734529	449.600000
2378.252283	428.600000
2379.766485	416.600000
2381.280408	432.800000
2382.794050	440.600000
2384.309047	406.800000
2385.820495	418.200000
2387.333298	394.600000
2388.844187	437.000000
2390.354798	406.200000
2391.863497	453.400000
2393.375182	436.000000
2394.883324	446.400000
2396.391188	393.800000
2397.898774	430.600000
2399.402819	463.600000
2400.909849	419.000000
2402.414971	428.200000
2403.919816	435.400000
2405.422754	417.600000
2406.925416	420.000000
2408.427801	406.800000
2409.928281	425.600000
2411.430114	411.400000
2412.930042	400.600000
2414.429695	405.600000
2415.929073	408.000000
2417.426548	417.000000
2418.922121	397.000000
2420.420674	380.800000
2421.915699	440.600000
2423.412076	426.400000
2424.904927	400.400000
2426.399131	413.800000
2427.893061	397.800000
2429.383467	378.800000
2430.876851	405.400000
2432.368337	458.000000
2433.857926	380.000000
2435.347243	405.600000
2436.834664	412.200000
2438.325061	377.400000
2439.811940	425.400000
2441.300170	397.800000
2442.784883	435.200000
2444.269327	408.600000
2445.755121	430.600000
2447.239024	401.200000
2448.724277	439.800000
2450.204397	411.200000
2451.687490	422.200000
2453.168692	397.200000
2454.649625	405.600000
2456.128669	393.400000
2457.607444	390.400000
2459.085951	397.600000
2460.564190	390.600000
2462.042160	424.000000
2463.516625	397.200000
2464.994060	421.400000
2466.467991	388.000000
2467.943272	425.800000
2469.418286	409.000000
2470.889799	383.800000
2472.362663	427.800000
2473.833644	406.400000
2475.305975	396.600000
2476.773192	376.000000
2478.243376	382.400000
2479.711679	388.400000
2481.179717	419.200000
2482.647490	369.400000
2484.114998	399.800000
2485.582241	389.000000
2487.045992	403.600000
2488.511093	398.000000
2489.974317	401.600000
2491.438890	391.600000
2492.899975	390.400000
2494.362409	392.400000
2495.824580	397.200000
2497.283265	400.000000
2498.746521	403.600000
2500.204682	411.000000
2501.664191	426.000000
2503.118606	370.600000
2504.577592	413.600000
2506.034706	379.000000
2507.489948	422.800000
2508.944930	361.400000
2510.398043	399.200000
2511.852504	397.800000
2513.305095	402.800000
2514.757427	392.600000
2516.207892	379.000000
2517.661312	377.400000
2519.109650	374.200000
2520.560943	382.200000
2522.010371	398.200000
2523.456326	388.000000
2524.905236	400.400000
2526.350676	379.200000
2527.797463	361.600000
2529.242387	421.600000
2530.687054	384.400000
2532.133068	375.000000
2533.575616	404.400000
2535.019511	379.400000
2536.459941	377.800000
2537.901718	383.800000
2539.341636	415.800000
2540.782901	352.200000
2542.220704	380.200000
2543.661457	329.400000
2545.097148	390.600000
2546.535788	394.200000
2547.972570	411.200000
2549.407497	368.200000
2550.845371	370.400000
2552.278188	354.400000
2553.712352	378.000000
2555.144662	373.000000
2556.578318	419.400000
2558.010121	383.000000
2559.441670	396.800000
2560.872967	361.200000
2562.302411	386.000000
2563.731603	360.200000
2565.158945	387.200000
2566.587632	393.400000
2568.016068	390.800000
2569.441056	365.400000
2570.867391	388.400000
2572.291877	362.000000
2573.717709	365.200000
2575.140097	366.800000
2576.563831	362.000000
2577.985718	374.800000
2579.407356	368.600000
2580.827148	368.000000
2582.248286	373.800000
2583.669174	372.400000
2585.086623	373.800000
2586.507013	388.600000
2587.923965	384.600000
2589.340668	375.400000
2590.757123	385.800000
2592.173330	381.000000
2593.589289	362.200000
2595.003407	337.400000
2596.417277	378.800000
2597.829309	354.200000
2599.242684	357.400000
2600.652630	395.000000
2602.065512	366.600000
2603.474965	324.800000
2604.884172	388.600000
2606.291543	352.000000
2607.701848	377.200000
2609.110318	358.000000
2610.516952	410.600000
2611.923341	386.400000
2613.327896	367.000000
2614.733795	347.400000
2616.137861	397.800000
2617.541682	336.000000
2618.945259	377.000000
2620.347005	365.600000
2621.750094	353.200000
2623.149765	350.000000
2624.550780	347.600000
2625.948379	363.600000
2627.348907	367.400000
2628.746021	371.200000
2630.144478	351.600000
2631.541108	368.600000
2632.937495	386.800000
2634.333640	379.000000
2635.727959	397.600000
2637.123621	345.400000
2638.515874	352.000000
2639.909469	353.800000
2641.301240	364.200000
2642.694354	350.000000
2644.085644	367.400000
2645.475111	353.200000
2646.864338	372.200000
2648.253326	340.600000
2649.643655	359.600000
2651.029001	369.400000
2652.417270	386.400000
2653.803719	341.000000
2655.189929	363.200000
2656.575900	346.400000
2657.958473	356.200000
2659.342388	355.600000
2660.726065	389.200000
2662.109503	326.000000
2663.489546	353.200000
2664.870931	328.600000
2666.250501	375.000000
2667.631411	363.400000
2669.010507	356.200000
2670.387789	333.800000
2671.766412	307.600000
2673.143222	346.800000
2674.519795	329.600000
2675.896133	342.600000
2677.270660	337.400000
2678.646527	337.200000
2680.019007	377.600000
2681.394403	368.400000
2682.764839	365.800000
2684.136616	323.000000
2685.508158	354.200000
2686.877892	329.600000
2688.248967	349.600000
2689.618233	350.400000
2690.987266	374.800000
2692.354493	343.400000
2693.721486	346.000000
2695.088247	307.400000
2696.454776	353.400000
2697.819499	319.400000
2699.183990	350.800000
2700.548250	315.600000
2701.912277	345.400000
2703.276073	341.000000
2704.636495	340.600000
2705.999827	310.600000
2707.358217	347.000000
2708.719517	336.000000
2710.077447	305.800000
2711.438285	364.600000
2712.797324	351.800000
2714.152994	317.400000
2715.511572	328.200000
2716.866783	312.200000
2718.221765	319.400000
2719.574950	328.600000
2720.931042	319.200000
2722.283770	314.200000
2723.636270	348.800000
2724.988541	299.400000
2726.342150	312.000000
2727.692399	325.000000
2729.040853	317.000000
2730.392212	293.000000
2731.740213	349.600000
2733.089551	301.000000
2734.437097	320.200000
2735.784417	320.400000
2737.131510	335.200000
2738.476812	314.200000
2739.821887	330.000000
2741.166737	309.600000
2742.511361	301.800000
2743.852633	323.600000
2745.195243	297.200000
2746.537627	280.800000
2747.879786	292.800000
2749.218596	322.400000
2750.560306	314.200000
2751.898667	305.200000
2753.238366	327.000000
2754.576280	317.400000
2755.912409	327.400000
2757.248314	302.200000
2758.585557	308.000000
2759.921016	309.800000
2761.256252	323.800000
2762.589705	310.800000
2763.924495	328.800000
2765.255945	313.200000
2766.590290	323.800000
2767.919737	285.200000
2769.250520	344.800000
2770.581083	306.400000
2771.909866	303.600000
2773.239985	303.200000
2774.568326	347.200000
2775.896446	297.800000
2777.222788	316.800000
2778.550467	314.400000
2779.874812	325.800000
2781.200494	282.400000
2782.524400	331.800000
2783.848086	317.200000
2785.173109	300.200000
2786.494801	284.400000
2787.816275	362.200000
2789.137530	313.200000
2790.458566	310.000000
2791.777829	290.400000
2793.098428	312.200000
2794.417256	285.400000
2795.735865	303.400000
2797.052703	311.600000
2798.369324	322.000000
2799.685728	274.200000
2801.000362	294.000000
2802.316332	294.000000
2803.628981	302.400000
2804.942965	265.400000
2806.256733	322.000000
2807.570284	298.400000
2808.882069	294.400000
2810.192087	300.400000
2811.503440	302.600000
2812.811478	309.000000
2814.120850	285.000000
2815.430008	309.000000
2816.738950	321.000000
2818.046128	320.200000
2819.351544	276.000000
2820.658293	281.000000
2821.963281	316.600000
2823.268054	309.000000
2824.571067	315.800000
2825.876960	315.800000
2827.177999	300.600000
2828.480372	297.200000
2829.780985	298.000000
2831.082932	321.600000
2832.384665	309.800000
2833.683095	316.200000
2834.982858	312.400000
2836.280864	294.000000
2837.578658	293.400000
2838.874696	291.200000
2840.172067	290.600000
2841.467682	275.800000
2842.763086	286.200000
2844.058279	263.200000
2845.350175	299.600000
2846.644947	300.400000
2847.936422	301.000000
2849.229230	290.800000
2850.521828	301.200000
2851.811132	296.600000
2853.101768	284.000000
2854.390653	290.400000
2855.680870	292.800000
2856.967796	282.200000
2858.256054	284.600000
2859.542563	282.200000
2860.828863	298.200000
2862.114956	262.600000
2863.399300	293.600000
2864.686515	291.400000
2865.968904	300.000000
2867.252625	312.800000
2868.534600	301.400000
2869.816367	282.800000
2871.096390	287.000000
2872.379282	265.000000
2873.660429	259.400000
2874.938294	290.200000
2876.219028	299.800000
2877.496481	274.000000
2878.773728	300.800000
2880.049233	310.800000
2881.327606	291.200000
2882.601165	256.000000
2883.877591	295.400000
2885.152276	284.600000
2886.425220	289.000000
2887.699496	269.800000
2888.972032	312.400000
2890.244363	288.800000
2891.513422	299.400000
2892.785346	273.600000
2894.055532	274.600000
2895.325514	266.000000
2896.595293	272.800000
2897.863336	240.000000
2899.129642	290.200000
2900.395747	280.000000
2901.663181	307.400000
2902.928880	277.200000
2904.194378	264.800000
2905.459673	291.000000
2906.721703	269.800000
2907.985063	251.800000
2909.248222	277.600000
2910.509649	254.000000
2911.772405	271.800000
2913.033429	278.600000
2914.292723	283.800000
2915.551817	275.200000
2916.810710	265.800000
2918.069403	276.600000
2919.327896	269.600000
2920.584660	270.800000
2921.841224	275.000000
2923.096061	269.800000
2924.352226	278.800000
2925.605137	223.400000
2926.859377	261.800000
2928.113417	254.000000
2929.365732	274.200000
2930.617849	273.400000
2931.868241	281.600000
2933.121488	259.600000
2934.369958	273.400000
2935.621283	233.000000
2936.869358	277.400000
2938.117237	259.000000
2939.364918	270.000000
2940.612402	251.800000
2941.858165	275.400000
2943.103732	263.800000
2944.350626	264.000000
2945.594276	245.600000
2946.839254	258.400000
2948.080988	267.000000
2949.325574	275.600000
2950.568441	255.000000
2951.808067	257.200000
2953.050543	260.000000
2954.289779	271.200000
2955.530343	272.000000
2956.769190	266.800000
2958.007843	271.600000
2959.244780	252.400000
2960.483045	225.800000
2961.719594	264.400000
2962.955950	228.200000
2964.192112	249.000000
2965.426560	265.600000
2966.660816	237.400000
2967.894878	268.000000
2969.127227	256.000000
2970.357866	239.400000
2971.591350	259.800000
2972.823122	266.200000
2974.053184	241.400000
2975.283053	258.600000
2976.511213	240.400000
2977.740700	243.800000
2978.968477	267.000000
2980.196063	256.800000
2981.424975	241.000000
2982.649146	262.400000
2983.876159	255.200000
2985.099948	250.400000
2986.325064	284.800000
2987.548473	269.400000
2988.771692	254.000000
2989.993206	233.400000
2991.217561	259.600000
2992.437181	238.000000
2993.658127	253.600000
2994.878884	220.600000
2996.097937	296.400000
2997.318315	234.400000
2998.535477	250.200000
2999.753965	219.000000
3000.970750	258.800000
3002.187348	217.600000
3003.403757	253.000000
3004.616953	231.200000
3005.832988	237.600000
3007.045810	244.800000
3008.261469	230.400000
3009.472405	201.800000
3010.684666	252.800000
3011.896741	265.800000
3013.108628	245.200000
3014.318819	229.800000
3015.528823	239.200000
3016.738641	234.200000
3017.946763	221.800000
3019.154700	259.200000
3020.360941	240.200000
3021.568507	234.600000
3022.774378	235.300000
3023.980065	236.000000
3025.185566	212.400000
3026.389374	235.000000
3027.594506	252.800000
3028.797945	265.800000
3029.999693	256.000000
3031.201256	232.800000
3032.402636	252.800000
3033.603832	246.200000
3034.803338	258.800000
3036.002661	231.000000
3037.203307	240.000000
3038.402263	232.200000
3039.598025	251.400000
3040.796616	239.400000
3041.992013	245.800000
3043.188733	233.800000
3044.382261	232.000000
3045.578617	210.800000
3046.773286	229.600000
3047.964765	200.000000
3049.160576	252.000000
3050.351692	236.600000
3051.544132	233.000000
3052.733384	203.400000
3053.925461	239.600000
3055.115855	215.000000
3056.303063	227.400000
3057.491593	207.200000
3058.681446	257.000000
3059.868115	219.800000
3061.054603	237.600000
3062.240913	235.400000
3063.428544	229.400000
3064.612993	236.200000
3065.795763	241.600000
3066.981355	217.400000
3068.165268	238.000000
3069.347502	229.600000
3070.529557	226.200000
3071.711434	246.200000
3072.893133	216.600000
3074.073155	206.400000
3075.251500	237.200000
3076.432665	240.200000
3077.610655	220.200000
3078.788468	221.000000
3079.966104	251.400000
3081.142066	227.600000
3082.317850	218.000000
3083.494956	195.200000
3084.670387	220.800000
3085.844145	226.400000
3087.016230	220.000000
3088.189637	250.400000
3089.362867	232.400000
3090.534426	228.200000
3091.707305	218.600000
3092.877017	211.200000
3094.048050	234.600000
3095.217413	216.000000
3096.385105	207.200000
3097.555613	217.800000
3098.721463	216.200000
3099.891621	222.600000
3101.057123	228.600000
3102.222450	236.000000
3103.387604	239.400000
3104.552585	195.800000
3105.718885	247.600000
3106.880533	191.400000
3108.043500	239.800000
3109.206295	232.600000
3110.368917	238.000000
3111.529873	208.800000
3112.690658	213.200000
3113.851270	217.200000
3115.010218	224.000000
3116.168995	180.200000
3117.327599	219.800000
3118.486032	185.600000
3119.644294	227.600000
3120.800893	197.800000
3121.955831	222.400000
3123.112088	231.200000
3124.266684	225.800000
3125.421110	199.000000
3126.573876	226.800000
3127.726471	197.000000
3128.878897	242.000000
3130.031153	190.400000
3131.183238	221.600000
3132.332177	185.200000
3133.483924	222.000000
3134.634012	204.200000
3135.782444	224.600000
3136.930706	199.800000
3138.078800	221.000000
3139.226725	214.800000
3140.372994	198.800000
3141.519095	197.800000
3142.663542	223.000000
3143.807821	200.800000
3144.951932	222.200000
3146.097360	206.000000
3147.239650	200.800000
3148.381773	204.800000
3149.523728	246.800000
3150.665516	201.800000
3151.807137	195.200000
3152.945623	204.400000
3154.085426	217.400000
3155.226546	170.400000
3156.364533	227.000000
3157.500870	218.400000
3158.637041	207.200000
3159.774529	191.400000
3160.910369	167.400000
3162.047526	216.200000
3163.180070	190.400000
3164.316896	189.000000
3165.449110	213.400000
3166.582641	194.000000
3167.716008	209.400000
3168.846247	186.000000
3169.979284	219.200000
3171.109195	183.800000
3172.240422	199.200000
3173.368525	173.800000
3174.499424	196.000000
3175.628679	175.400000
3176.756291	192.400000
3177.880780	222.400000
3179.009545	204.000000
3180.135188	194.800000
3181.260669	193.000000
3182.384507	173.800000
3183.511141	208.000000
3184.633177	172.000000
3185.756529	207.000000
3186.879719	159.400000
3188.002746	192.200000
3189.124135	166.000000
3190.245361	197.200000
3191.364950	212.000000
3192.484377	202.800000
3193.602166	206.200000
3194.722747	204.800000
3195.840215	201.600000
3196.957522	180.400000
3198.074669	166.200000
3199.190179	196.600000
3200.307005	200.600000
3201.420721	221.800000
3202.537226	186.000000
3203.652097	197.400000
3204.763858	182.800000
3205.875461	195.000000
3206.988379	159.800000
3208.101137	202.400000
3209.210789	221.800000
3210.321756	195.600000
3211.432564	181.000000
3212.541740	179.400000
3213.649285	163.400000
3214.758145	213.000000
3215.866847	203.000000
3216.972446	186.800000
3218.079359	201.400000
3219.184643	195.200000
3220.291241	178.400000
3221.394739	221.000000
3222.499552	163.400000
3223.604206	182.200000
3224.705763	161.400000
3225.807163	204.400000
3226.909877	176.200000
3228.012435	210.800000
3229.111896	198.200000
3230.214141	179.400000
3231.313290	177.200000
3232.410815	197.200000
3233.508184	182.800000
3234.608335	186.600000
3235.705394	198.600000
3236.802297	210.400000
3237.899045	170.200000
3238.991235	201.600000
3240.087673	195.600000
3241.182489	188.600000
3242.277151	181.600000
3243.370191	167.800000
3244.463076	171.200000
3245.554341	179.200000
3246.646919	171.800000
3247.737877	211.800000
3248.827215	164.800000
3249.916400	192.200000
3251.006898	180.800000
3252.094311	183.800000
3253.181571	173.800000
3254.270144	202.800000
3255.358564	178.000000
3256.442438	201.800000
3257.530553	168.200000
3258.615586	143.800000
3259.699004	161.000000
3260.783734	191.600000
3261.866848	176.800000
3262.951275	173.000000
3264.032623	155.600000
3265.115283	194.800000
3266.196329	153.600000
3267.277224	183.800000
3268.356505	184.200000
3269.435636	192.400000
3270.516079	170.000000
3271.593447	195.400000
3272.672127	185.600000
3273.749195	180.800000
3274.826114	172.600000
3275.901421	193.000000
3276.976579	189.200000
3278.053048	180.800000
3279.126447	177.000000
3280.199696	158.000000
3281.274257	138.600000
3282.347209	186.600000
3283.418552	160.800000
3284.491206	173.400000
3285.560794	181.800000
3286.631692	199.600000
3287.700983	150.000000
3288.771585	186.800000
3289.840580	161.000000
3290.907969	168.200000
3291.973753	147.400000
3293.043763	159.600000
3294.110710	152.200000
3295.174595	193.200000
3296.241247	172.000000
3297.306296	204.400000
3298.369741	178.800000
3299.433040	149.000000
3300.496192	173.600000
3301.559198	169.000000
3302.622058	163.200000
3303.683316	173.600000
3304.741517	186.600000
3305.803938	164.400000
3306.863304	172.000000
3307.922524	146.000000
3308.983053	168.800000
3310.039074	186.000000
3311.097858	175.800000
3312.152135	165.800000
3313.209176	159.400000
3314.264618	194.600000
3315.321370	147.400000
3316.376523	174.600000
3317.430079	162.400000
3318.482039	171.800000
3319.536760	152.800000
3320.588432	187.400000
3321.639961	162.000000
3322.692798	165.400000
3323.742588	166.800000
3324.793687	185.000000
3325.841740	179.000000
3326.892552	193.600000
3327.940320	159.200000
3328.987944	150.400000
3330.035427	160.000000
3331.081317	165.400000
3332.128515	144.400000
3333.172671	157.200000
3334.219585	163.000000
3335.264907	186.600000
3336.307188	151.800000
3337.349329	163.200000
3338.392777	143.600000
3339.436084	184.400000
3340.477802	159.800000
3341.519378	157.600000
3342.560813	156.200000
3343.600660	168.200000
3344.638918	176.600000
3345.678484	152.600000
3346.717910	157.800000
3347.755748	167.000000
3348.791999	160.000000
3349.828111	162.400000
3350.865530	133.800000
3351.899916	166.200000
3352.935609	166.800000
3353.971163	177.400000
3355.003686	164.800000
3356.038962	161.600000
3357.071207	168.000000
3358.103314	184.600000
3359.133837	154.600000
3360.165667	178.600000
3361.197359	149.000000
3362.226023	175.000000
3363.254550	162.200000
3364.284383	181.600000
3365.314079	143.800000
3366.340749	154.000000
3367.368725	170.600000
3368.393678	152.000000
3369.421380	152.000000
3370.446059	168.000000
3371.472044	157.400000
3372.496449	163.400000
3373.520718	173.200000
3374.543408	176.600000
3375.565962	131.600000
3376.589822	163.600000
3377.610662	160.600000
3378.631366	164.400000
3379.653377	151.000000
3380.672369	145.000000
3381.691225	157.800000
3382.711388	172.200000
3383.728534	162.800000
