-117.841134	57.950000
-115.171534	37.300000
-112.504869	44.200000
-109.838956	39.300000
-107.175976	40.350000
-104.511565	34.850000
-101.850085	41.050000
-99.187176	34.950000
-96.529373	41.700000
-93.870141	37.950000
-91.211657	41.300000
-88.556098	39.800000
-85.899109	58.900000
-83.247219	39.950000
-80.593899	51.650000
-77.943498	53.000000
-75.291669	47.050000
-72.644930	54.500000
-69.996761	47.650000
-67.349335	39.700000
-64.704824	46.000000
-62.058883	37.850000
-59.418024	34.650000
-56.775736	40.400000
-54.136357	48.350000
-51.495548	32.900000
-48.855480	55.350000
-46.220485	49.900000
-43.584060	44.950000
-40.950538	49.150000
-38.315588	57.450000
-35.685703	25.350000
-33.052226	54.350000
-30.423811	35.950000
-27.796130	62.250000
-25.167020	48.300000
-22.542967	63.350000
-19.915325	53.350000
-17.292737	69.300000
-14.670879	74.500000
-12.049752	76.150000
-9.429356	121.100000
-6.811847	278.500000
-4.192910	714.450000
-1.576858	1778.950000
1.038465	1965.650000
3.653060	895.300000
6.264774	130.300000
8.877916	65.750000
11.486024	63.000000
14.097713	60.550000
16.704373	45.950000
19.312460	60.550000
21.919823	43.350000
24.522161	65.800000
27.128077	64.150000
29.728971	60.500000
32.331293	60.000000
34.928597	65.500000
37.529478	52.550000
40.125343	62.700000
42.722637	60.000000
45.319211	68.800000
47.910776	64.850000
50.503769	72.900000
53.093901	54.550000
55.685460	61.450000
58.274161	78.100000
60.864288	65.550000
63.449416	56.100000
66.035972	64.000000
68.621814	68.250000
71.204802	73.350000
73.789216	63.550000
76.366502	83.750000
78.947354	80.750000
81.525357	74.750000
84.102650	76.050000
86.681369	84.050000
89.255106	73.750000
91.830271	66.650000
94.402592	91.700000
96.974205	83.700000
99.542978	101.050000
102.113178	100.450000
104.680539	117.200000
107.249327	134.400000
109.815278	136.000000
112.378394	177.000000
114.945066	184.150000
117.502516	241.500000
120.065653	325.100000
122.623829	453.100000
125.185560	636.650000
127.742334	953.350000
130.300534	1406.800000
132.853782	2090.400000
135.406332	3063.250000
137.962432	4276.000000
140.513584	5708.650000
143.064039	7232.700000
145.613796	8407.050000
148.160734	9372.900000
150.706977	9859.900000
153.254645	10240.550000
155.801617	10469.250000
158.343654	10420.050000
160.884997	10432.850000
163.425647	10487.850000
165.967723	10423.100000
168.506987	10488.400000
171.043442	10491.600000
173.579207	10452.300000
176.116397	10478.150000
178.652896	10445.850000
181.186589	10477.300000
183.717478	10449.050000
186.247679	10488.350000
188.779306	10461.450000
191.308131	10505.050000
193.834157	10492.500000
196.359497	10491.400000
198.886262	10530.850000
201.410231	10563.900000
203.933515	10553.950000
206.456113	10512.350000
208.975919	10516.700000
211.495042	10551.100000
214.013483	10542.850000
216.533347	10537.850000
219.046210	10574.000000
221.562604	10598.200000
224.078316	10625.350000
226.589138	10643.500000
229.101385	10654.200000
231.610849	10644.800000
234.119635	10608.250000
236.627743	10712.250000
239.137275	10717.100000
241.641926	10709.550000
244.145901	10675.850000
246.651300	10761.750000
249.151824	10793.950000
251.655871	10771.000000
254.152948	10768.900000
256.653548	10829.550000
259.151376	10824.050000
261.648531	10750.250000
264.145013	10783.500000
266.636632	10750.700000
269.131771	10767.400000
271.624143	10716.400000
274.115845	10797.300000
276.604784	10780.000000
279.095146	10730.000000
281.582747	10749.550000
284.067588	10761.000000
286.555944	10751.000000
289.037360	10733.150000
291.522290	10750.800000
294.002375	10788.200000
296.485972	10711.450000
298.964726	10777.900000
301.444903	10774.700000
303.922329	10786.900000
306.399091	10773.500000
308.875189	10798.450000
311.348540	10706.050000
313.821228	10846.850000
316.293255	10760.500000
318.764621	10900.950000
321.233242	10880.600000
323.701204	11013.850000
326.170589	10812.550000
328.635151	10935.400000
331.103217	10879.450000
333.566463	10888.800000
336.029051	10911.500000
338.490983	10908.700000
340.952258	10908.250000
343.410798	10910.700000
345.870762	10843.550000
348.327992	10873.900000
350.784568	10884.650000
353.240490	10922.800000
355.693682	10839.250000
358.148297	10847.150000
360.598110	10809.750000
363.051419	10812.850000
365.499929	10736.300000
367.947789	10778.150000
370.397071	10751.700000
372.841559	10726.600000
375.287469	10710.500000
377.732729	10633.650000
380.175271	10735.650000
382.617165	10675.600000
385.058412	10620.750000
387.496943	10664.250000
389.936895	10666.150000
392.374134	10650.150000
394.808662	10593.200000
397.246677	10640.300000
399.679915	10556.300000
402.114574	10610.550000
404.544461	10627.700000
406.977833	10627.150000
409.406435	10662.000000
411.834395	10533.800000
414.263777	10596.500000
416.688393	10664.800000
419.114431	10586.900000
421.539828	10605.800000
423.964585	10660.600000
426.384584	10564.900000
428.806003	10681.600000
431.224727	10689.150000
433.644871	10692.400000
436.062320	10761.400000
438.481189	10740.650000
440.897365	10769.300000
443.308793	10799.700000
445.723698	10762.900000
448.135914	10779.200000
450.547495	10806.150000
452.958442	10849.200000
455.366703	10793.350000
457.774331	10796.850000
460.181327	10816.650000
462.587692	10833.100000
464.991374	10835.700000
467.394426	10777.100000
469.796848	10803.200000
472.198640	10744.050000
474.597754	10763.600000
476.998288	10768.350000
479.398193	10793.700000
481.793376	10750.650000
484.192025	10809.050000
486.585953	10686.050000
488.979256	10721.200000
491.371934	10708.350000
493.763986	10786.400000
496.157456	10703.850000
498.546214	10701.350000
500.932306	10718.250000
503.319818	10692.250000
505.706707	10733.950000
508.090932	10754.450000
510.476575	10776.550000
512.859557	10769.650000
515.239878	10734.500000
517.621618	10853.150000
520.000699	10831.300000
522.381198	10784.300000
524.759041	10768.900000
527.134227	10864.800000
529.508797	10787.000000
531.884784	10853.450000
534.258119	10856.400000
536.632871	10905.400000
539.002937	10822.500000
541.372389	10944.550000
543.743258	10854.550000
546.109446	10797.350000
548.477053	10834.300000
550.842015	10861.900000
553.206363	10800.000000
555.570098	10835.100000
557.935251	10866.750000
560.295732	10831.600000
562.657631	10872.450000
565.016889	10806.900000
567.373509	10817.800000
569.733575	10797.200000
572.086949	10781.300000
574.443768	10804.400000
576.797952	10752.600000
579.151527	10733.400000
581.504495	10699.450000
583.854830	10647.550000
586.206583	10736.050000
588.551659	10700.200000
590.902198	10592.700000
593.246065	10628.150000
595.595393	10721.100000
597.940072	10627.050000
600.282127	10687.100000
602.625599	10682.950000
604.966448	10642.900000
607.306694	10632.300000
609.644320	10701.800000
611.985381	10622.100000
614.321805	10692.600000
616.659645	10668.350000
618.994868	10652.050000
621.327475	10625.350000
623.661498	10711.350000
625.992907	10760.500000
628.323718	10661.250000
630.653931	10681.200000
632.983547	10720.900000
635.308539	10699.350000
637.638973	10738.700000
639.964786	10778.150000
642.287991	10751.700000
644.612613	10835.100000
646.934629	10808.150000
649.256051	10792.450000
651.574870	10825.800000
653.895106	10853.050000
656.214748	10878.800000
658.531789	10870.400000
660.848238	10917.600000
663.162089	10885.800000
665.477356	10922.550000
667.790026	10999.750000
670.104111	10940.800000
672.413596	11013.450000
674.724497	10991.550000
677.032805	10939.750000
679.340525	11081.750000
681.649659	11021.250000
683.954201	11066.950000
686.258157	11009.400000
688.561527	11013.150000
690.866311	11090.250000
693.166508	11027.900000
695.468121	11141.500000
697.769148	11073.650000
700.065594	11094.650000
702.363455	11132.750000
704.660732	11075.800000
706.957426	11113.100000
709.249544	11126.900000
711.545073	11122.500000
713.836028	11248.700000
716.128398	11192.200000
718.418193	11254.750000
720.707407	11251.050000
722.996042	11250.300000
725.282104	11224.250000
727.569581	11378.550000
729.854486	11270.150000
732.138814	11366.200000
734.420573	11372.450000
736.703746	11327.150000
738.986342	11373.450000
741.264382	11438.900000
743.543837	11435.450000
745.822715	11523.950000
748.101019	11488.750000
750.374773	11572.550000
752.649940	11591.400000
754.924534	11595.550000
757.196569	11570.000000
759.470017	11651.350000
761.740907	11731.950000
764.009241	11686.400000
766.278988	11727.550000
768.546180	11773.950000
770.812803	11818.300000
773.078855	11850.200000
775.342356	11816.950000
777.607270	11802.900000
779.871614	11835.900000
782.131429	11831.350000
784.392656	11876.550000
786.653316	11899.900000
788.911430	11884.100000
791.166999	11958.250000
793.425959	11943.550000
795.678419	11944.400000
797.936247	11881.700000
800.189556	11940.900000
802.440325	11952.800000
804.692506	11885.100000
806.942148	12007.300000
809.193202	11906.750000
811.439746	11876.050000
813.687701	11912.900000
815.933122	11990.950000
818.179954	11927.600000
820.426225	11926.450000
822.667991	12010.750000
824.913141	11975.850000
827.151818	11988.100000
829.393877	12007.950000
831.631438	12020.500000
833.870411	12045.200000
836.106857	12083.900000
838.344714	12048.600000
840.580046	12087.100000
842.812855	12220.000000
845.047074	12208.800000
847.278772	12181.900000
849.509915	12263.550000
851.740503	12257.450000
853.970537	12320.500000
856.200017	12251.350000
858.425015	12380.550000
860.653388	12371.000000
862.877281	12376.400000
865.102586	12504.250000
867.323415	12568.050000
869.547616	12517.000000
871.767344	12550.600000
873.988482	12591.200000
876.209070	12668.050000
878.427149	12676.150000
880.646637	12677.650000
882.861659	12675.050000
885.076133	12751.250000
887.290060	12788.950000
889.503440	12746.700000
891.716272	12705.150000
893.928558	12680.300000
896.138341	12834.250000
898.347579	12695.950000
900.556272	12731.500000
902.762465	12744.200000
904.970069	12705.750000
907.175174	12692.800000
909.379736	12665.450000
911.581803	12731.750000
913.785279	12596.150000
915.986261	12644.550000
918.186701	12543.650000
920.388550	12556.150000
922.584008	12486.600000
924.782825	12508.750000
926.977203	12463.100000
929.174939	12403.150000
931.368239	12366.450000
933.562948	12422.500000
935.755171	12306.750000
937.946855	12335.650000
940.138002	12300.550000
942.326666	12384.650000
944.514794	12322.400000
946.700441	12307.400000
948.889440	12413.450000
951.074016	12409.050000
953.258057	12402.250000
955.445448	12475.600000
957.624535	12518.500000
959.806973	12498.700000
961.988877	12471.900000
964.168306	12656.800000
966.345263	12554.350000
968.523628	12600.000000
970.703400	12606.200000
972.876823	12631.900000
975.053592	12614.800000
977.225954	12581.550000
979.399724	12532.250000
981.569090	12540.400000
983.741800	12577.350000
985.912045	12527.200000
988.081760	12497.500000
990.250948	12485.500000
992.415738	12407.400000
994.583869	12450.850000
996.747605	12336.350000
998.912749	12376.250000
1001.075433	12396.400000
1003.237592	12314.350000
1005.397294	12410.500000
1007.556471	12274.650000
1009.717055	12277.950000
1011.875184	12219.100000
1014.032790	12249.100000
1016.189872	12131.400000
1018.346430	12116.250000
1020.498609	12182.750000
1022.652195	12103.650000
1024.805259	12096.850000
1026.955874	12073.800000
1029.107896	12096.300000
1031.255544	12103.650000
1033.406524	12090.350000
1035.553133	12076.450000
1037.699223	12080.850000
1039.844795	12096.050000
1041.991772	12104.050000
1044.132460	12088.500000
1046.276478	12031.650000
1048.418055	12080.800000
1050.559115	12103.900000
1052.701581	12105.400000
1054.837766	12148.950000
1056.977278	12120.450000
1059.112435	12072.000000
1061.250916	12107.000000
1063.385043	12129.350000
1065.518657	12160.400000
1067.653675	12148.750000
1069.784345	12174.000000
1071.916419	12248.700000
1074.046064	12196.500000
1076.175197	12252.950000
1078.303818	12201.950000
1080.431928	12264.450000
1082.557612	12246.500000
1084.682786	12302.300000
1086.809364	12356.350000
1088.931604	12354.000000
1091.055249	12366.300000
1093.174559	12344.300000
1095.299098	12300.800000
1097.417393	12265.700000
1099.537092	12390.600000
1101.654372	12376.250000
1103.771145	12373.300000
1105.887413	12423.900000
1108.001264	12436.300000
1110.116520	12345.500000
1112.227452	12327.050000
1114.341697	12352.850000
1116.451621	12299.100000
1118.562949	12300.600000
1120.673772	12381.500000
1122.780279	12283.550000
1124.890095	12379.300000
1126.995598	12362.550000
1129.102503	12343.300000
1131.203193	12289.750000
1133.309095	12328.450000
1135.410688	12336.400000
1137.513684	12431.450000
1139.616179	12301.150000
1141.712467	12332.350000
1143.813962	12354.200000
1145.911155	12374.950000
1148.007850	12280.150000
1150.104046	12370.550000
1152.199744	12406.400000
1154.294945	12410.800000
1156.387749	12360.800000
1158.481955	12469.300000
1160.569970	12418.250000
1162.663184	12469.150000
1164.750209	12467.550000
1166.840533	12383.600000
1168.926569	12465.650000
1171.015904	12446.650000
1173.099057	12455.350000
1175.183612	12500.800000
1177.269569	12484.350000
1179.351244	12510.550000
1181.434320	12462.000000
1183.515011	12503.650000
1185.595211	12510.500000
1187.674919	12600.600000
1189.754136	12547.250000
1191.830971	12567.150000
1193.905424	12577.100000
1195.983170	12583.900000
1198.056646	12539.650000
1200.131522	12671.300000
1202.202131	12698.450000
1204.274141	12687.450000
1206.343775	12777.450000
1208.414810	12651.200000
1210.485358	12780.350000
1212.551644	12726.900000
1214.619331	12802.000000
1216.684646	12803.050000
1218.751361	12814.750000
1220.813820	12883.300000
1222.879564	12874.000000
1224.941054	12868.650000
1227.003945	12916.900000
1229.064468	12843.950000
1231.124507	12787.550000
1233.184063	12847.350000
1235.241255	12896.300000
1237.297965	13015.500000
1239.352311	12919.300000
1241.409939	12935.100000
1243.465203	13030.200000
1245.516228	13005.350000
1247.568652	12978.250000
1249.620596	13064.050000
1251.670182	13141.350000
1253.719289	13097.900000
1255.767917	13119.600000
1257.816067	13138.600000
1259.863739	13180.900000
1261.907180	13189.850000
1263.953897	13175.650000
1265.998260	13234.350000
1268.042147	13301.050000
1270.083682	13326.250000
1272.122868	13315.300000
1274.165327	13305.800000
1276.203563	13373.800000
1278.243198	13381.600000
1280.282358	13401.150000
1282.317299	13406.400000
1284.353639	13365.250000
1286.387635	13455.650000
1288.423028	13472.400000
1290.454209	13393.500000
1292.486787	13435.250000
1294.518894	13442.300000
1296.548660	13450.300000
1298.579823	13435.300000
1300.606780	13507.850000
1302.635134	13418.600000
1304.659283	13508.000000
1306.686698	13486.100000
1308.709910	13434.850000
1310.734520	13530.600000
1312.756796	13565.800000
1314.780468	13526.850000
1316.801808	13516.950000
1318.822681	13551.300000
1320.843086	13526.150000
1322.859298	13597.150000
1324.876907	13484.350000
1326.892188	13545.550000
1328.910728	13530.650000
1330.925079	13469.450000
1332.937103	13528.200000
1334.952386	13512.900000
1336.963483	13481.200000
1338.975977	13415.050000
1340.984288	13580.700000
1342.995854	13441.500000
1345.001382	13429.150000
1347.010165	13387.550000
1349.014770	13399.900000
1351.022629	13410.300000
1353.030026	13455.050000
1355.031392	13290.950000
1357.034154	13354.700000
1359.036457	13339.250000
1361.038300	13284.950000
1363.039683	13227.050000
1365.038753	13281.300000
1367.037364	13250.850000
1369.035516	13270.050000
1371.033211	13156.650000
1373.026743	13171.500000
1375.021670	13138.150000
1377.016141	13132.250000
1379.010155	13159.700000
1381.001862	13134.350000
1382.993113	13134.300000
1384.982059	13092.900000
1386.972401	13030.250000
1388.962287	13009.800000
1390.949869	13144.200000
1392.936998	13046.700000
1394.921825	13094.700000
1396.908047	13095.700000
1398.891968	13017.300000
1400.875437	13129.400000
1402.858454	13123.850000
1404.839173	13121.800000
1406.821286	13084.300000
1408.801103	13075.850000
1410.780468	13039.950000
1412.755695	13162.100000
1414.734160	13117.000000
1416.710332	13110.250000
1418.686054	13164.650000
1420.661328	13130.800000
1422.634310	13052.450000
1424.606844	13154.700000
1426.578930	13123.200000
1428.550569	13144.500000
1430.518079	13075.950000
1432.490663	13186.000000
1434.455441	13131.750000
1436.425292	13129.850000
1438.391019	13035.350000
1440.358138	13122.400000
1442.322974	13034.650000
1444.283690	13037.900000
1446.249474	13047.400000
1448.209303	13026.500000
1450.170526	13028.750000
1452.133140	13055.400000
1454.091640	13001.100000
1456.049698	12999.400000
1458.007314	12974.200000
1459.964487	12911.900000
1461.919385	12995.700000
1463.875676	12941.900000
1465.829692	12882.050000
1467.783267	12949.750000
1469.734570	12960.450000
1471.687265	12940.350000
1473.637689	12789.500000
1475.587674	12799.700000
1477.537220	12963.100000
1479.484497	12833.900000
1481.429506	12778.500000
1483.375908	12860.250000
1485.321872	12831.950000
1487.267399	12834.550000
1489.210660	12777.550000
1491.153486	12878.750000
1493.094047	12719.500000
1495.036001	12762.200000
1496.975692	12780.350000
1498.914948	12734.750000
1500.853770	12759.150000
1502.790332	12693.500000
1504.728285	12856.450000
1506.663979	12828.700000
1508.599240	12793.300000
1510.532244	12713.850000
1512.464817	12801.900000
1514.396956	12868.700000
1516.328664	12806.500000
1518.258119	12923.550000
1520.188964	12863.500000
1522.119377	12827.700000
1524.045718	12891.150000
1525.973449	12940.950000
1527.898931	12876.000000
1529.823983	12863.250000
1531.748606	12919.550000
1533.672799	12930.200000
1535.594746	12902.900000
1537.518083	12899.750000
1539.439173	13004.650000
1541.358019	13050.750000
1543.278255	13138.800000
1545.196248	13093.250000
1547.113813	13085.150000
1549.029138	13195.750000
1550.945852	13137.250000
1552.858511	13153.100000
1554.774373	13155.750000
1556.687997	13249.500000
1558.599382	13174.800000
1560.512157	13155.550000
1562.420882	13212.050000
1564.330996	13318.700000
1566.240687	13203.650000
1568.149955	13271.150000
1570.056989	13253.550000
1571.961790	13210.100000
1573.867979	13259.650000
1575.771938	13287.100000
1577.675475	13203.200000
1579.578592	13168.500000
1581.479479	13281.100000
1583.381755	13158.750000
1585.281803	13168.200000
1587.183238	13186.700000
1589.080640	13071.450000
1590.977623	13085.350000
1592.874188	12981.150000
1594.772140	12979.650000
1596.664258	12943.950000
1598.559570	12881.950000
1600.454464	12915.750000
1602.347136	12824.100000
1604.239391	12794.600000
1606.129427	12715.800000
1608.019047	12709.050000
1609.908252	12564.200000
1611.797041	12610.800000
1613.683614	12591.650000
1615.571574	12540.150000
1617.455517	12514.050000
1619.340847	12435.950000
1621.225764	12428.450000
1623.108467	12245.250000
1624.992557	12290.250000
1626.872635	12281.750000
1628.754101	12236.000000
1630.633356	12113.750000
1632.513997	12092.350000
1634.388834	12056.100000
1636.268652	12044.600000
1638.144466	11975.250000
1640.019869	11962.300000
1641.896658	11963.450000
1643.767651	11937.750000
1645.641825	11922.600000
1647.512000	11867.950000
1649.385356	11810.700000
1651.256509	11800.300000
1653.125461	11788.150000
1654.995797	11807.300000
1656.862141	11668.900000
1658.729870	11702.850000
1660.595400	11596.750000
1662.462316	11594.200000
1664.325242	11577.950000
1666.189555	11545.300000
1668.051671	11587.850000
1669.913382	11482.950000
1671.776479	11474.250000
1673.637380	11538.500000
1675.496089	11485.750000
1677.354394	11380.650000
1679.214083	11409.550000
1681.068006	11387.900000
1682.925102	11434.200000
1684.781794	11422.800000
1686.634511	11358.650000
1688.490399	11350.700000
1690.342313	11333.800000
1692.193826	11353.300000
1694.044938	11321.250000
1695.895649	11316.700000
1697.745960	11253.850000
1699.594087	11259.600000
1701.443598	11203.100000
1703.287359	11184.400000
1705.136071	11216.250000
1706.979036	11219.950000
1708.825168	11211.400000
1710.667337	11098.800000
1712.512672	11161.400000
1714.352266	11200.950000
1716.193244	11154.450000
1718.035605	11172.300000
1719.874010	11138.100000
1721.713798	11079.950000
1723.551410	11100.200000
1725.388628	11097.450000
1727.223672	11073.700000
1729.060099	11070.500000
1730.894353	11056.050000
1732.728214	11047.250000
1734.561680	11043.500000
1736.391200	11026.400000
1738.223880	11018.100000
1740.052615	11027.850000
1741.884507	10971.650000
1743.712457	11026.650000
1745.540015	10945.700000
1747.367182	10967.950000
1749.193957	11023.450000
1751.020340	10917.150000
1752.842787	10982.000000
1754.668389	10939.950000
1756.490056	11005.500000
1758.313104	10983.200000
1760.133992	10938.900000
1761.954491	10976.900000
1763.776370	10960.050000
1765.592550	10918.950000
1767.411883	10893.200000
1769.227287	10932.500000
1771.045843	10904.450000
1772.860473	10981.550000
1774.674716	10936.850000
1776.488573	10912.450000
1778.302043	10945.400000
1780.113360	10929.150000
1781.926057	10923.500000
1783.738369	10963.750000
1785.546762	10893.100000
1787.356537	10959.500000
1789.162397	10863.250000
1790.971402	10944.150000
1792.776494	10914.400000
1794.582967	10931.500000
1796.389056	10863.000000
1798.191234	10895.300000
1799.996557	10896.100000
1801.797971	10847.300000
1803.600765	10901.000000
1805.399653	10907.650000
1807.199922	10939.150000
1808.999809	10832.250000
1810.797554	10840.750000
1812.594919	10870.350000
1814.391903	10778.000000
1816.188508	10832.800000
1817.982973	10760.500000
1819.778817	10754.300000
1821.569006	10767.000000
1823.364092	10760.850000
1825.153525	10798.300000
1826.946096	10761.900000
1828.736531	10744.050000
1830.524832	10732.650000
1832.316267	10787.750000
1834.102058	10721.450000
1835.889228	10704.600000
1837.674266	10722.300000
1839.462438	10644.950000
1841.246724	10636.900000
1843.028880	10659.950000
1844.812416	10728.150000
1846.593823	10653.100000
1848.376609	10708.250000
1850.155514	10734.150000
1851.935798	10645.700000
1853.713957	10583.800000
1855.493494	10549.150000
1857.270905	10620.300000
1859.046194	10600.800000
1860.822860	10579.650000
1862.597404	10616.550000
1864.373325	10661.450000
1866.143627	10623.900000
1867.917056	10567.850000
1869.688365	10602.350000
1871.459303	10628.400000
1873.231619	10610.800000
1874.998321	10661.600000
1876.768148	10630.550000
1878.534112	10671.550000
1880.303200	10653.600000
1882.068426	10575.000000
1883.833284	10547.500000
1885.599519	10656.750000
1887.361895	10585.300000
1889.123903	10520.150000
1890.885545	10547.500000
1892.646819	10565.800000
1894.407727	10601.900000
1896.168268	10463.950000
1897.926699	10553.600000
1899.684764	10456.550000
1901.440722	10501.450000
1903.198056	10556.300000
1904.955025	10525.150000
1906.709887	10469.450000
1908.462645	10451.800000
1910.215038	10563.450000
1911.968808	10496.350000
1913.720474	10531.900000
1915.470038	10508.250000
1917.220977	10437.200000
1918.971553	10489.700000
1920.718291	10537.100000
1922.466404	10501.750000
1924.212419	10458.200000
1925.959808	10543.300000
1927.705100	10474.200000
1929.448294	10432.350000
1931.192863	10455.950000
1932.935336	10404.950000
1934.677450	10412.600000
1936.419203	10462.700000
1938.160596	10416.700000
1939.899896	10469.400000
1941.638837	10397.850000
1943.377419	10431.700000
1945.113910	10448.150000
1946.850043	10428.600000
1948.587550	10409.050000
1950.321235	10463.200000
1952.056295	10354.150000
1953.789266	10427.900000
1955.521881	10375.100000
1957.254140	10368.600000
1958.986042	10419.300000
1960.715858	10449.350000
1962.443589	10366.950000
1964.172695	10415.300000
1965.901445	10345.400000
1967.628113	10390.350000
1969.354426	10364.800000
1971.082112	10426.150000
1972.804262	10358.600000
1974.529513	10383.150000
1976.250957	10423.900000
1977.975501	10456.700000
1979.697966	10385.500000
1981.416628	10398.300000
1983.138388	10405.300000
1984.856346	10367.350000
1986.575677	10346.300000
1988.291209	10420.150000
1990.011561	10401.800000
1991.728115	10424.550000
1993.440872	10381.250000
1995.156725	10458.250000
1996.870506	10324.150000
1998.583937	10454.750000
2000.295297	10402.900000
2002.008029	10456.500000
2003.716971	10389.200000
2005.429005	10435.600000
2007.135530	10327.650000
2008.845148	10404.950000
2010.552698	10415.300000
2012.259901	10435.650000
2013.965038	10387.100000
2015.669829	10325.700000
2017.375991	10290.900000
2019.078371	10313.300000
2020.782122	10326.050000
2022.483811	10235.850000
2024.185154	10269.150000
2025.886153	10236.550000
2027.585090	10269.400000
2029.285399	10272.050000
2030.981932	10241.850000
2032.679837	10311.350000
2034.375684	10326.050000
2036.074616	10262.100000
2037.768062	10272.000000
2039.462879	10235.150000
2041.157354	10334.700000
2042.848060	10294.900000
2044.541850	10335.800000
2046.231873	10297.550000
2047.923267	10184.050000
2049.612608	10232.900000
2051.303319	10138.200000
2052.990267	10174.000000
2054.676876	10078.600000
2056.364854	10103.300000
2058.049073	10104.800000
2059.734663	10093.950000
2061.419912	10032.600000
2063.103114	10005.300000
2064.787686	10067.500000
2066.466794	10005.100000
2068.150689	10022.750000
2069.829122	9930.450000
2071.510633	9977.050000
2073.188392	10048.150000
2074.865815	10015.200000
2076.544607	10033.300000
2078.221357	10002.550000
2079.896064	10020.800000
2081.572142	9997.500000
2083.246178	10055.650000
2084.919880	10015.300000
2086.593246	9987.900000
2088.264573	10026.500000
2089.935566	10016.150000
2091.606225	10000.450000
2093.276550	10022.300000
2094.946541	9987.050000
2096.614496	9948.150000
2098.282117	9901.150000
2099.947705	9937.100000
2101.614661	9992.800000
2103.279584	9967.400000
2104.944175	9996.000000
2106.606734	9962.450000
2108.270661	10059.700000
2109.932557	9971.600000
2111.594123	10077.900000
2113.255357	10016.450000
2114.914563	9993.950000
2116.573438	10034.200000
2118.231984	10005.650000
2119.890199	10053.800000
2121.544692	9979.350000
2123.202249	10021.000000
2124.859476	10020.000000
2126.512983	9970.850000
2128.167857	10006.900000
2129.819012	10012.500000
2131.473230	10037.250000
2133.123730	10040.900000
2134.775598	10007.000000
2136.422057	9969.650000
2138.073271	9933.400000
2139.720771	10028.950000
2141.369638	9967.750000
2143.016486	9972.050000
2144.663009	9925.550000
2146.309206	10019.500000
2147.951695	9938.700000
2149.597241	9992.050000
2151.239082	9915.700000
2152.883979	9935.800000
2154.525170	9864.150000
2156.166038	9893.850000
2157.806583	9840.100000
2159.445115	9849.250000
2161.085013	9861.050000
2162.721211	9836.700000
2164.358775	9810.150000
2165.996017	9797.500000
2167.631249	9736.250000
2169.266159	9801.200000
2170.900748	9793.550000
2172.535016	9791.700000
2174.165590	9797.850000
2175.799216	9736.050000
2177.429150	9762.950000
2179.060449	9724.650000
2180.689743	9753.850000
2182.318718	9776.750000
2183.947373	9698.100000
2185.575709	9707.400000
2187.202043	9739.450000
2188.828057	9655.900000
2190.452071	9688.950000
2192.077450	9651.950000
2193.700828	9636.250000
2195.325571	9640.700000
2196.946633	9636.350000
2198.567378	9638.300000
2200.189487	9596.250000
2201.809599	9628.550000
2203.427715	9602.100000
2205.045515	9601.350000
2206.663000	9551.800000
2208.280169	9634.550000
2209.897023	9602.500000
2211.513561	9591.200000
2213.128107	9638.600000
2214.740660	9607.700000
2216.354577	9672.450000
2217.966503	9600.500000
2219.579792	9519.400000
2221.191091	9571.750000
2222.800400	9503.950000
2224.411073	9642.300000
2226.019757	9538.100000
2227.628128	9560.400000
2229.234513	9590.000000
2230.842260	9578.350000
2232.448022	9504.250000
2234.053472	9489.150000
2235.656937	9516.000000
2237.261765	9552.700000
2238.864609	9526.150000
2240.465470	9573.900000
2242.067694	9522.000000
2243.667936	9575.650000
2245.269540	9535.700000
2246.867491	9527.200000
2248.466805	9526.000000
2250.064139	9559.700000
2251.661165	9538.900000
2253.259553	9593.500000
2254.854292	9583.950000
2256.447054	9580.300000
2258.041179	9514.800000
2259.636665	9593.300000
2261.228506	9502.300000
2262.820041	9495.250000
2264.412938	9474.150000
2266.000525	9497.150000
2267.592808	9480.100000
2269.179785	9506.850000
2270.769789	9480.400000
2272.354489	9410.650000
2273.943883	9416.450000
2275.527974	9384.500000
2277.113427	9317.050000
2278.696911	9406.400000
2280.283420	9281.850000
2281.866296	9359.600000
2283.448869	9226.100000
2285.031138	9374.800000
2286.609777	9328.350000
2288.191441	9276.300000
2289.769476	9327.000000
2291.350534	9274.500000
2292.927965	9274.225000
2294.503433	9273.950000
2296.081923	9206.650000
2297.656789	9274.950000
2299.231354	9225.200000
2300.805618	9221.250000
2302.379583	9254.200000
2303.953246	9229.100000
2305.526610	9174.700000
2307.096355	9171.150000
2308.665801	9139.950000
2310.238265	9192.100000
2311.805455	9144.150000
2313.375663	9190.750000
2314.942256	9175.200000
2316.510209	9184.050000
2318.076206	9201.050000
2319.641906	9184.950000
2321.207308	9228.500000
2322.770757	9170.900000
2324.335565	9209.450000
2325.896765	9231.750000
2327.460979	9174.400000
2329.019931	9240.550000
2330.581897	9255.500000
2332.141913	9251.600000
2333.701633	9135.000000
2335.259405	9238.200000
2336.816881	9194.100000
2338.374063	9289.700000
2339.929297	9225.700000
2341.484238	9256.850000
2343.038884	9232.300000
2344.593237	9261.100000
2346.147296	9209.850000
2347.701062	9248.400000
2349.252883	9205.350000
2350.802762	9200.200000
2352.355648	9141.950000
2353.903291	9226.750000
2355.453943	9134.100000
2357.001003	9168.750000
2358.549421	9133.050000
2360.097548	9132.150000
2361.642086	9123.650000
2363.187982	9115.700000
2364.731940	9095.400000
2366.277254	9083.600000
2367.818985	9028.800000
2369.362072	9125.900000
2370.903223	9056.950000
2372.444085	9035.400000
2373.984658	9116.150000
2375.524942	9045.550000
2377.064937	9066.750000
2378.601354	9077.200000
2380.140772	9068.150000
2381.676612	9116.400000
2383.213810	9000.300000
2384.747432	9046.650000
2386.284054	9052.400000
2387.818746	9038.200000
2389.351508	9040.950000
2390.883983	8989.100000
2392.414530	9015.250000
2393.948075	9044.650000
2395.476409	9079.250000
2397.006099	8997.650000
2398.535504	8983.600000
2400.064624	8940.950000
2401.593458	9003.150000
2403.117088	9004.000000
2404.645353	8972.400000
2406.168416	8986.900000
2407.696112	8973.300000
2409.216969	8897.100000
2410.742458	9019.300000
2412.264388	8930.050000
2413.787672	8906.250000
2415.309036	8942.450000
2416.828480	8930.850000
2418.349279	8956.100000
2419.868159	8885.850000
2421.386758	8881.800000
2422.903439	8776.650000
2424.421474	8860.600000
2425.939228	8876.700000
2427.453430	8859.100000
2428.967353	8819.800000
2430.480995	8849.500000
2431.995992	8866.400000
2433.507440	8846.300000
2435.020242	8830.750000
2436.531132	8855.400000
2438.041743	8822.700000
2439.550442	8771.050000
2441.062127	8828.150000
2442.570269	8812.000000
2444.078133	8735.250000
2445.585718	8775.350000
2447.089764	8781.100000
2448.596794	8701.750000
2450.101916	8701.550000
2451.606761	8773.050000
2453.109699	8683.850000
2454.612361	8619.450000
2456.114746	8612.900000
2457.615226	8614.750000
2459.117059	8557.350000
2460.616987	8559.050000
2462.116640	8543.450000
2463.616018	8524.400000
2465.113493	8565.550000
2466.609066	8526.800000
2468.107619	8572.700000
2469.602644	8535.000000
2471.099021	8516.850000
2472.591872	8508.800000
2474.086076	8522.300000
2475.580006	8495.400000
2477.070412	8432.950000
2478.563796	8559.900000
2480.055282	8407.950000
2481.544871	8538.800000
2483.034188	8425.050000
2484.521609	8489.350000
2486.012006	8493.250000
2487.498885	8477.100000
2488.987115	8449.200000
2490.471828	8440.400000
2491.956272	8414.750000
2493.442066	8471.350000
2494.925969	8427.450000
2496.411222	8456.450000
2497.891342	8462.350000
2499.374435	8492.150000
2500.855637	8436.250000
2502.336570	8511.850000
2503.815614	8478.900000
2505.294389	8545.100000
2506.772896	8460.650000
2508.251135	8521.750000
2509.729105	8460.300000
2511.203570	8505.800000
2512.681005	8461.700000
2514.154936	8550.750000
2515.630217	8528.700000
2517.105231	8529.600000
2518.576744	8511.000000
2520.049608	8565.750000
2521.520589	8554.700000
2522.992920	8532.750000
2524.460137	8603.200000
2525.930321	8515.450000
2527.398624	8513.800000
2528.866662	8550.400000
2530.334435	8526.550000
2531.801943	8451.100000
2533.269186	8476.250000
2534.732937	8476.700000
2536.198038	8449.900000
2537.661262	8549.750000
2539.125835	8539.550000
2540.586920	8505.950000
2542.049354	8496.050000
2543.511525	8567.150000
2544.970210	8548.100000
2546.433466	8501.250000
2547.891626	8581.550000
2549.351136	8544.600000
2550.805551	8456.100000
2552.264537	8468.550000
2553.721651	8466.850000
2555.176893	8513.150000
2556.631875	8456.200000
2558.084988	8417.150000
2559.539448	8412.100000
2560.992040	8423.900000
2562.444372	8406.750000
2563.894837	8422.800000
2565.348257	8454.400000
2566.796595	8348.050000
2568.247888	8396.950000
2569.697316	8386.300000
2571.143271	8377.500000
2572.592181	8445.750000
2574.037621	8417.050000
2575.484408	8381.300000
2576.929332	8308.000000
2578.373999	8383.800000
2579.820013	8313.250000
2581.262561	8306.400000
2582.706456	8285.500000
2584.146885	8275.300000
2585.588663	8228.000000
2587.028581	8279.550000
2588.469846	8293.700000
2589.907649	8239.500000
2591.348402	8276.200000
2592.784093	8256.200000
2594.222732	8275.150000
2595.659515	8319.600000
2597.094442	8282.750000
2598.532316	8195.800000
2599.965133	8284.000000
2601.399297	8222.500000
2602.831607	8257.800000
2604.265263	8247.700000
2605.697066	8175.700000
2607.128615	8191.000000
2608.559912	8126.900000
2609.989356	8190.450000
2611.418548	8118.500000
2612.845890	8190.200000
2614.274577	8154.350000
2615.703013	8197.550000
2617.128001	8168.150000
2618.554336	8122.850000
2619.978822	8122.150000
2621.404654	8132.100000
2622.827042	8194.200000
2624.250776	8179.000000
2625.672663	8126.800000
2627.094300	8140.900000
2628.514093	8095.700000
2629.935231	8105.650000
2631.356119	8103.250000
2632.773568	8090.850000
2634.193958	8124.350000
2635.610910	8153.200000
2637.027613	8110.250000
2638.444068	8069.600000
2639.860275	8159.950000
2641.276234	8049.450000
2642.690352	8129.850000
2644.104222	8117.500000
2645.516253	8072.150000
2646.929629	8062.150000
2648.339575	8075.900000
2649.752457	8083.700000
2651.161910	8104.850000
2652.571117	8119.450000
2653.978488	8080.300000
2655.388793	8122.050000
2656.797263	8006.450000
2658.203897	8112.800000
2659.610286	8031.750000
2661.014841	8092.950000
2662.420740	8086.800000
2663.824806	8074.150000
2665.228627	8061.750000
2666.632204	7995.050000
2668.033950	8089.750000
2669.437039	8114.850000
2670.836710	8081.700000
2672.237725	8029.100000
2673.635324	8092.300000
2675.035852	8055.450000
2676.432966	8043.350000
2677.831423	8091.700000
2679.228053	7979.650000
2680.624440	8003.150000
2682.020585	8005.250000
2683.414904	8002.150000
2684.810566	7963.250000
2686.202819	7995.000000
2687.596414	8004.850000
2688.988185	8007.800000
2690.381299	7959.750000
2691.772589	7932.400000
2693.162056	7986.450000
2694.551283	7897.000000
2695.940271	7888.950000
2697.330600	7937.250000
2698.715946	7924.550000
2700.104215	7869.500000
2701.490664	7789.000000
2702.876874	7867.850000
2704.262845	7794.200000
2705.645418	7880.250000
2707.029333	7808.100000
2708.413010	7812.700000
2709.796448	7824.650000
2711.176491	7758.200000
2712.557876	7770.700000
2713.937446	7803.800000
2715.318356	7758.550000
2716.697452	7816.050000
2718.074734	7723.450000
2719.453357	7771.550000
2720.830166	7788.300000
2722.206740	7731.850000
2723.583078	7774.900000
2724.957604	7759.450000
2726.333471	7762.300000
2727.705952	7748.400000
2729.081348	7725.000000
2730.451784	7754.850000
2731.823561	7727.300000
2733.195103	7760.600000
2734.564837	7705.850000
2735.935911	7776.350000
2737.305178	7679.300000
2738.674211	7704.800000
2740.041438	7727.050000
2741.408431	7743.500000
2742.775192	7670.350000
2744.141720	7651.650000
2745.506444	7727.100000
2746.870935	7707.050000
2748.235195	7609.200000
2749.599222	7749.300000
2750.963018	7642.200000
2752.323440	7698.100000
2753.686772	7653.100000
2755.045162	7665.150000
2756.406462	7617.800000
2757.764392	7620.700000
2759.125230	7528.400000
2760.484268	7551.650000
2761.839939	7572.150000
2763.198517	7549.200000
2764.553728	7560.750000
2765.908710	7512.350000
2767.261895	7476.650000
2768.617987	7530.350000
2769.970715	7518.750000
2771.323215	7533.300000
2772.675486	7460.600000
2774.029095	7449.800000
2775.379344	7450.150000
2776.727798	7475.100000
2778.079157	7427.800000
2779.427158	7463.500000
2780.776496	7414.600000
2782.124042	7437.000000
2783.471362	7464.350000
2784.818455	7426.150000
2786.163756	7374.050000
2787.508832	7380.200000
2788.853682	7330.400000
2790.198306	7344.650000
2791.539578	7322.200000
2792.882187	7396.900000
2794.224572	7381.350000
2795.566731	7393.700000
2796.905541	7366.400000
2798.247251	7405.700000
2799.585612	7444.450000
2800.925311	7384.850000
2802.263225	7404.700000
2803.599353	7368.050000
2804.935259	7401.300000
2806.272502	7359.800000
2807.607961	7389.650000
2808.943197	7386.650000
2810.276650	7380.850000
2811.611440	7383.700000
2812.942890	7390.000000
2814.277235	7394.250000
2815.606682	7322.000000
2816.937465	7409.650000
2818.268028	7350.300000
2819.596811	7319.300000
2820.926930	7307.050000
2822.255271	7311.700000
2823.583391	7292.550000
2824.909733	7250.400000
2826.237412	7262.850000
2827.561757	7271.150000
2828.887439	7233.000000
2830.211345	7260.550000
2831.535031	7214.950000
2832.860053	7227.300000
2834.181746	7231.700000
2835.503220	7180.200000
2836.824475	7129.650000
2838.145511	7190.050000
2839.464774	7145.900000
2840.785373	7186.350000
2842.104200	7132.400000
2843.422810	7145.700000
2844.739648	7091.250000
2846.056269	7134.150000
2847.372673	7153.300000
2848.687307	7126.400000
2850.003277	7117.650000
2851.315926	7150.100000
2852.629910	7111.100000
2853.943678	7182.950000
2855.257229	7078.500000
2856.569014	7117.800000
2857.879032	7122.950000
2859.190385	7171.400000
2860.498423	7168.750000
2861.807795	7182.700000
2863.116952	7202.200000
2864.425895	7151.850000
2865.733073	7214.700000
2867.038489	7182.450000
2868.345238	7178.850000
2869.650226	7200.700000
2870.954999	7179.200000
2872.258012	7143.700000
2873.563905	7129.450000
2874.864944	7146.250000
2876.167317	7139.650000
2877.467930	7198.650000
2878.769877	7105.050000
2880.071610	7088.900000
2881.370040	7134.450000
2882.669803	7075.200000
2883.967809	7050.450000
2885.265603	7063.600000
2886.561641	6989.950000
2887.859012	7030.300000
2889.154627	6964.700000
2890.450031	7039.350000
2891.745224	7073.850000
2893.037120	7027.000000
2894.331892	6974.450000
2895.623367	7013.850000
2896.916175	6993.550000
2898.208773	6955.700000
2899.498077	6990.500000
2900.788713	6909.250000
2902.077598	6983.200000
2903.367815	6930.750000
2904.654741	6936.600000
2905.942999	6976.200000
2907.229508	6942.550000
2908.515808	6941.850000
2909.801900	6916.850000
2911.086245	6905.450000
2912.373460	6927.700000
2913.655849	6926.350000
2914.939570	6906.700000
2916.221545	6938.850000
2917.503312	6939.350000
2918.783334	6922.600000
2920.066227	6956.000000
2921.347374	6875.800000
2922.625239	6941.850000
2923.905973	6953.500000
2925.183426	6854.100000
2926.460673	6891.550000
2927.736178	6880.400000
2929.014551	6910.100000
2930.288110	6804.750000
2931.564536	6853.950000
2932.839221	6845.000000
2934.112165	6816.800000
2935.386441	6836.050000
2936.658977	6817.250000
2937.931308	6764.700000
2939.200367	6804.100000
2940.472291	6731.000000
2941.742477	6748.300000
2943.012459	6763.900000
2944.282238	6682.550000
2945.550281	6729.850000
2946.816587	6652.500000
2948.082691	6656.600000
2949.350126	6726.750000
2950.615825	6697.800000
2951.881323	6689.000000
2953.146618	6649.450000
2954.408648	6552.100000
2955.672008	6617.550000
2956.935167	6606.200000
2958.196594	6618.150000
2959.459350	6565.150000
2960.720374	6578.250000
2961.979668	6506.850000
2963.238761	6543.950000
2964.497655	6572.650000
2965.756348	6547.450000
2967.014841	6505.050000
2968.271604	6461.700000
2969.528169	6461.500000
2970.783005	6438.550000
2972.039171	6425.750000
2973.292082	6505.500000
2974.546321	6460.400000
2975.800362	6456.400000
2977.052677	6438.100000
2978.304794	6404.650000
2979.555186	6380.300000
2980.808433	6380.450000
2982.056903	6325.800000
2983.308228	6382.300000
2984.556303	6407.250000
2985.804181	6346.200000
2987.051863	6299.500000
2988.299347	6295.500000
2989.545110	6313.200000
2990.790677	6329.650000
2992.037571	6284.100000
2993.281221	6256.850000
2994.526199	6260.100000
2995.767933	6245.300000
2997.012519	6317.650000
2998.255386	6262.150000
2999.495012	6273.950000
3000.737488	6201.550000
3001.976724	6250.750000
3003.217288	6239.700000
3004.456135	6252.000000
3005.694788	6145.700000
3006.931725	6188.600000
3008.169990	6208.800000
3009.406539	6278.450000
3010.642895	6154.650000
3011.879057	6203.000000
3013.113505	6177.550000
3014.347760	6143.500000
3015.581823	6159.900000
3016.814172	6170.000000
3018.044810	6113.900000
3019.278294	6073.700000
3020.510067	6107.500000
3021.740129	6108.450000
3022.969998	6087.350000
3024.198158	6062.400000
3025.427645	6087.600000
3026.655422	6096.050000
3027.883008	6092.450000
3029.111920	6076.100000
3030.336090	6031.500000
3031.563104	6000.250000
3032.786893	6019.600000
3034.012009	6023.900000
3035.235418	6037.550000
3036.458637	6002.750000
3037.680151	5977.100000
3038.904506	5966.300000
3040.124126	5942.050000
3041.345072	5995.050000
3042.565829	5952.750000
3043.784882	6002.850000
3045.005260	5972.250000
3046.222422	5931.300000
3047.440910	5889.250000
3048.657695	5956.150000
3049.874293	5942.600000
3051.090702	5898.900000
3052.303898	5925.000000
3053.519933	5893.700000
3054.732755	5881.300000
3055.948413	5924.400000
3057.159350	5885.500000
3058.371611	5863.800000
3059.583685	5844.750000
3060.795573	5819.400000
3062.005764	5819.750000
3063.215768	5804.150000
3064.425586	5797.450000
3065.633708	5853.950000
3066.841645	5760.050000
3068.047886	5819.350000
3069.255452	5786.000000
3070.461323	5792.275000
3071.667009	5798.550000
3072.872511	5732.950000
3074.076319	5730.050000
3075.281451	5748.000000
3076.484890	5779.250000
3077.686638	5760.450000
3078.888201	5702.200000
3080.089581	5716.900000
3081.290777	5718.850000
3082.490283	5697.400000
3083.689606	5654.850000
3084.890252	5699.000000
3086.089208	5691.100000
3087.284970	5631.000000
3088.483560	5700.800000
3089.678958	5627.700000
3090.875678	5620.300000
3092.069206	5630.500000
3093.265562	5575.550000
3094.460231	5601.000000
3095.651710	5597.200000
3096.847521	5573.450000
3098.038637	5574.350000
3099.231077	5600.750000
3100.420329	5523.800000
3101.612406	5620.750000
3102.802800	5556.550000
3103.990008	5611.800000
3105.178538	5558.450000
3106.368391	5631.750000
3107.555060	5517.750000
3108.741548	5521.900000
3109.927858	5544.800000
3111.115489	5526.150000
3112.299938	5493.950000
3113.482708	5487.250000
3114.668300	5537.450000
3115.852213	5503.000000
3117.034447	5512.550000
3118.216502	5499.600000
3119.398379	5495.000000
3120.580078	5494.100000
3121.760100	5451.750000
3122.938445	5469.400000
3124.119610	5478.200000
3125.297600	5490.450000
3126.475413	5474.000000
3127.653049	5461.800000
3128.829010	5401.750000
3130.004795	5426.100000
3131.181901	5431.450000
3132.357332	5454.200000
3133.531090	5392.900000
3134.703175	5395.550000
3135.876582	5427.200000
3137.049812	5403.700000
3138.221371	5406.900000
3139.394250	5428.450000
3140.563962	5366.150000
3141.734995	5425.750000
3142.904358	5439.550000
3144.072050	5380.150000
3145.242558	5395.050000
3146.408408	5377.350000
3147.578566	5362.500000
3148.744068	5355.000000
3149.909395	5338.950000
3151.074549	5364.300000
3152.239530	5360.150000
3153.405830	5345.700000
3154.567478	5345.650000
3155.730445	5275.400000
3156.893240	5263.200000
3158.055862	5253.050000
3159.216818	5171.350000
3160.377603	5170.000000
3161.538215	5159.850000
3162.697163	5132.400000
3163.855940	5169.700000
3165.014544	5158.850000
3166.172977	5099.400000
3167.331239	5174.550000
3168.487838	5115.250000
3169.642776	5122.900000
3170.799033	5097.550000
3171.953629	5102.100000
3173.108055	5123.900000
3174.260821	5141.850000
3175.413416	5067.850000
3176.565842	5082.300000
3177.718098	5120.600000
3178.870183	5077.350000
3180.019122	5073.800000
3181.170869	5141.950000
3182.320957	5075.550000
3183.469389	5119.400000
3184.617651	5063.600000
3185.765745	5089.600000
3186.913670	5124.950000
3188.059939	5099.950000
3189.206040	5109.650000
3190.350487	5143.200000
3191.494766	5094.550000
3192.638877	5140.250000
3193.784305	5060.250000
3194.926595	5121.900000
3196.068718	5069.850000
3197.210673	5125.050000
3198.352461	5067.250000
3199.494082	5098.800000
3200.632568	5056.600000
3201.772371	5036.900000
3202.913491	5020.900000
3204.051478	5026.600000
3205.187815	5004.950000
3206.323986	5030.850000
3207.461474	5041.950000
3208.597314	5050.300000
3209.734471	5031.400000
3210.867015	4983.850000
3212.003841	5050.900000
3213.136055	4995.150000
3214.269586	4969.100000
3215.402953	4976.750000
3216.533192	4963.650000
3217.666229	4934.100000
3218.796140	4888.300000
3219.927367	4866.650000
3221.055470	4867.250000
3222.186369	4877.700000
3223.315624	4857.800000
3224.443236	4855.850000
3225.567725	4841.300000
3226.696490	4857.250000
3227.822133	4808.250000
3228.947613	4854.900000
3230.071452	4824.600000
3231.198086	4864.050000
3232.320122	4869.500000
3233.443474	4879.550000
3234.566664	4833.500000
3235.689691	4790.800000
3236.811080	4826.450000
3237.932306	4826.150000
3239.051894	4808.200000
3240.171321	4799.150000
3241.289111	4831.750000
3242.409692	4810.900000
3243.527160	4800.500000
3244.644467	4833.900000
3245.761614	4841.100000
3246.877124	4845.500000
3247.993950	4853.200000
3249.107666	4876.300000
3250.224171	4895.050000
3251.339042	4841.950000
3252.450803	4884.250000
3253.562406	4896.600000
3254.675324	4849.400000
3255.788082	4822.200000
3256.897734	4848.350000
3258.008701	4807.750000
3259.119509	4786.500000
3260.228685	4816.500000
3261.336230	4846.750000
3262.445090	4827.650000
3263.553792	4836.850000
3264.659391	4829.100000
3265.766304	4815.850000
3266.871588	4815.500000
3267.978186	4858.600000
3269.081684	4812.350000
3270.186496	4805.950000
3271.291151	4798.100000
3272.392708	4792.850000
3273.494108	4807.300000
3274.596822	4788.800000
3275.699380	4775.550000
3276.798841	4787.900000
3277.901086	4789.450000
3279.000235	4721.400000
3280.097760	4744.350000
3281.195129	4734.900000
3282.295280	4744.750000
3283.392339	4750.650000
3284.489242	4703.050000
3285.585990	4722.550000
3286.678179	4723.450000
3287.774618	4684.400000
3288.869434	4708.950000
3289.964096	4711.350000
3291.057136	4672.650000
3292.150021	4693.050000
3293.241286	4645.300000
3294.333864	4625.100000
3295.424822	4702.700000
3296.514160	4627.250000
3297.603345	4627.750000
3298.693842	4606.550000
3299.781256	4594.300000
3300.868516	4636.350000
3301.957089	4607.750000
3303.045509	4605.400000
3304.129383	4555.850000
3305.217498	4597.100000
3306.302531	4625.450000
3307.385949	4593.950000
3308.470679	4601.350000
3309.553793	4615.550000
3310.638220	4608.100000
3311.719568	4579.600000
3312.802228	4627.000000
3313.883274	4554.850000
3314.964168	4612.950000
3316.043450	4551.950000
3317.122581	4569.950000
3318.203024	4545.300000
3319.280392	4573.250000
3320.359072	4591.900000
3321.436140	4581.050000
3322.513059	4584.800000
3323.588366	4567.250000
3324.663524	4576.350000
3325.739993	4591.200000
3326.813392	4590.650000
3327.886641	4564.900000
3328.961202	4534.300000
3330.034154	4557.950000
3331.105497	4530.450000
3332.178151	4570.850000
3333.247739	4512.450000
3334.318637	4518.550000
3335.387928	4516.800000
3336.458529	4488.750000
3337.527525	4490.000000
3338.594914	4483.550000
3339.660698	4448.600000
3340.730708	4457.400000
3341.797655	4414.900000
3342.861540	4449.700000
3343.928192	4410.700000
3344.993241	4373.950000
3346.056686	4405.500000
3347.119985	4384.750000
3348.183137	4372.850000
3349.246143	4406.400000
3350.309003	4333.850000
3351.370261	4376.850000
3352.428462	4368.750000
3353.490883	4337.800000
3354.550249	4324.000000
3355.609469	4364.150000
3356.669998	4332.450000
3357.726019	4389.900000
3358.784803	4369.900000
3359.839080	4349.500000
3360.896121	4331.100000
3361.951563	4408.350000
3363.008315	4368.500000
3364.063468	4335.900000
3365.117024	4350.100000
3366.168984	4344.700000
3367.223705	4346.850000
3368.275377	4368.350000
3369.326906	4339.850000
3370.379743	4369.850000
3371.429533	4366.050000
3372.480632	4332.300000
3373.528684	4337.550000
3374.579497	4332.300000
3375.627264	4341.400000
3376.674889	4348.550000
3377.722372	4316.300000
3378.768262	4317.700000
3379.815460	4298.100000
3380.859616	4326.000000
3381.906530	4306.100000
3382.951852	4309.650000
3383.994133	4258.950000
3385.036273	4318.550000
3386.079722	4274.850000
3387.123029	4285.600000
3388.164746	4248.700000
3389.206323	4264.300000
3390.247758	4229.400000
3391.287605	4258.950000
3392.325863	4212.900000
3393.365429	4247.700000
3394.404855	4225.550000
3395.442693	4197.650000
3396.478944	4208.750000
3397.515056	4248.050000
3398.552475	4194.250000
3399.586861	4195.000000
3400.622554	4214.950000
3401.658108	4189.200000
3402.690631	4183.600000
3403.725906	4188.200000
3404.758152	4170.250000
3405.790259	4196.850000
3406.820782	4166.000000
3407.852612	4172.250000
3408.884304	4166.350000
3409.912968	4190.150000
3410.941495	4168.800000
3411.971328	4132.650000
3413.001024	4140.750000
3414.027694	4160.950000
3415.055670	4159.950000
3416.080623	4138.600000
3417.108325	4145.650000
3418.133003	4161.850000
3419.158989	4140.900000
3420.183394	4168.800000
3421.207663	4125.350000
3422.230353	4130.150000
3423.252907	4089.850000
3424.276767	4104.250000
3425.297607	4087.950000
3426.318311	4081.850000
3427.340322	4088.900000
3428.359314	4016.350000
3429.378170	4047.550000
3430.398333	4028.000000
3431.415479	4036.450000
