-117.841134	5.900000
-115.171534	10.300000
-112.504869	11.500000
-109.838956	12.650000
-107.175976	24.850000
-104.511565	13.850000
-101.850085	6.200000
-99.187176	20.200000
-96.529373	22.050000
-93.870141	8.050000
-91.211657	4.600000
-88.556098	8.300000
-85.899109	11.350000
-83.247219	20.350000
-80.593899	15.900000
-77.943498	16.100000
-75.291669	1.050000
-72.644930	8.550000
-69.996761	16.450000
-67.349335	12.500000
-64.704824	12.100000
-62.058883	16.700000
-59.418024	14.750000
-56.775736	18.400000
-54.136357	10.500000
-51.495548	16.500000
-48.855480	18.850000
-46.220485	11.500000
-43.584060	30.750000
-40.950538	23.900000
-38.315588	22.800000
-35.685703	22.000000
-33.052226	26.100000
-30.423811	16.400000
-27.796130	29.400000
-25.167020	30.000000
-22.542967	31.500000
-19.915325	20.100000
-17.292737	42.900000
-14.670879	33.300000
-12.049752	79.750000
-9.429356	132.700000
-6.811847	408.650000
-4.192910	1248.300000
-1.576858	2796.950000
1.038465	3269.950000
3.653060	1593.100000
6.264774	191.000000
8.877916	39.550000
11.486024	29.850000
14.097713	31.650000
16.704373	26.800000
19.312460	21.400000
21.919823	28.400000
24.522161	30.400000
27.128077	21.850000
29.728971	26.600000
32.331293	29.650000
34.928597	20.900000
37.529478	26.650000
40.125343	34.000000
42.722637	8.650000
45.319211	23.150000
47.910776	20.950000
50.503769	35.850000
53.093901	18.200000
55.685460	32.150000
58.274161	22.150000
60.864288	32.500000
63.449416	26.200000
66.035972	24.200000
68.621814	28.100000
71.204802	29.850000
73.789216	20.400000
76.366502	28.150000
78.947354	35.400000
81.525357	36.000000
84.102650	26.000000
86.681369	28.600000
89.255106	27.400000
91.830271	22.950000
94.402592	34.400000
96.974205	36.250000
99.542978	54.200000
102.113178	52.400000
104.680539	46.800000
107.249327	61.500000
109.815278	71.900000
112.378394	91.200000
114.945066	102.950000
117.502516	162.700000
120.065653	189.500000
122.623829	295.450000
125.185560	413.250000
127.742334	605.950000
130.300534	900.150000
132.853782	1357.050000
135.406332	1925.700000
137.962432	2739.400000
140.513584	3538.900000
143.064039	4366.300000
145.613796	5049.250000
148.160734	5526.650000
150.706977	5765.150000
153.254645	5893.850000
155.801617	5981.500000
158.343654	5954.300000
160.884997	5910.400000
163.425647	5907.800000
165.967723	5854.350000
168.506987	5877.600000
171.043442	5770.000000
173.579207	5764.500000
176.116397	5713.050000
178.652896	5698.200000
181.186589	5701.600000
183.717478	5664.450000
186.247679	5648.750000
188.779306	5643.900000
191.308131	5635.100000
193.834157	5654.850000
196.359497	5634.500000
198.886262	5611.000000
201.410231	5634.300000
203.933515	5611.650000
206.456113	5589.900000
208.975919	5585.600000
211.495042	5579.800000
214.013483	5615.550000
216.533347	5572.900000
219.046210	5607.800000
221.562604	5608.800000
224.078316	5599.000000
226.589138	5614.950000
229.101385	5601.350000
231.610849	5578.200000
234.119635	5626.500000
236.627743	5643.350000
239.137275	5679.500000
241.641926	5666.500000
244.145901	5655.100000
246.651300	5643.400000
249.151824	5686.700000
251.655871	5704.350000
254.152948	5657.800000
256.653548	5691.800000
259.151376	5728.850000
261.648531	5712.750000
264.145013	5729.100000
266.636632	5655.300000
269.131771	5751.850000
271.624143	5691.150000
274.115845	5710.000000
276.604784	5703.700000
279.095146	5685.700000
281.582747	5658.700000
284.067588	5677.050000
286.555944	5683.950000
289.037360	5711.350000
291.522290	5687.650000
294.002375	5674.500000
296.485972	5701.850000
298.964726	5734.350000
301.444903	5707.150000
303.922329	5733.000000
306.399091	5702.800000
308.875189	5661.900000
311.348540	5685.850000
313.821228	5696.300000
316.293255	5681.100000
318.764621	5749.600000
321.233242	5747.600000
323.701204	5772.500000
326.170589	5736.600000
328.635151	5754.900000
331.103217	5711.300000
333.566463	5715.050000
336.029051	5718.150000
338.490983	5677.150000
340.952258	5667.000000
343.410798	5666.050000
345.870762	5641.650000
348.327992	5594.950000
350.784568	5586.650000
353.240490	5518.800000
355.693682	5434.900000
358.148297	5462.650000
360.598110	5373.300000
363.051419	5383.050000
365.499929	5310.400000
367.947789	5238.400000
370.397071	5233.350000
372.841559	5204.650000
375.287469	5139.650000
377.732729	5063.500000
380.175271	5081.150000
382.617165	5027.200000
385.058412	4958.050000
387.496943	4933.550000
389.936895	4884.700000
392.374134	4900.550000
394.808662	4791.600000
397.246677	4799.600000
399.679915	4730.250000
402.114574	4733.350000
404.544461	4702.350000
406.977833	4675.550000
409.406435	4668.600000
411.834395	4608.900000
414.263777	4631.150000
416.688393	4622.950000
419.114431	4582.100000
421.539828	4554.600000
423.964585	4536.550000
426.384584	4535.750000
428.806003	4561.000000
431.224727	4556.250000
433.644871	4518.250000
436.062320	4518.150000
438.481189	4512.400000
440.897365	4539.300000
443.308793	4492.450000
445.723698	4487.000000
448.135914	4463.600000
450.547495	4472.100000
452.958442	4472.450000
455.366703	4480.550000
457.774331	4442.600000
460.181327	4494.600000
462.587692	4424.800000
464.991374	4416.150000
467.394426	4384.150000
469.796848	4408.350000
472.198640	4404.950000
474.597754	4389.150000
476.998288	4418.950000
479.398193	4392.450000
481.793376	4354.650000
484.192025	4377.500000
486.585953	4336.750000
488.979256	4334.050000
491.371934	4308.100000
493.763986	4308.650000
496.157456	4263.150000
498.546214	4272.900000
500.932306	4236.350000
503.319818	4222.850000
505.706707	4238.500000
508.090932	4221.050000
510.476575	4207.550000
512.859557	4182.250000
515.239878	4187.600000
517.621618	4236.550000
520.000699	4170.500000
522.381198	4184.050000
524.759041	4195.550000
527.134227	4193.500000
529.508797	4187.550000
531.884784	4139.400000
534.258119	4132.750000
536.632871	4106.750000
539.002937	4054.050000
541.372389	4063.000000
543.743258	4009.850000
546.109446	3920.800000
548.477053	3913.350000
550.842015	3894.900000
553.206363	3857.250000
555.570098	3822.100000
557.935251	3769.850000
560.295732	3767.000000
562.657631	3713.050000
565.016889	3665.950000
567.373509	3607.200000
569.733575	3566.600000
572.086949	3535.700000
574.443768	3508.250000
576.797952	3441.750000
579.151527	3396.300000
581.504495	3361.250000
583.854830	3298.450000
586.206583	3302.900000
588.551659	3256.300000
590.902198	3183.600000
593.246065	3197.850000
595.595393	3170.750000
597.940072	3109.250000
600.282127	3138.200000
602.625599	3102.550000
604.966448	3075.500000
607.306694	3080.350000
609.644320	3073.200000
611.985381	3022.750000
614.321805	3049.000000
616.659645	3023.200000
618.994868	3023.550000
621.327475	3014.450000
623.661498	3046.400000
625.992907	3036.750000
628.323718	3053.000000
630.653931	3046.100000
632.983547	3008.950000
635.308539	3043.800000
637.638973	3004.450000
639.964786	3017.450000
642.287991	3027.000000
644.612613	3006.850000
646.934629	3005.600000
649.256051	2997.650000
651.574870	3018.600000
653.895106	3012.000000
656.214748	3010.900000
658.531789	3032.150000
660.848238	3055.400000
663.162089	3078.250000
665.477356	3088.100000
667.790026	3128.000000
670.104111	3107.550000
672.413596	3173.750000
674.724497	3215.450000
677.032805	3167.000000
679.340525	3231.100000
681.649659	3250.300000
683.954201	3273.750000
686.258157	3294.900000
688.561527	3316.400000
690.866311	3339.100000
693.166508	3356.250000
695.468121	3409.600000
697.769148	3393.000000
700.065594	3429.450000
702.363455	3468.300000
704.660732	3482.400000
706.957426	3507.900000
709.249544	3518.150000
711.545073	3528.950000
713.836028	3582.650000
716.128398	3590.200000
718.418193	3634.400000
720.707407	3634.750000
722.996042	3677.950000
725.282104	3672.100000
727.569581	3745.350000
729.854486	3729.300000
732.138814	3755.150000
734.420573	3819.300000
736.703746	3799.400000
738.986342	3814.850000
741.264382	3869.550000
743.543837	3887.600000
745.822715	3934.900000
748.101019	3934.450000
750.374773	4010.700000
752.649940	4027.450000
754.924534	4051.000000
757.196569	4078.700000
759.470017	4108.150000
761.740907	4147.000000
764.009241	4168.250000
766.278988	4206.000000
768.546180	4231.850000
770.812803	4273.350000
773.078855	4324.450000
775.342356	4335.950000
777.607270	4333.800000
779.871614	4411.800000
782.131429	4399.750000
784.392656	4403.700000
786.653316	4451.700000
788.911430	4504.450000
791.166999	4505.550000
793.425959	4555.550000
795.678419	4571.650000
797.936247	4557.150000
800.189556	4603.600000
802.440325	4583.600000
804.692506	4616.550000
806.942148	4654.750000
809.193202	4670.100000
811.439746	4656.850000
813.687701	4686.050000
815.933122	4757.500000
818.179954	4704.350000
820.426225	4687.750000
822.667991	4738.750000
824.913141	4770.450000
827.151818	4770.750000
829.393877	4792.800000
831.631438	4806.800000
833.870411	4859.250000
836.106857	4827.800000
838.344714	4890.550000
840.580046	4866.050000
842.812855	4968.400000
845.047074	4999.800000
847.278772	5060.550000
849.509915	5114.450000
851.740503	5117.100000
853.970537	5175.100000
856.200017	5217.900000
858.425015	5335.900000
860.653388	5365.550000
862.877281	5431.700000
865.102586	5524.650000
867.323415	5585.200000
869.547616	5644.950000
871.767344	5706.650000
873.988482	5822.550000
876.209070	5912.300000
878.427149	6028.300000
880.646637	6120.950000
882.861659	6149.150000
885.076133	6248.700000
887.290060	6315.100000
889.503440	6373.000000
891.716272	6374.450000
893.928558	6399.550000
896.138341	6450.550000
898.347579	6402.850000
900.556272	6455.150000
902.762465	6413.750000
904.970069	6395.400000
907.175174	6351.600000
909.379736	6328.400000
911.581803	6186.100000
913.785279	6155.600000
915.986261	6113.950000
918.186701	5980.300000
920.388550	5909.100000
922.584008	5726.800000
924.782825	5643.650000
926.977203	5522.200000
929.174939	5362.500000
931.368239	5282.300000
933.562948	5196.400000
935.755171	5067.400000
937.946855	4999.750000
940.138002	4932.400000
942.326666	4859.850000
944.514794	4842.100000
946.700441	4782.600000
948.889440	4779.650000
951.074016	4736.100000
953.258057	4726.300000
955.445448	4658.950000
957.624535	4713.900000
959.806973	4694.600000
961.988877	4730.250000
964.168306	4679.150000
966.345263	4722.550000
968.523628	4723.000000
970.703400	4741.900000
972.876823	4695.750000
975.053592	4676.350000
977.225954	4654.800000
979.399724	4645.600000
981.569090	4533.300000
983.741800	4539.850000
985.912045	4491.850000
988.081760	4421.350000
990.250948	4380.250000
992.415738	4288.900000
994.583869	4256.800000
996.747605	4205.250000
998.912749	4128.700000
1001.075433	4093.850000
1003.237592	4034.500000
1005.397294	4002.750000
1007.556471	3906.700000
1009.717055	3843.250000
1011.875184	3810.750000
1014.032790	3731.200000
1016.189872	3678.250000
1018.346430	3628.000000
1020.498609	3602.400000
1022.652195	3533.700000
1024.805259	3533.000000
1026.955874	3461.600000
1029.107896	3441.850000
1031.255544	3396.400000
1033.406524	3378.150000
1035.553133	3346.000000
1037.699223	3342.900000
1039.844795	3319.500000
1041.991772	3259.150000
1044.132460	3232.150000
1046.276478	3194.500000
1048.418055	3211.900000
1050.559115	3139.450000
1052.701581	3137.500000
1054.837766	3158.450000
1056.977278	3113.200000
1059.112435	3083.200000
1061.250916	3078.950000
1063.385043	3051.600000
1065.518657	3021.400000
1067.653675	2982.000000
1069.784345	2980.100000
1071.916419	2966.500000
1074.046064	2962.950000
1076.175197	2921.450000
1078.303818	2883.450000
1080.431928	2872.250000
1082.557612	2844.900000
1084.682786	2808.900000
1086.809364	2792.100000
1088.931604	2770.650000
1091.055249	2728.300000
1093.174559	2712.400000
1095.299098	2662.500000
1097.417393	2667.900000
1099.537092	2620.350000
1101.654372	2603.650000
1103.771145	2556.000000
1105.887413	2551.200000
1108.001264	2484.250000
1110.116520	2485.600000
1112.227452	2422.950000
1114.341697	2400.150000
1116.451621	2387.550000
1118.562949	2367.400000
1120.673772	2305.800000
1122.780279	2293.350000
1124.890095	2280.900000
1126.995598	2227.400000
1129.102503	2227.500000
1131.203193	2185.350000
1133.309095	2186.700000
1135.410688	2163.650000
1137.513684	2133.950000
1139.616179	2088.800000
1141.712467	2090.300000
1143.813962	2052.800000
1145.911155	2049.900000
1148.007850	2002.950000
1150.104046	1982.550000
1152.199744	1973.650000
1154.294945	1979.250000
1156.387749	1912.800000
1158.481955	1920.500000
1160.569970	1913.500000
1162.663184	1892.700000
1164.750209	1892.850000
1166.840533	1835.400000
1168.926569	1848.000000
1171.015904	1823.450000
1173.099057	1805.600000
1175.183612	1805.000000
1177.269569	1775.650000
1179.351244	1778.850000
1181.434320	1768.950000
1183.515011	1757.850000
1185.595211	1749.700000
1187.674919	1724.900000
1189.754136	1726.350000
1191.830971	1742.650000
1193.905424	1711.550000
1195.983170	1696.600000
1198.056646	1727.150000
1200.131522	1703.550000
1202.202131	1681.950000
1204.274141	1679.100000
1206.343775	1682.850000
1208.414810	1666.750000
1210.485358	1670.150000
1212.551644	1667.850000
1214.619331	1688.300000
1216.684646	1661.950000
1218.751361	1646.800000
1220.813820	1649.450000
1222.879564	1668.900000
1224.941054	1656.000000
1227.003945	1672.650000
1229.064468	1657.750000
1231.124507	1664.850000
1233.184063	1648.000000
1235.241255	1653.500000
1237.297965	1670.100000
1239.352311	1658.450000
1241.409939	1649.500000
1243.465203	1660.800000
1245.516228	1656.050000
1247.568652	1658.650000
1249.620596	1656.700000
1251.670182	1652.500000
1253.719289	1673.150000
1255.767917	1664.850000
1257.816067	1686.550000
1259.863739	1660.850000
1261.907180	1656.750000
1263.953897	1650.950000
1265.998260	1658.000000
1268.042147	1670.250000
1270.083682	1653.350000
1272.122868	1661.200000
1274.165327	1673.900000
1276.203563	1676.250000
1278.243198	1669.700000
1280.282358	1678.450000
1282.317299	1680.200000
1284.353639	1675.350000
1286.387635	1653.250000
1288.423028	1698.300000
1290.454209	1667.250000
1292.486787	1670.050000
1294.518894	1680.250000
1296.548660	1675.750000
1298.579823	1661.250000
1300.606780	1679.150000
1302.635134	1665.900000
1304.659283	1645.300000
1306.686698	1677.950000
1308.709910	1648.800000
1310.734520	1661.300000
1312.756796	1642.200000
1314.780468	1678.750000
1316.801808	1671.700000
1318.822681	1674.200000
1320.843086	1676.900000
1322.859298	1694.450000
1324.876907	1673.050000
1326.892188	1678.300000
1328.910728	1714.450000
1330.925079	1712.750000
1332.937103	1715.800000
1334.952386	1724.750000
1336.963483	1700.000000
1338.975977	1691.200000
1340.984288	1721.000000
1342.995854	1722.250000
1345.001382	1727.700000
1347.010165	1733.700000
1349.014770	1726.250000
1351.022629	1731.550000
1353.030026	1759.100000
1355.031392	1737.750000
1357.034154	1745.350000
1359.036457	1729.400000
1361.038300	1737.800000
1363.039683	1734.050000
1365.038753	1733.950000
1367.037364	1736.500000
1369.035516	1754.750000
1371.033211	1721.250000
1373.026743	1752.500000
1375.021670	1742.350000
1377.016141	1748.100000
1379.010155	1757.550000
1381.001862	1763.550000
1382.993113	1754.950000
1384.982059	1769.750000
1386.972401	1750.100000
1388.962287	1724.200000
1390.949869	1769.850000
1392.936998	1764.700000
1394.921825	1761.800000
1396.908047	1759.400000
1398.891968	1748.850000
1400.875437	1731.200000
1402.858454	1755.550000
1404.839173	1753.550000
1406.821286	1778.150000
1408.801103	1772.950000
1410.780468	1744.750000
1412.755695	1771.100000
1414.734160	1739.950000
1416.710332	1752.400000
1418.686054	1759.050000
1420.661328	1744.250000
1422.634310	1769.000000
1424.606844	1758.600000
1426.578930	1735.800000
1428.550569	1710.800000
1430.518079	1743.500000
1432.490663	1754.750000
1434.455441	1728.050000
1436.425292	1742.100000
1438.391019	1735.850000
1440.358138	1729.350000
1442.322974	1714.000000
1444.283690	1716.900000
1446.249474	1729.700000
1448.209303	1731.400000
1450.170526	1730.100000
1452.133140	1748.800000
1454.091640	1706.250000
1456.049698	1721.450000
1458.007314	1737.750000
1459.964487	1709.050000
1461.919385	1721.700000
1463.875676	1716.300000
1465.829692	1703.250000
1467.783267	1717.450000
1469.734570	1710.800000
1471.687265	1711.900000
1473.637689	1708.950000
1475.587674	1696.750000
1477.537220	1701.700000
1479.484497	1706.600000
1481.429506	1687.450000
1483.375908	1736.000000
1485.321872	1697.650000
1487.267399	1739.950000
1489.210660	1692.100000
1491.153486	1710.200000
1493.094047	1714.450000
1495.036001	1703.800000
1496.975692	1701.200000
1498.914948	1719.050000
1500.853770	1702.400000
1502.790332	1683.900000
1504.728285	1696.000000
1506.663979	1721.150000
1508.599240	1726.750000
1510.532244	1692.950000
1512.464817	1694.350000
1514.396956	1691.350000
1516.328664	1709.350000
1518.258119	1721.450000
1520.188964	1704.450000
1522.119377	1700.550000
1524.045718	1695.750000
1525.973449	1712.300000
1527.898931	1709.600000
1529.823983	1706.400000
1531.748606	1715.650000
1533.672799	1720.350000
1535.594746	1691.750000
1537.518083	1715.700000
1539.439173	1697.450000
1541.358019	1693.300000
1543.278255	1733.350000
1545.196248	1699.800000
1547.113813	1714.000000
1549.029138	1719.250000
1550.945852	1704.100000
1552.858511	1705.050000
1554.774373	1730.750000
1556.687997	1726.400000
1558.599382	1698.450000
1560.512157	1707.500000
1562.420882	1722.150000
1564.330996	1731.400000
1566.240687	1682.350000
1568.149955	1700.650000
1570.056989	1700.600000
1571.961790	1694.250000
1573.867979	1701.900000
1575.771938	1692.550000
1577.675475	1689.400000
1579.578592	1670.050000
1581.479479	1711.850000
1583.381755	1694.550000
1585.281803	1681.400000
1587.183238	1697.750000
1589.080640	1680.650000
1590.977623	1680.500000
1592.874188	1663.850000
1594.772140	1680.850000
1596.664258	1698.250000
1598.559570	1658.400000
1600.454464	1702.250000
1602.347136	1677.150000
1604.239391	1654.000000
1606.129427	1675.650000
1608.019047	1680.100000
1609.908252	1674.500000
1611.797041	1672.450000
1613.683614	1694.800000
1615.571574	1694.900000
1617.455517	1669.750000
1619.340847	1682.500000
1621.225764	1697.650000
1623.108467	1652.050000
1624.992557	1672.050000
1626.872635	1693.800000
1628.754101	1681.900000
1630.633356	1694.850000
1632.513997	1686.900000
1634.388834	1686.350000
1636.268652	1712.300000
1638.144466	1703.400000
1640.019869	1665.450000
1641.896658	1680.650000
1643.767651	1665.900000
1645.641825	1671.950000
1647.512000	1674.500000
1649.385356	1652.400000
1651.256509	1655.600000
1653.125461	1676.150000
1654.995797	1683.000000
1656.862141	1653.550000
1658.729870	1676.000000
1660.595400	1665.850000
1662.462316	1650.150000
1664.325242	1659.050000
1666.189555	1649.450000
1668.051671	1660.900000
1669.913382	1651.050000
1671.776479	1643.450000
1673.637380	1685.600000
1675.496089	1662.400000
1677.354394	1658.050000
1679.214083	1655.650000
1681.068006	1655.900000
1682.925102	1651.100000
1684.781794	1669.200000
1686.634511	1644.750000
1688.490399	1654.850000
1690.342313	1663.850000
1692.193826	1668.750000
1694.044938	1643.600000
1695.895649	1627.700000
1697.745960	1642.800000
1699.594087	1625.650000
1701.443598	1630.300000
1703.287359	1644.100000
1705.136071	1644.500000
1706.979036	1637.700000
1708.825168	1646.700000
1710.667337	1638.600000
1712.512672	1634.350000
1714.352266	1645.500000
1716.193244	1631.100000
1718.035605	1632.000000
1719.874010	1640.200000
1721.713798	1618.500000
1723.551410	1616.100000
1725.388628	1625.050000
1727.223672	1644.100000
1729.060099	1626.050000
1730.894353	1623.900000
1732.728214	1624.000000
1734.561680	1611.800000
1736.391200	1623.550000
1738.223880	1612.500000
1740.052615	1601.050000
1741.884507	1596.550000
1743.712457	1604.800000
1745.540015	1599.300000
1747.367182	1595.300000
1749.193957	1617.650000
1751.020340	1591.200000
1752.842787	1595.500000
1754.668389	1603.600000
1756.490056	1589.850000
1758.313104	1590.550000
1760.133992	1600.350000
1761.954491	1596.200000
1763.776370	1599.250000
1765.592550	1607.950000
1767.411883	1620.350000
1769.227287	1611.050000
1771.045843	1592.500000
1772.860473	1629.000000
1774.674716	1585.800000
1776.488573	1575.650000
1778.302043	1589.550000
1780.113360	1589.750000
1781.926057	1585.350000
1783.738369	1613.400000
1785.546762	1587.800000
1787.356537	1583.750000
1789.162397	1583.000000
1790.971402	1596.200000
1792.776494	1590.250000
1794.582967	1580.750000
1796.389056	1585.900000
1798.191234	1573.250000
1799.996557	1588.400000
1801.797971	1586.350000
1803.600765	1586.250000
1805.399653	1592.100000
1807.199922	1582.800000
1808.999809	1552.800000
1810.797554	1567.300000
1812.594919	1567.150000
1814.391903	1576.100000
1816.188508	1575.950000
1817.982973	1591.300000
1819.778817	1564.550000
1821.569006	1566.450000
1823.364092	1555.450000
1825.153525	1557.100000
1826.946096	1562.600000
1828.736531	1535.850000
1830.524832	1531.400000
1832.316267	1538.050000
1834.102058	1541.250000
1835.889228	1531.650000
1837.674266	1523.600000
1839.462438	1508.900000
1841.246724	1524.450000
1843.028880	1491.650000
1844.812416	1519.700000
1846.593823	1529.500000
1848.376609	1527.050000
1850.155514	1521.050000
1851.935798	1516.850000
1853.713957	1529.550000
1855.493494	1525.250000
1857.270905	1529.800000
1859.046194	1536.850000
1860.822860	1537.750000
1862.597404	1525.850000
1864.373325	1533.300000
1866.143627	1515.450000
1867.917056	1549.550000
1869.688365	1541.800000
1871.459303	1544.100000
1873.231619	1526.000000
1874.998321	1547.000000
1876.768148	1520.950000
1878.534112	1526.800000
1880.303200	1528.000000
1882.068426	1544.500000
1883.833284	1507.700000
1885.599519	1503.900000
1887.361895	1523.700000
1889.123903	1491.500000
1890.885545	1496.650000
1892.646819	1520.750000
1894.407727	1515.900000
1896.168268	1507.300000
1897.926699	1534.800000
1899.684764	1501.750000
1901.440722	1504.450000
1903.198056	1496.700000
1904.955025	1496.100000
1906.709887	1497.150000
1908.462645	1498.100000
1910.215038	1481.700000
1911.968808	1507.050000
1913.720474	1473.350000
1915.470038	1487.150000
1917.220977	1463.050000
1918.971553	1487.900000
1920.718291	1470.300000
1922.466404	1494.700000
1924.212419	1485.250000
1925.959808	1484.800000
1927.705100	1484.250000
1929.448294	1479.150000
1931.192863	1491.600000
1932.935336	1489.300000
1934.677450	1477.800000
1936.419203	1491.250000
1938.160596	1450.400000
1939.899896	1468.550000
1941.638837	1479.550000
1943.377419	1489.250000
1945.113910	1472.150000
1946.850043	1474.950000
1948.587550	1477.750000
1950.321235	1475.700000
1952.056295	1480.000000
1953.789266	1470.250000
1955.521881	1506.250000
1957.254140	1479.750000
1958.986042	1503.800000
1960.715858	1488.650000
1962.443589	1498.800000
1964.172695	1507.100000
1965.901445	1507.800000
1967.628113	1484.500000
1969.354426	1496.050000
1971.082112	1480.450000
1972.804262	1480.000000
1974.529513	1482.050000
1976.250957	1498.250000
1977.975501	1475.350000
1979.697966	1475.750000
1981.416628	1486.350000
1983.138388	1490.450000
1984.856346	1475.150000
1986.575677	1480.150000
1988.291209	1454.550000
1990.011561	1461.950000
1991.728115	1481.800000
1993.440872	1472.100000
1995.156725	1481.450000
1996.870506	1459.500000
1998.583937	1458.400000
2000.295297	1458.200000
2002.008029	1461.700000
2003.716971	1463.700000
2005.429005	1455.200000
2007.135530	1437.300000
2008.845148	1472.450000
2010.552698	1458.550000
2012.259901	1459.400000
2013.965038	1453.450000
2015.669829	1429.850000
2017.375991	1425.850000
2019.078371	1456.000000
2020.782122	1442.350000
2022.483811	1449.900000
2024.185154	1425.450000
2025.886153	1420.800000
2027.585090	1425.750000
2029.285399	1427.350000
2030.981932	1402.800000
2032.679837	1450.700000
2034.375684	1428.350000
2036.074616	1431.400000
2037.768062	1418.800000
2039.462879	1416.500000
2041.157354	1423.250000
2042.848060	1416.400000
2044.541850	1420.050000
2046.231873	1428.750000
2047.923267	1405.800000
2049.612608	1429.100000
2051.303319	1411.150000
2052.990267	1398.700000
2054.676876	1392.000000
2056.364854	1413.550000
2058.049073	1393.650000
2059.734663	1398.050000
2061.419912	1404.900000
2063.103114	1368.250000
2064.787686	1394.700000
2066.466794	1388.900000
2068.150689	1369.250000
2069.829122	1367.550000
2071.510633	1376.150000
2073.188392	1366.900000
2074.865815	1388.950000
2076.544607	1363.450000
2078.221357	1372.300000
2079.896064	1379.700000
2081.572142	1372.700000
2083.246178	1354.300000
2084.919880	1369.750000
2086.593246	1337.050000
2088.264573	1351.350000
2089.935566	1342.800000
2091.606225	1351.350000
2093.276550	1330.700000
2094.946541	1354.000000
2096.614496	1358.050000
2098.282117	1327.200000
2099.947705	1340.200000
2101.614661	1361.200000
2103.279584	1335.800000
2104.944175	1353.650000
2106.606734	1358.150000
2108.270661	1372.800000
2109.932557	1335.050000
2111.594123	1352.750000
2113.255357	1364.400000
2114.914563	1338.350000
2116.573438	1345.950000
2118.231984	1357.700000
2119.890199	1360.100000
2121.544692	1348.500000
2123.202249	1321.950000
2124.859476	1342.100000
2126.512983	1323.650000
2128.167857	1332.050000
2129.819012	1350.750000
2131.473230	1336.750000
2133.123730	1330.900000
2134.775598	1347.650000
2136.422057	1343.700000
2138.073271	1317.900000
2139.720771	1345.800000
2141.369638	1334.000000
2143.016486	1329.150000
2144.663009	1327.750000
2146.309206	1352.000000
2147.951695	1321.350000
2149.597241	1318.800000
2151.239082	1334.250000
2152.883979	1309.600000
2154.525170	1303.850000
2156.166038	1297.750000
2157.806583	1296.800000
2159.445115	1297.350000
2161.085013	1311.350000
2162.721211	1323.250000
2164.358775	1291.350000
2165.996017	1302.950000
2167.631249	1275.550000
2169.266159	1307.750000
2170.900748	1282.550000
2172.535016	1308.550000
2174.165590	1283.250000
2175.799216	1292.350000
2177.429150	1293.850000
2179.060449	1291.650000
2180.689743	1297.800000
2182.318718	1304.500000
2183.947373	1295.450000
2185.575709	1289.450000
2187.202043	1285.000000
2188.828057	1271.250000
2190.452071	1267.500000
2192.077450	1275.900000
2193.700828	1268.250000
2195.325571	1265.300000
2196.946633	1280.950000
2198.567378	1251.450000
2200.189487	1255.750000
2201.809599	1247.200000
2203.427715	1241.150000
2205.045515	1249.600000
2206.663000	1231.450000
2208.280169	1264.900000
2209.897023	1233.150000
2211.513561	1232.700000
2213.128107	1233.350000
2214.740660	1249.600000
2216.354577	1247.700000
2217.966503	1258.450000
2219.579792	1203.850000
2221.191091	1251.550000
2222.800400	1228.450000
2224.411073	1244.700000
2226.019757	1227.700000
2227.628128	1253.500000
2229.234513	1234.450000
2230.842260	1222.100000
2232.448022	1250.800000
2234.053472	1238.500000
2235.656937	1219.600000
2237.261765	1237.750000
2238.864609	1225.150000
2240.465470	1238.050000
2242.067694	1224.900000
2243.667936	1236.950000
2245.269540	1235.400000
2246.867491	1217.850000
2248.466805	1253.700000
2250.064139	1253.750000
2251.661165	1219.250000
2253.259553	1233.200000
2254.854292	1231.900000
2256.447054	1236.850000
2258.041179	1224.450000
2259.636665	1251.050000
2261.228506	1232.900000
2262.820041	1222.250000
2264.412938	1207.400000
2266.000525	1218.700000
2267.592808	1230.350000
2269.179785	1239.350000
2270.769789	1197.750000
2272.354489	1222.050000
2273.943883	1215.800000
2275.527974	1210.150000
2277.113427	1192.100000
2278.696911	1201.200000
2280.283420	1209.400000
2281.866296	1196.250000
2283.448869	1179.200000
2285.031138	1198.150000
2286.609777	1197.850000
2288.191441	1186.400000
2289.769476	1192.800000
2291.350534	1177.300000
2292.927965	1177.575000
2294.503433	1177.850000
2296.081923	1160.700000
2297.656789	1169.000000
2299.231354	1173.700000
2300.805618	1159.600000
2302.379583	1177.550000
2303.953246	1179.850000
2305.526610	1143.600000
2307.096355	1152.600000
2308.665801	1138.600000
2310.238265	1168.800000
2311.805455	1158.800000
2313.375663	1140.500000
2314.942256	1144.700000
2316.510209	1130.150000
2318.076206	1167.850000
2319.641906	1141.550000
2321.207308	1159.650000
2322.770757	1151.400000
2324.335565	1162.000000
2325.896765	1177.350000
2327.460979	1168.850000
2329.019931	1162.050000
2330.581897	1162.950000
2332.141913	1137.600000
2333.701633	1145.700000
2335.259405	1137.200000
2336.816881	1142.400000
2338.374063	1147.650000
2339.929297	1151.650000
2341.484238	1139.750000
2343.038884	1145.800000
2344.593237	1133.600000
2346.147296	1151.750000
2347.701062	1143.400000
2349.252883	1120.650000
2350.802762	1147.550000
2352.355648	1128.800000
2353.903291	1135.150000
2355.453943	1124.550000
2357.001003	1132.250000
2358.549421	1132.100000
2360.097548	1106.800000
2361.642086	1143.000000
2363.187982	1120.350000
2364.731940	1115.250000
2366.277254	1139.350000
2367.818985	1125.600000
2369.362072	1132.550000
2370.903223	1132.950000
2372.444085	1123.550000
2373.984658	1119.400000
2375.524942	1113.550000
2377.064937	1100.300000
2378.601354	1123.150000
2380.140772	1107.750000
2381.676612	1132.900000
2383.213810	1094.200000
2384.747432	1123.600000
2386.284054	1105.550000
2387.818746	1102.300000
2389.351508	1100.750000
2390.883983	1100.450000
2392.414530	1097.500000
2393.948075	1094.250000
2395.476409	1107.500000
2397.006099	1123.450000
2398.535504	1114.400000
2400.064624	1096.950000
2401.593458	1107.000000
2403.117088	1124.100000
2404.645353	1116.050000
2406.168416	1121.950000
2407.696112	1103.700000
2409.216969	1110.200000
2410.742458	1119.300000
2412.264388	1109.250000
2413.787672	1100.850000
2415.309036	1108.600000
2416.828480	1088.800000
2418.349279	1115.950000
2419.868159	1099.100000
2421.386758	1115.000000
2422.903439	1094.700000
2424.421474	1098.300000
2425.939228	1101.850000
2427.453430	1108.000000
2428.967353	1099.000000
2430.480995	1088.150000
2431.995992	1095.600000
2433.507440	1097.550000
2435.020242	1108.400000
2436.531132	1094.500000
2438.041743	1093.850000
2439.550442	1072.250000
2441.062127	1079.950000
2442.570269	1093.950000
2444.078133	1066.000000
2445.585718	1078.850000
2447.089764	1083.900000
2448.596794	1053.500000
2450.101916	1079.600000
2451.606761	1069.900000
2453.109699	1050.150000
2454.612361	1041.000000
2456.114746	1058.100000
2457.615226	1032.100000
2459.117059	1046.100000
2460.616987	1045.400000
2462.116640	1048.750000
2463.616018	1029.500000
2465.113493	1029.150000
2466.609066	1035.350000
2468.107619	1030.700000
2469.602644	1025.600000
2471.099021	1023.350000
2472.591872	1032.550000
2474.086076	1022.300000
2475.580006	1019.100000
2477.070412	1026.200000
2478.563796	1008.300000
2480.055282	1002.300000
2481.544871	1035.000000
2483.034188	1023.400000
2484.521609	1012.600000
2486.012006	1004.600000
2487.498885	1028.400000
2488.987115	1000.850000
2490.471828	1019.650000
2491.956272	1009.250000
2493.442066	1013.800000
2494.925969	1008.700000
2496.411222	1020.000000
2497.891342	998.600000
2499.374435	1012.700000
2500.855637	1013.650000
2502.336570	1010.850000
2503.815614	1008.550000
2505.294389	1011.250000
2506.772896	1013.650000
2508.251135	1003.750000
2509.729105	1013.100000
2511.203570	998.300000
2512.681005	1009.150000
2514.154936	1019.100000
2515.630217	1012.050000
2517.105231	992.200000
2518.576744	1006.850000
2520.049608	1029.100000
2521.520589	995.100000
2522.992920	1008.550000
2524.460137	1023.500000
2525.930321	1008.650000
2527.398624	1011.300000
2528.866662	1001.350000
2530.334435	1017.850000
2531.801943	1002.300000
2533.269186	1009.000000
2534.732937	1008.850000
2536.198038	988.000000
2537.661262	1012.400000
2539.125835	1003.850000
2540.586920	1016.700000
2542.049354	1011.100000
2543.511525	1007.650000
2544.970210	1008.550000
2546.433466	1010.800000
2547.891626	1015.300000
2549.351136	999.550000
2550.805551	983.100000
2552.264537	1002.750000
2553.721651	997.650000
2555.176893	996.800000
2556.631875	989.450000
2558.084988	990.550000
2559.539448	984.100000
2560.992040	973.950000
2562.444372	990.250000
2563.894837	992.100000
2565.348257	992.000000
2566.796595	988.100000
2568.247888	983.650000
2569.697316	993.400000
2571.143271	976.550000
2572.592181	1000.200000
2574.037621	994.450000
2575.484408	992.000000
2576.929332	983.200000
2578.373999	981.900000
2579.820013	961.800000
2581.262561	981.700000
2582.706456	976.250000
2584.146885	964.750000
2585.588663	959.350000
2587.028581	982.500000
2588.469846	969.250000
2589.907649	971.400000
2591.348402	952.150000
2592.784093	967.000000
2594.222732	952.050000
2595.659515	968.200000
2597.094442	976.200000
2598.532316	973.950000
2599.965133	968.300000
2601.399297	974.400000
2602.831607	977.000000
2604.265263	963.650000
2605.697066	970.900000
2607.128615	975.250000
2608.559912	939.950000
2609.989356	972.050000
2611.418548	965.650000
2612.845890	974.600000
2614.274577	943.600000
2615.703013	956.250000
2617.128001	955.600000
2618.554336	942.350000
2619.978822	975.150000
2621.404654	955.550000
2622.827042	953.100000
2624.250776	965.450000
2625.672663	954.300000
2627.094300	942.650000
2628.514093	945.750000
2629.935231	956.100000
2631.356119	952.950000
2632.773568	937.700000
2634.193958	935.100000
2635.610910	935.950000
2637.027613	955.250000
2638.444068	937.050000
2639.860275	942.450000
2641.276234	948.450000
2642.690352	954.750000
2644.104222	950.650000
2645.516253	928.000000
2646.929629	943.300000
2648.339575	954.950000
2649.752457	942.350000
2651.161910	938.550000
2652.571117	940.850000
2653.978488	946.300000
2655.388793	946.200000
2656.797263	943.000000
2658.203897	969.950000
2659.610286	953.550000
2661.014841	934.600000
2662.420740	925.750000
2663.824806	931.450000
2665.228627	938.150000
2666.632204	932.900000
2668.033950	945.400000
2669.437039	939.150000
2670.836710	939.150000
2672.237725	934.000000
2673.635324	919.950000
2675.035852	933.600000
2676.432966	931.600000
2677.831423	942.750000
2679.228053	928.650000
2680.624440	941.050000
2682.020585	928.000000
2683.414904	928.500000
2684.810566	932.100000
2686.202819	910.050000
2687.596414	917.200000
2688.988185	930.550000
2690.381299	938.900000
2691.772589	907.000000
2693.162056	926.950000
2694.551283	922.800000
2695.940271	914.800000
2697.330600	903.050000
2698.715946	913.400000
2700.104215	907.100000
2701.490664	913.400000
2702.876874	910.700000
2704.262845	908.650000
2705.645418	899.550000
2707.029333	913.550000
2708.413010	898.300000
2709.796448	893.600000
2711.176491	920.950000
2712.557876	904.200000
2713.937446	913.950000
2715.318356	907.800000
2716.697452	892.450000
2718.074734	908.750000
2719.453357	903.450000
2720.830166	899.500000
2722.206740	915.200000
2723.583078	909.950000
2724.957604	911.300000
2726.333471	902.150000
2727.705952	912.600000
2729.081348	882.550000
2730.451784	908.300000
2731.823561	892.400000
2733.195103	902.400000
2734.564837	881.800000
2735.935911	905.950000
2737.305178	892.500000
2738.674211	890.850000
2740.041438	897.300000
2741.408431	900.300000
2742.775192	889.450000
2744.141720	880.150000
2745.506444	891.100000
2746.870935	885.250000
2748.235195	878.050000
2749.599222	887.250000
2750.963018	896.500000
2752.323440	901.350000
2753.686772	885.050000
2755.045162	885.000000
2756.406462	887.600000
2757.764392	874.250000
2759.125230	875.600000
2760.484268	875.850000
2761.839939	870.150000
2763.198517	876.850000
2764.553728	857.350000
2765.908710	862.150000
2767.261895	850.050000
2768.617987	863.550000
2769.970715	866.900000
2771.323215	850.900000
2772.675486	870.450000
2774.029095	875.250000
2775.379344	866.750000
2776.727798	879.500000
2778.079157	855.150000
2779.427158	867.450000
2780.776496	853.200000
2782.124042	863.000000
2783.471362	863.850000
2784.818455	862.800000
2786.163756	845.300000
2787.508832	853.900000
2788.853682	844.750000
2790.198306	853.450000
2791.539578	837.750000
2792.882187	844.450000
2794.224572	864.350000
2795.566731	872.800000
2796.905541	842.250000
2798.247251	859.100000
2799.585612	842.900000
2800.925311	845.050000
2802.263225	851.250000
2803.599353	855.950000
2804.935259	858.300000
2806.272502	862.450000
2807.607961	836.350000
2808.943197	870.800000
2810.276650	851.250000
2811.611440	851.150000
2812.942890	848.350000
2814.277235	840.700000
2815.606682	837.950000
2816.937465	853.750000
2818.268028	836.400000
2819.596811	854.150000
2820.926930	835.500000
2822.255271	845.000000
2823.583391	851.350000
2824.909733	831.650000
2826.237412	831.250000
2827.561757	818.750000
2828.887439	844.350000
2830.211345	852.400000
2831.535031	834.200000
2832.860053	821.150000
2834.181746	835.600000
2835.503220	840.400000
2836.824475	826.850000
2838.145511	832.200000
2839.464774	825.450000
2840.785373	813.900000
2842.104200	836.200000
2843.422810	848.850000
2844.739648	808.550000
2846.056269	816.200000
2847.372673	830.450000
2848.687307	822.400000
2850.003277	802.600000
2851.315926	821.000000
2852.629910	824.250000
2853.943678	829.650000
2855.257229	819.400000
2856.569014	828.800000
2857.879032	818.950000
2859.190385	814.650000
2860.498423	809.000000
2861.807795	841.100000
2863.116952	844.650000
2864.425895	816.900000
2865.733073	836.450000
2867.038489	830.100000
2868.345238	844.900000
2869.650226	810.350000
2870.954999	801.950000
2872.258012	827.600000
2873.563905	810.100000
2874.864944	840.200000
2876.167317	825.650000
2877.467930	833.850000
2878.769877	823.050000
2880.071610	820.850000
2881.370040	817.000000
2882.669803	813.250000
2883.967809	817.050000
2885.265603	835.450000
2886.561641	829.450000
2887.859012	839.150000
2889.154627	808.750000
2890.450031	824.250000
2891.745224	813.650000
2893.037120	814.700000
2894.331892	818.600000
2895.623367	821.250000
2896.916175	811.750000
2898.208773	819.400000
2899.498077	832.300000
2900.788713	797.000000
2902.077598	818.300000
2903.367815	818.550000
2904.654741	800.500000
2905.942999	809.550000
2907.229508	814.300000
2908.515808	812.800000
2909.801900	788.900000
2911.086245	804.800000
2912.373460	794.650000
2913.655849	792.950000
2914.939570	798.550000
2916.221545	784.400000
2917.503312	795.650000
2918.783334	790.700000
2920.066227	792.750000
2921.347374	800.250000
2922.625239	797.400000
2923.905973	783.100000
2925.183426	799.400000
2926.460673	786.600000
2927.736178	783.200000
2929.014551	788.550000
2930.288110	793.450000
2931.564536	795.950000
2932.839221	777.050000
2934.112165	793.550000
2935.386441	773.300000
2936.658977	787.400000
2937.931308	786.900000
2939.200367	781.600000
2940.472291	776.700000
2941.742477	785.750000
2943.012459	776.600000
2944.282238	803.950000
2945.550281	779.750000
2946.816587	785.950000
2948.082691	778.500000
2949.350126	788.400000
2950.615825	790.550000
2951.881323	785.650000
2953.146618	777.300000
2954.408648	804.500000
2955.672008	784.950000
2956.935167	773.750000
2958.196594	768.600000
2959.459350	759.050000
2960.720374	776.050000
2961.979668	765.100000
2963.238761	763.300000
2964.497655	757.650000
2965.756348	782.700000
2967.014841	769.600000
2968.271604	754.750000
2969.528169	780.450000
2970.783005	769.850000
2972.039171	776.350000
2973.292082	774.450000
2974.546321	764.350000
2975.800362	774.700000
2977.052677	768.650000
2978.304794	777.250000
2979.555186	769.850000
2980.808433	765.450000
2982.056903	767.150000
2983.308228	765.050000
2984.556303	760.650000
2985.804181	759.650000
2987.051863	761.500000
2988.299347	771.350000
2989.545110	762.100000
2990.790677	753.200000
2992.037571	764.500000
2993.281221	760.350000
2994.526199	776.800000
2995.767933	748.350000
2997.012519	766.950000
2998.255386	767.700000
2999.495012	764.000000
3000.737488	768.850000
3001.976724	769.500000
3003.217288	752.200000
3004.456135	767.200000
3005.694788	755.250000
3006.931725	770.450000
3008.169990	745.750000
3009.406539	773.600000
3010.642895	772.450000
3011.879057	762.600000
3013.113505	757.450000
3014.347760	755.350000
3015.581823	757.250000
3016.814172	752.150000
3018.044810	739.750000
3019.278294	730.950000
3020.510067	754.000000
3021.740129	742.800000
3022.969998	744.400000
3024.198158	769.500000
3025.427645	749.550000
3026.655422	759.650000
3027.883008	754.050000
3029.111920	752.000000
3030.336090	747.750000
3031.563104	761.950000
3032.786893	754.700000
3034.012009	760.750000
3035.235418	737.100000
3036.458637	742.350000
3037.680151	746.850000
3038.904506	720.650000
3040.124126	746.900000
3041.345072	745.700000
3042.565829	733.300000
3043.784882	754.300000
3045.005260	735.250000
3046.222422	743.900000
3047.440910	743.500000
3048.657695	730.250000
3049.874293	737.600000
3051.090702	737.900000
3052.303898	730.000000
3053.519933	749.250000
3054.732755	724.600000
3055.948413	731.750000
3057.159350	739.450000
3058.371611	736.200000
3059.583685	740.350000
3060.795573	719.100000
3062.005764	715.000000
3063.215768	744.150000
3064.425586	726.850000
3065.633708	731.750000
3066.841645	745.800000
3068.047886	731.950000
3069.255452	737.700000
3070.461323	726.100000
3071.667009	714.500000
3072.872511	744.700000
3074.076319	727.750000
3075.281451	729.200000
3076.484890	746.350000
3077.686638	715.000000
3078.888201	732.900000
3080.089581	722.650000
3081.290777	705.250000
3082.490283	739.950000
3083.689606	735.250000
3084.890252	717.200000
3086.089208	721.450000
3087.284970	719.050000
3088.483560	717.150000
3089.678958	740.200000
3090.875678	731.200000
3092.069206	723.150000
3093.265562	711.200000
3094.460231	715.600000
3095.651710	717.200000
3096.847521	717.200000
3098.038637	715.500000
3099.231077	710.600000
3100.420329	710.200000
3101.612406	702.100000
3102.802800	702.300000
3103.990008	726.150000
3105.178538	707.650000
3106.368391	733.600000
3107.555060	712.100000
3108.741548	716.850000
3109.927858	712.350000
3111.115489	714.550000
3112.299938	708.950000
3113.482708	711.600000
3114.668300	699.200000
3115.852213	710.750000
3117.034447	696.700000
3118.216502	711.500000
3119.398379	718.450000
3120.580078	716.800000
3121.760100	709.700000
3122.938445	707.900000
3124.119610	710.250000
3125.297600	698.000000
3126.475413	709.750000
3127.653049	710.000000
3128.829010	700.750000
3130.004795	698.750000
3131.181901	690.300000
3132.357332	706.800000
3133.531090	711.300000
3134.703175	708.000000
3135.876582	697.200000
3137.049812	700.250000
3138.221371	702.550000
3139.394250	701.550000
3140.563962	694.400000
3141.734995	684.200000
3142.904358	706.550000
3144.072050	702.100000
3145.242558	697.050000
3146.408408	706.900000
3147.578566	707.750000
3148.744068	703.050000
3149.909395	705.300000
3151.074549	713.100000
3152.239530	708.400000
3153.405830	701.850000
3154.567478	697.600000
3155.730445	674.900000
3156.893240	676.850000
3158.055862	689.250000
3159.216818	664.800000
3160.377603	694.800000
3161.538215	678.550000
3162.697163	673.950000
3163.855940	659.100000
3165.014544	677.150000
3166.172977	681.500000
3167.331239	665.950000
3168.487838	666.450000
3169.642776	677.100000
3170.799033	668.100000
3171.953629	664.750000
3173.108055	676.200000
3174.260821	679.100000
3175.413416	670.250000
3176.565842	694.550000
3177.718098	667.300000
3178.870183	672.250000
3180.019122	676.150000
3181.170869	680.300000
3182.320957	679.550000
3183.469389	689.850000
3184.617651	673.050000
3185.765745	685.250000
3186.913670	679.750000
3188.059939	687.650000
3189.206040	672.750000
3190.350487	688.100000
3191.494766	684.400000
3192.638877	682.250000
3193.784305	669.450000
3194.926595	677.300000
3196.068718	689.900000
3197.210673	683.200000
3198.352461	659.050000
3199.494082	671.600000
3200.632568	667.550000
3201.772371	664.250000
3202.913491	669.850000
3204.051478	679.200000
3205.187815	657.150000
3206.323986	677.700000
3207.461474	679.350000
3208.597314	669.400000
3209.734471	673.700000
3210.867015	665.100000
3212.003841	671.550000
3213.136055	669.100000
3214.269586	678.550000
3215.402953	663.550000
3216.533192	666.200000
3217.666229	653.700000
3218.796140	659.000000
3219.927367	669.800000
3221.055470	660.400000
3222.186369	653.650000
3223.315624	664.900000
3224.443236	645.400000
3225.567725	671.200000
3226.696490	659.200000
3227.822133	661.100000
3228.947613	638.950000
3230.071452	637.950000
3231.198086	648.950000
3232.320122	645.400000
3233.443474	633.650000
3234.566664	645.950000
3235.689691	660.750000
3236.811080	652.000000
3237.932306	649.700000
3239.051894	638.000000
3240.171321	650.600000
3241.289111	651.050000
3242.409692	631.150000
3243.527160	651.700000
3244.644467	657.400000
3245.761614	648.750000
3246.877124	650.550000
3247.993950	661.250000
3249.107666	662.600000
3250.224171	658.100000
3251.339042	666.800000
3252.450803	671.650000
3253.562406	659.050000
3254.675324	670.000000
3255.788082	659.850000
3256.897734	672.600000
3258.008701	650.700000
3259.119509	654.350000
3260.228685	657.050000
3261.336230	659.200000
3262.445090	662.550000
3263.553792	648.200000
3264.659391	651.600000
3265.766304	675.100000
3266.871588	639.150000
3267.978186	653.750000
3269.081684	672.950000
3270.186496	655.250000
3271.291151	657.050000
3272.392708	639.100000
3273.494108	665.050000
3274.596822	672.200000
3275.699380	648.050000
3276.798841	664.500000
3277.901086	668.850000
3279.000235	668.650000
3280.097760	649.600000
3281.195129	664.900000
3282.295280	661.700000
3283.392339	651.350000
3284.489242	665.850000
3285.585990	656.350000
3286.678179	645.100000
3287.774618	644.900000
3288.869434	656.300000
3289.964096	652.500000
3291.057136	650.950000
3292.150021	659.800000
3293.241286	655.150000
3294.333864	639.850000
3295.424822	666.200000
3296.514160	645.900000
3297.603345	647.000000
3298.693842	637.200000
3299.781256	649.450000
3300.868516	632.700000
3301.957089	641.750000
3303.045509	656.250000
3304.129383	642.200000
3305.217498	632.000000
3306.302531	639.850000
3307.385949	656.200000
3308.470679	614.850000
3309.553793	639.900000
3310.638220	655.450000
3311.719568	626.600000
3312.802228	651.050000
3313.883274	628.450000
3314.964168	642.250000
3316.043450	632.550000
3317.122581	626.150000
3318.203024	622.950000
3319.280392	642.900000
3320.359072	621.600000
3321.436140	626.850000
3322.513059	625.550000
3323.588366	647.450000
3324.663524	640.650000
3325.739993	644.750000
3326.813392	657.950000
3327.886641	626.000000
3328.961202	651.000000
3330.034154	635.400000
3331.105497	644.850000
3332.178151	653.050000
3333.247739	631.200000
3334.318637	627.650000
3335.387928	633.800000
3336.458529	640.550000
3337.527525	614.050000
3338.594914	630.650000
3339.660698	627.750000
3340.730708	642.600000
3341.797655	623.350000
3342.861540	637.950000
3343.928192	627.900000
3344.993241	631.800000
3346.056686	631.600000
3347.119985	622.450000
3348.183137	616.550000
3349.246143	632.100000
3350.309003	624.950000
3351.370261	611.250000
3352.428462	626.400000
3353.490883	614.550000
3354.550249	622.500000
3355.609469	615.750000
3356.669998	630.350000
3357.726019	647.600000
3358.784803	639.100000
3359.839080	640.250000
3360.896121	637.450000
3361.951563	621.250000
3363.008315	612.150000
3364.063468	643.550000
3365.117024	623.550000
3366.168984	619.100000
3367.223705	618.950000
3368.275377	636.750000
3369.326906	618.100000
3370.379743	627.050000
3371.429533	633.600000
3372.480632	630.100000
3373.528684	614.150000
3374.579497	627.200000
3375.627264	609.650000
3376.674889	620.600000
3377.722372	605.100000
3378.768262	629.850000
3379.815460	618.550000
3380.859616	612.700000
3381.906530	621.400000
3382.951852	618.900000
3383.994133	616.500000
3385.036273	635.950000
3386.079722	615.050000
3387.123029	621.500000
3388.164746	612.650000
3389.206323	599.150000
3390.247758	624.850000
3391.287605	614.600000
3392.325863	622.950000
3393.365429	625.900000
3394.404855	636.200000
3395.442693	620.100000
3396.478944	618.550000
3397.515056	617.100000
3398.552475	634.700000
3399.586861	592.150000
3400.622554	605.550000
3401.658108	609.900000
3402.690631	609.700000
3403.725906	606.200000
3404.758152	626.300000
3405.790259	628.850000
3406.820782	619.450000
3407.852612	614.050000
3408.884304	620.300000
3409.912968	611.600000
3410.941495	621.350000
3411.971328	617.000000
3413.001024	623.800000
3414.027694	626.550000
3415.055670	611.150000
3416.080623	628.850000
3417.108325	617.450000
3418.133003	628.850000
3419.158989	614.100000
3420.183394	622.400000
3421.207663	623.450000
3422.230353	619.400000
3423.252907	612.800000
3424.276767	622.200000
3425.297607	617.800000
3426.318311	610.750000
3427.340322	609.350000
3428.359314	612.850000
3429.378170	607.400000
3430.398333	615.350000
3431.415479	599.600000
