-117.841134	16.700000
-115.171534	10.700000
-112.504869	20.050000
-109.838956	12.650000
-107.175976	18.550000
-104.511565	13.700000
-101.850085	15.850000
-99.187176	21.300000
-96.529373	25.650000
-93.870141	13.550000
-91.211657	16.700000
-88.556098	6.150000
-85.899109	20.750000
-83.247219	12.050000
-80.593899	20.250000
-77.943498	6.400000
-75.291669	12.050000
-72.644930	9.850000
-69.996761	15.500000
-67.349335	17.550000
-64.704824	22.550000
-62.058883	9.450000
-59.418024	13.700000
-56.775736	16.050000
-54.136357	18.850000
-51.495548	17.100000
-48.855480	21.800000
-46.220485	16.300000
-43.584060	22.050000
-40.950538	31.500000
-38.315588	9.900000
-35.685703	25.750000
-33.052226	20.350000
-30.423811	25.050000
-27.796130	15.350000
-25.167020	26.400000
-22.542967	20.950000
-19.915325	15.500000
-17.292737	35.250000
-14.670879	33.450000
-12.049752	46.150000
-9.429356	91.650000
-6.811847	283.750000
-4.192910	770.500000
-1.576858	1773.800000
1.038465	1977.050000
3.653060	962.750000
6.264774	140.050000
8.877916	38.100000
11.486024	37.800000
14.097713	28.600000
16.704373	23.750000
19.312460	18.750000
21.919823	24.450000
24.522161	22.500000
27.128077	23.900000
29.728971	26.150000
32.331293	21.700000
34.928597	23.350000
37.529478	26.500000
40.125343	27.800000
42.722637	12.850000
45.319211	28.000000
47.910776	15.050000
50.503769	19.950000
53.093901	17.300000
55.685460	26.100000
58.274161	31.250000
60.864288	22.300000
63.449416	29.900000
66.035972	30.000000
68.621814	17.500000
71.204802	30.600000
73.789216	23.100000
76.366502	29.200000
78.947354	37.600000
81.525357	34.600000
84.102650	27.200000
86.681369	30.450000
89.255106	17.450000
91.830271	37.600000
94.402592	30.900000
96.974205	31.750000
99.542978	42.650000
102.113178	48.150000
104.680539	35.200000
107.249327	43.550000
109.815278	57.450000
112.378394	78.900000
114.945066	86.650000
117.502516	121.950000
120.065653	157.850000
122.623829	223.000000
125.185560	324.450000
127.742334	464.050000
130.300534	707.350000
132.853782	1038.250000
135.406332	1526.950000
137.962432	2127.050000
140.513584	2779.750000
143.064039	3474.000000
145.613796	3913.700000
148.160734	4300.950000
150.706977	4517.700000
153.254645	4618.450000
155.801617	4705.300000
158.343654	4677.900000
160.884997	4661.700000
163.425647	4620.550000
165.967723	4612.150000
168.506987	4649.850000
171.043442	4596.950000
173.579207	4608.650000
176.116397	4588.000000
178.652896	4563.800000
181.186589	4559.250000
183.717478	4550.750000
186.247679	4579.300000
188.779306	4557.950000
191.308131	4556.650000
193.834157	4555.450000
196.359497	4527.450000
198.886262	4570.800000
201.410231	4536.900000
203.933515	4542.550000
206.456113	4531.650000
208.975919	4557.400000
211.495042	4511.600000
214.013483	4539.850000
216.533347	4492.000000
219.046210	4531.000000
221.562604	4523.900000
224.078316	4553.500000
226.589138	4539.750000
229.101385	4576.250000
231.610849	4564.100000
234.119635	4586.200000
236.627743	4591.450000
239.137275	4607.100000
241.641926	4634.750000
244.145901	4608.250000
246.651300	4626.050000
249.151824	4669.800000
251.655871	4641.650000
254.152948	4692.700000
256.653548	4695.800000
259.151376	4707.750000
261.648531	4667.600000
264.145013	4705.050000
266.636632	4673.400000
269.131771	4711.050000
271.624143	4695.050000
274.115845	4736.950000
276.604784	4690.400000
279.095146	4698.750000
281.582747	4694.800000
284.067588	4702.600000
286.555944	4669.550000
289.037360	4701.800000
291.522290	4708.050000
294.002375	4703.750000
296.485972	4703.600000
298.964726	4741.450000
301.444903	4731.800000
303.922329	4760.500000
306.399091	4757.950000
308.875189	4698.600000
311.348540	4696.250000
313.821228	4742.250000
316.293255	4744.350000
318.764621	4803.600000
321.233242	4836.500000
323.701204	4854.000000
326.170589	4798.350000
328.635151	4774.400000
331.103217	4774.800000
333.566463	4798.450000
336.029051	4800.100000
338.490983	4766.450000
340.952258	4793.150000
343.410798	4775.250000
345.870762	4753.700000
348.327992	4743.350000
350.784568	4725.750000
353.240490	4752.450000
355.693682	4672.100000
358.148297	4679.450000
360.598110	4618.250000
363.051419	4625.350000
365.499929	4612.900000
367.947789	4556.450000
370.397071	4575.900000
372.841559	4520.800000
375.287469	4494.100000
377.732729	4438.000000
380.175271	4442.700000
382.617165	4429.850000
385.058412	4367.050000
387.496943	4352.350000
389.936895	4323.750000
392.374134	4314.500000
394.808662	4300.050000
397.246677	4268.100000
399.679915	4233.800000
402.114574	4212.750000
404.544461	4222.850000
406.977833	4202.700000
409.406435	4209.900000
411.834395	4190.550000
414.263777	4145.950000
416.688393	4148.900000
419.114431	4179.100000
421.539828	4142.550000
423.964585	4133.600000
426.384584	4169.650000
428.806003	4188.700000
431.224727	4166.250000
433.644871	4160.650000
436.062320	4202.600000
438.481189	4145.300000
440.897365	4167.700000
443.308793	4155.950000
445.723698	4159.800000
448.135914	4137.250000
450.547495	4170.700000
452.958442	4188.750000
455.366703	4180.550000
457.774331	4145.400000
460.181327	4199.150000
462.587692	4136.100000
464.991374	4124.450000
467.394426	4163.400000
469.796848	4129.450000
472.198640	4166.700000
474.597754	4145.750000
476.998288	4118.550000
479.398193	4140.300000
481.793376	4113.100000
484.192025	4137.800000
486.585953	4093.250000
488.979256	4142.350000
491.371934	4119.100000
493.763986	4133.300000
496.157456	4081.000000
498.546214	4093.350000
500.932306	4106.600000
503.319818	4081.100000
505.706707	4083.500000
508.090932	4069.650000
510.476575	4071.050000
512.859557	4029.450000
515.239878	4031.000000
517.621618	4085.200000
520.000699	4046.500000
522.381198	4051.800000
524.759041	4053.200000
527.134227	4101.100000
529.508797	4031.850000
531.884784	4049.750000
534.258119	4050.500000
536.632871	4000.600000
539.002937	4020.600000
541.372389	3992.200000
543.743258	3982.350000
546.109446	3957.400000
548.477053	3947.700000
550.842015	3910.800000
553.206363	3878.750000
555.570098	3876.250000
557.935251	3864.200000
560.295732	3839.200000
562.657631	3822.800000
565.016889	3787.200000
567.373509	3792.300000
569.733575	3755.200000
572.086949	3720.300000
574.443768	3730.550000
576.797952	3687.450000
579.151527	3649.850000
581.504495	3620.900000
583.854830	3604.400000
586.206583	3621.950000
588.551659	3557.900000
590.902198	3569.300000
593.246065	3546.750000
595.595393	3525.800000
597.940072	3533.750000
600.282127	3522.950000
602.625599	3492.300000
604.966448	3514.000000
607.306694	3476.700000
609.644320	3492.050000
611.985381	3499.800000
614.321805	3487.200000
616.659645	3467.850000
618.994868	3460.450000
621.327475	3479.950000
623.661498	3506.450000
625.992907	3532.400000
628.323718	3530.600000
630.653931	3494.400000
632.983547	3480.500000
635.308539	3495.000000
637.638973	3532.050000
639.964786	3515.650000
642.287991	3519.150000
644.612613	3528.650000
646.934629	3522.150000
649.256051	3509.600000
651.574870	3526.450000
653.895106	3533.650000
656.214748	3536.400000
658.531789	3560.800000
660.848238	3594.000000
663.162089	3572.750000
665.477356	3591.650000
667.790026	3651.250000
670.104111	3619.000000
672.413596	3671.000000
674.724497	3672.950000
677.032805	3644.800000
679.340525	3681.000000
681.649659	3698.800000
683.954201	3754.750000
686.258157	3733.250000
688.561527	3758.600000
690.866311	3769.100000
693.166508	3757.900000
695.468121	3786.450000
697.769148	3836.050000
700.065594	3848.600000
702.363455	3867.950000
704.660732	3878.050000
706.957426	3871.850000
709.249544	3864.000000
711.545073	3883.900000
713.836028	3987.400000
716.128398	3989.800000
718.418193	3999.300000
720.707407	3990.700000
722.996042	3999.000000
725.282104	4037.950000
727.569581	4066.850000
729.854486	4034.150000
732.138814	4059.200000
734.420573	4084.700000
736.703746	4121.900000
738.986342	4130.750000
741.264382	4156.200000
743.543837	4222.000000
745.822715	4186.400000
748.101019	4234.200000
750.374773	4293.750000
752.649940	4258.150000
754.924534	4325.450000
757.196569	4343.900000
759.470017	4392.100000
761.740907	4399.700000
764.009241	4421.400000
766.278988	4443.750000
768.546180	4451.050000
770.812803	4490.950000
773.078855	4503.750000
775.342356	4545.600000
777.607270	4528.000000
779.871614	4600.200000
782.131429	4563.500000
784.392656	4611.600000
786.653316	4630.500000
788.911430	4676.000000
791.166999	4666.950000
793.425959	4700.550000
795.678419	4691.800000
797.936247	4749.650000
800.189556	4778.900000
802.440325	4759.800000
804.692506	4723.100000
806.942148	4781.100000
809.193202	4825.100000
811.439746	4784.500000
813.687701	4816.150000
815.933122	4837.800000
818.179954	4839.700000
820.426225	4839.200000
822.667991	4882.650000
824.913141	4880.500000
827.151818	4914.400000
829.393877	4897.500000
831.631438	4947.350000
833.870411	4951.350000
836.106857	4923.450000
838.344714	4970.550000
840.580046	4963.800000
842.812855	5002.600000
845.047074	5053.550000
847.278772	5025.850000
849.509915	5115.100000
851.740503	5097.850000
853.970537	5191.800000
856.200017	5192.150000
858.425015	5222.550000
860.653388	5301.450000
862.877281	5317.500000
865.102586	5416.650000
867.323415	5457.150000
869.547616	5493.100000
871.767344	5536.000000
873.988482	5567.450000
876.209070	5677.050000
878.427149	5761.700000
880.646637	5812.700000
882.861659	5917.000000
885.076133	5889.900000
887.290060	5999.650000
889.503440	5983.200000
891.716272	5989.900000
893.928558	6032.350000
896.138341	6100.900000
898.347579	6035.050000
900.556272	6065.850000
902.762465	6103.100000
904.970069	6044.100000
907.175174	5969.350000
909.379736	6035.700000
911.581803	6000.600000
913.785279	5890.050000
915.986261	5832.650000
918.186701	5818.850000
920.388550	5730.400000
922.584008	5692.950000
924.782825	5583.500000
926.977203	5551.950000
929.174939	5434.500000
931.368239	5379.500000
933.562948	5381.350000
935.755171	5247.100000
937.946855	5230.550000
940.138002	5213.150000
942.326666	5177.050000
944.514794	5145.650000
946.700441	5114.200000
948.889440	5099.550000
951.074016	5106.750000
953.258057	5149.100000
955.445448	5124.450000
957.624535	5083.650000
959.806973	5125.550000
961.988877	5134.450000
964.168306	5156.200000
966.345263	5178.200000
968.523628	5140.900000
970.703400	5208.750000
972.876823	5157.100000
975.053592	5108.100000
977.225954	5137.500000
979.399724	5098.750000
981.569090	5066.250000
983.741800	5115.050000
985.912045	5053.900000
988.081760	4998.950000
990.250948	4973.800000
992.415738	4949.550000
994.583869	4971.700000
996.747605	4867.250000
998.912749	4838.750000
1001.075433	4831.250000
1003.237592	4780.650000
1005.397294	4808.050000
1007.556471	4725.400000
1009.717055	4687.350000
1011.875184	4640.200000
1014.032790	4601.800000
1016.189872	4596.800000
1018.346430	4525.500000
1020.498609	4521.050000
1022.652195	4530.750000
1024.805259	4493.200000
1026.955874	4470.600000
1029.107896	4429.600000
1031.255544	4436.600000
1033.406524	4441.200000
1035.553133	4408.750000
1037.699223	4403.400000
1039.844795	4377.300000
1041.991772	4346.800000
1044.132460	4340.200000
1046.276478	4311.250000
1048.418055	4328.800000
1050.559115	4288.450000
1052.701581	4311.750000
1054.837766	4310.900000
1056.977278	4257.850000
1059.112435	4294.000000
1061.250916	4289.950000
1063.385043	4208.900000
1065.518657	4220.650000
1067.653675	4228.100000
1069.784345	4212.200000
1071.916419	4212.350000
1074.046064	4190.300000
1076.175197	4189.100000
1078.303818	4135.750000
1080.431928	4160.050000
1082.557612	4160.800000
1084.682786	4117.650000
1086.809364	4160.450000
1088.931604	4126.200000
1091.055249	4155.650000
1093.174559	4089.500000
1095.299098	4052.650000
1097.417393	4064.200000
1099.537092	4065.650000
1101.654372	4051.950000
1103.771145	4020.350000
1105.887413	4060.700000
1108.001264	4015.600000
1110.116520	3966.900000
1112.227452	3981.700000
1114.341697	3942.900000
1116.451621	3960.450000
1118.562949	3900.150000
1120.673772	3884.050000
1122.780279	3882.050000
1124.890095	3895.850000
1126.995598	3867.700000
1129.102503	3871.550000
1131.203193	3825.750000
1133.309095	3862.450000
1135.410688	3829.950000
1137.513684	3834.750000
1139.616179	3812.100000
1141.712467	3776.300000
1143.813962	3792.300000
1145.911155	3780.600000
1148.007850	3770.250000
1150.104046	3745.800000
1152.199744	3730.600000
1154.294945	3754.600000
1156.387749	3757.100000
1158.481955	3731.950000
1160.569970	3743.450000
1162.663184	3712.300000
1164.750209	3702.400000
1166.840533	3689.000000
1168.926569	3711.550000
1171.015904	3724.750000
1173.099057	3678.700000
1175.183612	3689.050000
1177.269569	3698.850000
1179.351244	3637.000000
1181.434320	3686.550000
1183.515011	3660.350000
1185.595211	3658.600000
1187.674919	3655.100000
1189.754136	3674.800000
1191.830971	3664.850000
1193.905424	3681.300000
1195.983170	3662.050000
1198.056646	3663.250000
1200.131522	3683.700000
1202.202131	3660.950000
1204.274141	3704.100000
1206.343775	3719.300000
1208.414810	3684.850000
1210.485358	3685.500000
1212.551644	3678.400000
1214.619331	3678.500000
1216.684646	3723.700000
1218.751361	3714.350000
1220.813820	3703.050000
1222.879564	3709.050000
1224.941054	3699.150000
1227.003945	3748.350000
1229.064468	3697.950000
1231.124507	3698.850000
1233.184063	3702.100000
1235.241255	3741.400000
1237.297965	3762.900000
1239.352311	3752.850000
1241.409939	3704.300000
1243.465203	3761.050000
1245.516228	3752.250000
1247.568652	3771.850000
1249.620596	3747.700000
1251.670182	3763.950000
1253.719289	3768.550000
1255.767917	3754.250000
1257.816067	3804.050000
1259.863739	3815.500000
1261.907180	3771.350000
1263.953897	3791.100000
1265.998260	3808.300000
1268.042147	3815.500000
1270.083682	3818.050000
1272.122868	3799.150000
1274.165327	3783.550000
1276.203563	3825.950000
1278.243198	3827.000000
1280.282358	3848.700000
1282.317299	3869.900000
1284.353639	3839.300000
1286.387635	3896.450000
1288.423028	3857.400000
1290.454209	3879.250000
1292.486787	3839.600000
1294.518894	3910.300000
1296.548660	3892.850000
1298.579823	3894.850000
1300.606780	3886.500000
1302.635134	3880.050000
1304.659283	3912.000000
1306.686698	3912.250000
1308.709910	3888.500000
1310.734520	3959.550000
1312.756796	3926.100000
1314.780468	3929.300000
1316.801808	3928.000000
1318.822681	3921.900000
1320.843086	3930.450000
1322.859298	3940.700000
1324.876907	3913.400000
1326.892188	3930.200000
1328.910728	3952.550000
1330.925079	3965.600000
1332.937103	3946.850000
1334.952386	3973.200000
1336.963483	3936.000000
1338.975977	3945.250000
1340.984288	4009.450000
1342.995854	3933.700000
1345.001382	3956.750000
1347.010165	3977.550000
1349.014770	3947.400000
1351.022629	3958.900000
1353.030026	3999.000000
1355.031392	3960.700000
1357.034154	4022.900000
1359.036457	4001.950000
1361.038300	4022.700000
1363.039683	3991.350000
1365.038753	4022.200000
1367.037364	4035.950000
1369.035516	4039.750000
1371.033211	4010.300000
1373.026743	4046.400000
1375.021670	4011.350000
1377.016141	4013.700000
1379.010155	4037.200000
1381.001862	4045.850000
1382.993113	4027.650000
1384.982059	4060.000000
1386.972401	4010.050000
1388.962287	4045.050000
1390.949869	4037.950000
1392.936998	4036.750000
1394.921825	4055.800000
1396.908047	4051.000000
1398.891968	4030.550000
1400.875437	4051.250000
1402.858454	4096.600000
1404.839173	4106.150000
1406.821286	4094.700000
1408.801103	4071.800000
1410.780468	4076.500000
1412.755695	4102.750000
1414.734160	4083.650000
1416.710332	4104.500000
1418.686054	4133.050000
1420.661328	4120.450000
1422.634310	4122.450000
1424.606844	4158.950000
1426.578930	4132.100000
1428.550569	4160.350000
1430.518079	4131.150000
1432.490663	4165.150000
1434.455441	4130.900000
1436.425292	4147.150000
1438.391019	4150.300000
1440.358138	4148.000000
1442.322974	4143.950000
1444.283690	4137.000000
1446.249474	4135.450000
1448.209303	4147.150000
1450.170526	4165.500000
1452.133140	4164.450000
1454.091640	4160.800000
1456.049698	4171.700000
1458.007314	4188.800000
1459.964487	4171.050000
1461.919385	4193.350000
1463.875676	4212.750000
1465.829692	4184.500000
1467.783267	4211.050000
1469.734570	4204.000000
1471.687265	4182.550000
1473.637689	4180.950000
1475.587674	4155.700000
1477.537220	4187.400000
1479.484497	4167.950000
1481.429506	4165.600000
1483.375908	4184.950000
1485.321872	4153.350000
1487.267399	4199.150000
1489.210660	4137.600000
1491.153486	4186.950000
1493.094047	4173.450000
1495.036001	4178.250000
1496.975692	4154.000000
1498.914948	4150.850000
1500.853770	4183.300000
1502.790332	4164.800000
1504.728285	4217.500000
1506.663979	4234.100000
1508.599240	4208.300000
1510.532244	4164.150000
1512.464817	4156.100000
1514.396956	4212.300000
1516.328664	4158.550000
1518.258119	4200.350000
1520.188964	4155.100000
1522.119377	4163.750000
1524.045718	4143.450000
1525.973449	4196.600000
1527.898931	4139.450000
1529.823983	4161.200000
1531.748606	4184.100000
1533.672799	4162.550000
1535.594746	4133.450000
1537.518083	4130.700000
1539.439173	4149.100000
1541.358019	4171.150000
1543.278255	4192.800000
1545.196248	4143.250000
1547.113813	4181.400000
1549.029138	4193.950000
1550.945852	4175.850000
1552.858511	4126.400000
1554.774373	4152.750000
1556.687997	4168.550000
1558.599382	4151.350000
1560.512157	4149.100000
1562.420882	4190.150000
1564.330996	4184.250000
1566.240687	4146.050000
1568.149955	4154.050000
1570.056989	4180.850000
1571.961790	4163.600000
1573.867979	4163.350000
1575.771938	4161.450000
1577.675475	4145.300000
1579.578592	4148.950000
1581.479479	4189.900000
1583.381755	4157.650000
1585.281803	4205.450000
1587.183238	4189.900000
1589.080640	4166.200000
1590.977623	4200.500000
1592.874188	4174.750000
1594.772140	4192.450000
1596.664258	4182.350000
1598.559570	4152.450000
1600.454464	4187.800000
1602.347136	4206.200000
1604.239391	4155.150000
1606.129427	4181.450000
1608.019047	4176.400000
1609.908252	4153.450000
1611.797041	4157.050000
1613.683614	4143.400000
1615.571574	4224.150000
1617.455517	4161.950000
1619.340847	4178.950000
1621.225764	4193.650000
1623.108467	4141.200000
1624.992557	4154.400000
1626.872635	4195.350000
1628.754101	4202.650000
1630.633356	4181.000000
1632.513997	4187.300000
1634.388834	4194.700000
1636.268652	4179.100000
1638.144466	4141.400000
1640.019869	4167.950000
1641.896658	4156.800000
1643.767651	4142.800000
1645.641825	4200.350000
1647.512000	4207.200000
1649.385356	4164.450000
1651.256509	4181.250000
1653.125461	4151.750000
1654.995797	4122.050000
1656.862141	4150.650000
1658.729870	4138.650000
1660.595400	4125.300000
1662.462316	4128.150000
1664.325242	4144.900000
1666.189555	4068.000000
1668.051671	4117.150000
1669.913382	4102.500000
1671.776479	4076.950000
1673.637380	4123.600000
1675.496089	4094.600000
1677.354394	4046.350000
1679.214083	4080.350000
1681.068006	4060.700000
1682.925102	4060.550000
1684.781794	4099.550000
1686.634511	4039.050000
1688.490399	4075.550000
1690.342313	4070.000000
1692.193826	4032.450000
1694.044938	4018.600000
1695.895649	4043.750000
1697.745960	3988.950000
1699.594087	4023.550000
1701.443598	4032.000000
1703.287359	3990.950000
1705.136071	3999.000000
1706.979036	3985.750000
1708.825168	4003.550000
1710.667337	3992.750000
1712.512672	3965.800000
1714.352266	4003.900000
1716.193244	4004.650000
1718.035605	3986.350000
1719.874010	3970.100000
1721.713798	3961.750000
1723.551410	3955.550000
1725.388628	3948.050000
1727.223672	3960.700000
1729.060099	3963.850000
1730.894353	3952.200000
1732.728214	3918.650000
1734.561680	3954.900000
1736.391200	3954.900000
1738.223880	3925.150000
1740.052615	3950.700000
1741.884507	3912.100000
1743.712457	3948.950000
1745.540015	3891.300000
1747.367182	3931.000000
1749.193957	3945.950000
1751.020340	3898.200000
1752.842787	3926.400000
1754.668389	3916.000000
1756.490056	3926.250000
1758.313104	3921.900000
1760.133992	3910.550000
1761.954491	3938.950000
1763.776370	3933.450000
1765.592550	3904.700000
1767.411883	3905.900000
1769.227287	3886.650000
1771.045843	3920.800000
1772.860473	3929.700000
1774.674716	3897.400000
1776.488573	3890.950000
1778.302043	3918.750000
1780.113360	3891.350000
1781.926057	3873.350000
1783.738369	3916.050000
1785.546762	3884.350000
1787.356537	3906.250000
1789.162397	3873.050000
1790.971402	3900.650000
1792.776494	3908.850000
1794.582967	3874.500000
1796.389056	3855.600000
1798.191234	3875.750000
1799.996557	3878.700000
1801.797971	3889.750000
1803.600765	3900.100000
1805.399653	3863.900000
1807.199922	3878.500000
1808.999809	3806.950000
1810.797554	3838.250000
1812.594919	3819.750000
1814.391903	3803.300000
1816.188508	3824.300000
1817.982973	3813.700000
1819.778817	3796.800000
1821.569006	3825.150000
1823.364092	3798.150000
1825.153525	3792.350000
1826.946096	3795.050000
1828.736531	3752.950000
1830.524832	3736.650000
1832.316267	3750.150000
1834.102058	3764.500000
1835.889228	3754.700000
1837.674266	3746.850000
1839.462438	3732.050000
1841.246724	3712.100000
1843.028880	3730.400000
1844.812416	3708.250000
1846.593823	3697.100000
1848.376609	3723.100000
1850.155514	3701.600000
1851.935798	3690.800000
1853.713957	3694.900000
1855.493494	3684.300000
1857.270905	3665.000000
1859.046194	3688.650000
1860.822860	3675.500000
1862.597404	3662.900000
1864.373325	3638.900000
1866.143627	3659.150000
1867.917056	3665.850000
1869.688365	3656.650000
1871.459303	3662.250000
1873.231619	3630.200000
1874.998321	3661.100000
1876.768148	3628.450000
1878.534112	3643.300000
1880.303200	3645.050000
1882.068426	3649.500000
1883.833284	3634.350000
1885.599519	3628.950000
1887.361895	3639.750000
1889.123903	3588.300000
1890.885545	3622.450000
1892.646819	3594.650000
1894.407727	3586.650000
1896.168268	3606.350000
1897.926699	3627.800000
1899.684764	3566.150000
1901.440722	3596.650000
1903.198056	3578.300000
1904.955025	3559.000000
1906.709887	3523.600000
1908.462645	3530.200000
1910.215038	3530.950000
1911.968808	3562.400000
1913.720474	3509.500000
1915.470038	3510.250000
1917.220977	3478.250000
1918.971553	3488.200000
1920.718291	3492.500000
1922.466404	3494.300000
1924.212419	3513.150000
1925.959808	3504.300000
1927.705100	3527.200000
1929.448294	3500.650000
1931.192863	3497.850000
1932.935336	3510.600000
1934.677450	3501.950000
1936.419203	3490.800000
1938.160596	3472.450000
1939.899896	3495.350000
1941.638837	3470.650000
1943.377419	3503.200000
1945.113910	3492.900000
1946.850043	3501.350000
1948.587550	3509.800000
1950.321235	3483.250000
1952.056295	3484.450000
1953.789266	3518.150000
1955.521881	3508.000000
1957.254140	3501.350000
1958.986042	3503.600000
1960.715858	3510.300000
1962.443589	3456.300000
1964.172695	3483.650000
1965.901445	3458.850000
1967.628113	3496.550000
1969.354426	3488.800000
1971.082112	3482.250000
1972.804262	3476.350000
1974.529513	3488.800000
1976.250957	3470.000000
1977.975501	3465.450000
1979.697966	3483.000000
1981.416628	3469.700000
1983.138388	3488.900000
1984.856346	3455.550000
1986.575677	3459.750000
1988.291209	3449.300000
1990.011561	3438.650000
1991.728115	3491.200000
1993.440872	3467.600000
1995.156725	3451.550000
1996.870506	3429.800000
1998.583937	3444.150000
2000.295297	3417.800000
2002.008029	3422.800000
2003.716971	3400.100000
2005.429005	3439.300000
2007.135530	3416.800000
2008.845148	3398.450000
2010.552698	3392.350000
2012.259901	3401.750000
2013.965038	3395.400000
2015.669829	3402.050000
2017.375991	3373.050000
2019.078371	3348.950000
2020.782122	3375.800000
2022.483811	3377.400000
2024.185154	3383.900000
2025.886153	3369.250000
2027.585090	3385.950000
2029.285399	3375.800000
2030.981932	3357.850000
2032.679837	3366.550000
2034.375684	3371.950000
2036.074616	3355.800000
2037.768062	3335.100000
2039.462879	3327.250000
2041.157354	3378.200000
2042.848060	3344.250000
2044.541850	3361.450000
2046.231873	3341.800000
2047.923267	3326.200000
2049.612608	3343.800000
2051.303319	3315.100000
2052.990267	3293.450000
2054.676876	3293.250000
2056.364854	3280.600000
2058.049073	3273.000000
2059.734663	3248.300000
2061.419912	3251.400000
2063.103114	3213.200000
2064.787686	3247.900000
2066.466794	3213.250000
2068.150689	3228.250000
2069.829122	3178.550000
2071.510633	3217.300000
2073.188392	3215.600000
2074.865815	3213.200000
2076.544607	3182.050000
2078.221357	3199.450000
2079.896064	3202.100000
2081.572142	3184.550000
2083.246178	3183.650000
2084.919880	3157.800000
2086.593246	3145.000000
2088.264573	3149.750000
2089.935566	3149.400000
2091.606225	3128.300000
2093.276550	3167.150000
2094.946541	3150.500000
2096.614496	3139.900000
2098.282117	3127.550000
2099.947705	3128.850000
2101.614661	3133.550000
2103.279584	3118.800000
2104.944175	3160.000000
2106.606734	3114.500000
2108.270661	3168.000000
2109.932557	3150.500000
2111.594123	3142.500000
2113.255357	3130.500000
2114.914563	3119.400000
2116.573438	3117.450000
2118.231984	3160.550000
2119.890199	3153.650000
2121.544692	3106.050000
2123.202249	3142.100000
2124.859476	3120.050000
2126.512983	3102.950000
2128.167857	3110.750000
2129.819012	3119.650000
2131.473230	3099.250000
2133.123730	3113.150000
2134.775598	3104.050000
2136.422057	3083.200000
2138.073271	3079.600000
2139.720771	3090.100000
2141.369638	3115.800000
2143.016486	3069.800000
2144.663009	3067.850000
2146.309206	3086.050000
2147.951695	3073.250000
2149.597241	3076.550000
2151.239082	3064.550000
2152.883979	3069.700000
2154.525170	3044.000000
2156.166038	3048.800000
2157.806583	3025.350000
2159.445115	3050.400000
2161.085013	3036.350000
2162.721211	3032.750000
2164.358775	3010.800000
2165.996017	3012.550000
2167.631249	3007.950000
2169.266159	3010.950000
2170.900748	2978.750000
2172.535016	2992.500000
2174.165590	2969.000000
2175.799216	2977.800000
2177.429150	2996.350000
2179.060449	2955.750000
2180.689743	2964.500000
2182.318718	2961.100000
2183.947373	2931.600000
2185.575709	2921.150000
2187.202043	2913.150000
2188.828057	2912.000000
2190.452071	2908.500000
2192.077450	2908.500000
2193.700828	2889.900000
2195.325571	2892.550000
2196.946633	2896.900000
2198.567378	2886.450000
2200.189487	2863.550000
2201.809599	2862.650000
2203.427715	2878.050000
2205.045515	2845.100000
2206.663000	2846.850000
2208.280169	2843.100000
2209.897023	2848.100000
2211.513561	2857.300000
2213.128107	2841.500000
2214.740660	2853.200000
2216.354577	2836.050000
2217.966503	2842.300000
2219.579792	2835.600000
2221.191091	2853.300000
2222.800400	2830.300000
2224.411073	2852.350000
2226.019757	2814.000000
2227.628128	2815.500000
2229.234513	2832.750000
2230.842260	2806.400000
2232.448022	2824.850000
2234.053472	2825.000000
2235.656937	2808.050000
2237.261765	2812.400000
2238.864609	2822.350000
2240.465470	2813.100000
2242.067694	2812.250000
2243.667936	2816.100000
2245.269540	2804.450000
2246.867491	2829.300000
2248.466805	2799.750000
2250.064139	2834.350000
2251.661165	2792.300000
2253.259553	2784.250000
2254.854292	2798.750000
2256.447054	2784.000000
2258.041179	2755.250000
2259.636665	2776.900000
2261.228506	2762.450000
2262.820041	2764.450000
2264.412938	2747.350000
2266.000525	2753.850000
2267.592808	2740.200000
2269.179785	2760.100000
2270.769789	2753.100000
2272.354489	2732.200000
2273.943883	2739.900000
2275.527974	2720.500000
2277.113427	2708.100000
2278.696911	2701.500000
2280.283420	2713.100000
2281.866296	2653.200000
2283.448869	2674.000000
2285.031138	2678.050000
2286.609777	2686.450000
2288.191441	2667.350000
2289.769476	2667.850000
2291.350534	2661.650000
2292.927965	2645.675000
2294.503433	2629.700000
2296.081923	2652.000000
2297.656789	2637.350000
2299.231354	2598.600000
2300.805618	2627.650000
2302.379583	2614.800000
2303.953246	2621.500000
2305.526610	2581.000000
2307.096355	2573.750000
2308.665801	2581.850000
2310.238265	2582.350000
2311.805455	2559.850000
2313.375663	2565.050000
2314.942256	2583.950000
2316.510209	2548.150000
2318.076206	2590.650000
2319.641906	2556.500000
2321.207308	2603.900000
2322.770757	2519.700000
2324.335565	2573.750000
2325.896765	2581.750000
2327.460979	2561.150000
2329.019931	2577.200000
2330.581897	2627.800000
2332.141913	2572.750000
2333.701633	2529.050000
2335.259405	2582.800000
2336.816881	2552.900000
2338.374063	2550.850000
2339.929297	2556.900000
2341.484238	2559.200000
2343.038884	2549.600000
2344.593237	2551.200000
2346.147296	2557.950000
2347.701062	2552.950000
2349.252883	2542.250000
2350.802762	2527.350000
2352.355648	2538.950000
2353.903291	2540.300000
2355.453943	2520.300000
2357.001003	2531.400000
2358.549421	2494.000000
2360.097548	2516.200000
2361.642086	2496.500000
2363.187982	2484.500000
2364.731940	2497.800000
2366.277254	2486.850000
2367.818985	2459.000000
2369.362072	2484.850000
2370.903223	2469.300000
2372.444085	2466.450000
2373.984658	2484.250000
2375.524942	2466.250000
2377.064937	2449.900000
2378.601354	2465.050000
2380.140772	2457.700000
2381.676612	2446.600000
2383.213810	2427.400000
2384.747432	2452.450000
2386.284054	2452.050000
2387.818746	2420.700000
2389.351508	2412.500000
2390.883983	2462.900000
2392.414530	2441.050000
2393.948075	2444.150000
2395.476409	2446.050000
2397.006099	2433.850000
2398.535504	2431.650000
2400.064624	2429.200000
2401.593458	2410.550000
2403.117088	2421.100000
2404.645353	2423.800000
2406.168416	2427.800000
2407.696112	2414.050000
2409.216969	2369.800000
2410.742458	2387.500000
2412.264388	2403.350000
2413.787672	2407.300000
2415.309036	2396.550000
2416.828480	2433.100000
2418.349279	2401.400000
2419.868159	2401.200000
2421.386758	2398.850000
2422.903439	2364.400000
2424.421474	2396.100000
2425.939228	2356.300000
2427.453430	2357.700000
2428.967353	2384.700000
2430.480995	2362.450000
2431.995992	2352.850000
2433.507440	2358.300000
2435.020242	2386.650000
2436.531132	2385.600000
2438.041743	2358.850000
2439.550442	2333.400000
2441.062127	2349.000000
2442.570269	2320.750000
2444.078133	2332.050000
2445.585718	2315.950000
2447.089764	2325.050000
2448.596794	2286.800000
2450.101916	2335.000000
2451.606761	2313.250000
2453.109699	2275.000000
2454.612361	2287.400000
2456.114746	2310.950000
2457.615226	2281.150000
2459.117059	2241.200000
2460.616987	2252.150000
2462.116640	2257.050000
2463.616018	2245.900000
2465.113493	2229.700000
2466.609066	2244.850000
2468.107619	2229.050000
2469.602644	2227.500000
2471.099021	2215.700000
2472.591872	2208.500000
2474.086076	2225.650000
2475.580006	2234.750000
2477.070412	2193.300000
2478.563796	2218.500000
2480.055282	2202.250000
2481.544871	2218.400000
2483.034188	2215.600000
2484.521609	2214.350000
2486.012006	2194.150000
2487.498885	2213.150000
2488.987115	2218.850000
2490.471828	2208.700000
2491.956272	2173.150000
2493.442066	2215.050000
2494.925969	2195.750000
2496.411222	2207.750000
2497.891342	2184.800000
2499.374435	2202.250000
2500.855637	2166.300000
2502.336570	2221.250000
2503.815614	2171.800000
2505.294389	2196.300000
2506.772896	2195.900000
2508.251135	2179.600000
2509.729105	2197.150000
2511.203570	2199.300000
2512.681005	2187.150000
2514.154936	2191.650000
2515.630217	2190.950000
2517.105231	2178.150000
2518.576744	2160.400000
2520.049608	2205.200000
2521.520589	2151.650000
2522.992920	2160.400000
2524.460137	2172.850000
2525.930321	2154.050000
2527.398624	2184.500000
2528.866662	2169.550000
2530.334435	2147.900000
2531.801943	2143.250000
2533.269186	2160.800000
2534.732937	2161.200000
2536.198038	2152.200000
2537.661262	2170.250000
2539.125835	2175.500000
2540.586920	2173.050000
2542.049354	2149.500000
2543.511525	2157.550000
2544.970210	2170.100000
2546.433466	2160.850000
2547.891626	2181.400000
2549.351136	2167.750000
2550.805551	2131.100000
2552.264537	2154.300000
2553.721651	2148.650000
2555.176893	2157.550000
2556.631875	2121.400000
2558.084988	2126.950000
2559.539448	2146.450000
2560.992040	2136.150000
2562.444372	2134.900000
2563.894837	2139.200000
2565.348257	2123.400000
2566.796595	2123.150000
2568.247888	2122.000000
2569.697316	2111.500000
2571.143271	2139.550000
2572.592181	2122.600000
2574.037621	2128.800000
2575.484408	2122.200000
2576.929332	2098.000000
2578.373999	2124.600000
2579.820013	2116.400000
2581.262561	2111.500000
2582.706456	2065.100000
2584.146885	2114.150000
2585.588663	2077.250000
2587.028581	2070.400000
2588.469846	2085.650000
2589.907649	2070.650000
2591.348402	2076.550000
2592.784093	2073.300000
2594.222732	2069.600000
2595.659515	2084.000000
2597.094442	2089.700000
2598.532316	2044.400000
2599.965133	2088.850000
2601.399297	2055.350000
2602.831607	2052.450000
2604.265263	2061.650000
2605.697066	2049.150000
2607.128615	2048.700000
2608.559912	2026.350000
2609.989356	2051.550000
2611.418548	2021.450000
2612.845890	2032.950000
2614.274577	2018.750000
2615.703013	2013.900000
2617.128001	2030.500000
2618.554336	2024.150000
2619.978822	2016.650000
2621.404654	2012.450000
2622.827042	2022.900000
2624.250776	2000.800000
2625.672663	1998.200000
2627.094300	2007.900000
2628.514093	1986.550000
2629.935231	1993.250000
2631.356119	1995.900000
2632.773568	1970.000000
2634.193958	1987.300000
2635.610910	1987.650000
2637.027613	2001.950000
2638.444068	1962.700000
2639.860275	1995.750000
2641.276234	1956.850000
2642.690352	1986.100000
2644.104222	1971.950000
2645.516253	1973.150000
2646.929629	1975.400000
2648.339575	1956.800000
2649.752457	1970.950000
2651.161910	1964.700000
2652.571117	1970.300000
2653.978488	1968.600000
2655.388793	1972.200000
2656.797263	1939.400000
2658.203897	1959.650000
2659.610286	1935.400000
2661.014841	1960.200000
2662.420740	1934.850000
2663.824806	1936.300000
2665.228627	1942.200000
2666.632204	1913.500000
2668.033950	1951.300000
2669.437039	1938.250000
2670.836710	1926.850000
2672.237725	1947.750000
2673.635324	1923.450000
2675.035852	1940.650000
2676.432966	1941.150000
2677.831423	1937.550000
2679.228053	1928.700000
2680.624440	1933.950000
2682.020585	1929.150000
2683.414904	1902.150000
2684.810566	1912.800000
2686.202819	1941.750000
2687.596414	1902.750000
2688.988185	1922.400000
2690.381299	1932.650000
2691.772589	1897.850000
2693.162056	1899.550000
2694.551283	1892.850000
2695.940271	1894.850000
2697.330600	1883.300000
2698.715946	1883.450000
2700.104215	1887.800000
2701.490664	1875.300000
2702.876874	1909.300000
2704.262845	1874.950000
2705.645418	1904.250000
2707.029333	1892.450000
2708.413010	1870.750000
2709.796448	1883.700000
2711.176491	1881.650000
2712.557876	1866.050000
2713.937446	1893.800000
2715.318356	1856.300000
2716.697452	1884.650000
2718.074734	1855.850000
2719.453357	1845.350000
2720.830166	1861.050000
2722.206740	1881.450000
2723.583078	1889.900000
2724.957604	1877.650000
2726.333471	1864.850000
2727.705952	1881.900000
2729.081348	1847.150000
2730.451784	1857.900000
2731.823561	1886.050000
2733.195103	1833.900000
2734.564837	1847.500000
2735.935911	1854.100000
2737.305178	1841.000000
2738.674211	1870.250000
2740.041438	1833.300000
2741.408431	1853.350000
2742.775192	1833.850000
2744.141720	1836.950000
2745.506444	1834.600000
2746.870935	1857.450000
2748.235195	1834.200000
2749.599222	1855.900000
2750.963018	1861.650000
2752.323440	1841.250000
2753.686772	1819.700000
2755.045162	1815.750000
2756.406462	1823.150000
2757.764392	1817.050000
2759.125230	1784.650000
2760.484268	1805.000000
2761.839939	1800.800000
2763.198517	1786.600000
2764.553728	1777.250000
2765.908710	1769.800000
2767.261895	1770.850000
2768.617987	1780.900000
2769.970715	1770.750000
2771.323215	1776.700000
2772.675486	1768.250000
2774.029095	1765.700000
2775.379344	1750.700000
2776.727798	1770.250000
2778.079157	1750.800000
2779.427158	1742.450000
2780.776496	1735.550000
2782.124042	1756.700000
2783.471362	1748.150000
2784.818455	1754.050000
2786.163756	1721.250000
2787.508832	1724.200000
2788.853682	1707.150000
2790.198306	1712.700000
2791.539578	1712.200000
2792.882187	1728.400000
2794.224572	1715.300000
2795.566731	1715.250000
2796.905541	1714.900000
2798.247251	1725.900000
2799.585612	1723.000000
2800.925311	1714.000000
2802.263225	1720.000000
2803.599353	1716.400000
2804.935259	1726.050000
2806.272502	1720.050000
2807.607961	1713.250000
2808.943197	1728.700000
2810.276650	1703.150000
2811.611440	1726.150000
2812.942890	1718.050000
2814.277235	1711.250000
2815.606682	1677.100000
2816.937465	1713.200000
2818.268028	1709.650000
2819.596811	1709.500000
2820.926930	1686.850000
2822.255271	1705.600000
2823.583391	1696.650000
2824.909733	1692.800000
2826.237412	1684.050000
2827.561757	1683.550000
2828.887439	1677.600000
2830.211345	1682.350000
2831.535031	1685.650000
2832.860053	1675.650000
2834.181746	1675.700000
2835.503220	1661.100000
2836.824475	1661.500000
2838.145511	1673.000000
2839.464774	1648.550000
2840.785373	1666.650000
2842.104200	1661.200000
2843.422810	1660.150000
2844.739648	1669.800000
2846.056269	1651.300000
2847.372673	1661.650000
2848.687307	1661.350000
2850.003277	1653.200000
2851.315926	1636.000000
2852.629910	1651.600000
2853.943678	1629.000000
2855.257229	1621.200000
2856.569014	1636.750000
2857.879032	1635.550000
2859.190385	1632.450000
2860.498423	1608.950000
2861.807795	1647.700000
2863.116952	1659.400000
2864.425895	1646.700000
2865.733073	1642.500000
2867.038489	1637.650000
2868.345238	1645.800000
2869.650226	1635.600000
2870.954999	1620.050000
2872.258012	1662.750000
2873.563905	1652.100000
2874.864944	1661.750000
2876.167317	1642.450000
2877.467930	1651.800000
2878.769877	1650.450000
2880.071610	1643.300000
2881.370040	1654.900000
2882.669803	1653.750000
2883.967809	1617.350000
2885.265603	1629.900000
2886.561641	1638.200000
2887.859012	1637.800000
2889.154627	1610.350000
2890.450031	1617.700000
2891.745224	1617.100000
2893.037120	1636.900000
2894.331892	1616.350000
2895.623367	1618.700000
2896.916175	1619.750000
2898.208773	1607.050000
2899.498077	1622.450000
2900.788713	1604.000000
2902.077598	1593.450000
2903.367815	1600.150000
2904.654741	1604.150000
2905.942999	1609.350000
2907.229508	1601.950000
2908.515808	1595.800000
2909.801900	1595.850000
2911.086245	1596.450000
2912.373460	1597.800000
2913.655849	1595.650000
2914.939570	1589.900000
2916.221545	1580.300000
2917.503312	1563.000000
2918.783334	1592.850000
2920.066227	1583.950000
2921.347374	1588.100000
2922.625239	1588.600000
2923.905973	1586.750000
2925.183426	1577.100000
2926.460673	1558.850000
2927.736178	1542.700000
2929.014551	1565.900000
2930.288110	1570.150000
2931.564536	1568.250000
2932.839221	1566.500000
2934.112165	1552.250000
2935.386441	1554.950000
2936.658977	1560.200000
2937.931308	1536.650000
2939.200367	1557.250000
2940.472291	1563.150000
2941.742477	1548.450000
2943.012459	1543.700000
2944.282238	1544.550000
2945.550281	1520.800000
2946.816587	1536.900000
2948.082691	1510.800000
2949.350126	1537.750000
2950.615825	1543.600000
2951.881323	1541.550000
2953.146618	1543.350000
2954.408648	1525.500000
2955.672008	1507.200000
2956.935167	1530.250000
2958.196594	1540.350000
2959.459350	1509.800000
2960.720374	1522.350000
2961.979668	1517.750000
2963.238761	1510.250000
2964.497655	1529.650000
2965.756348	1538.550000
2967.014841	1520.350000
2968.271604	1519.800000
2969.528169	1524.550000
2970.783005	1503.400000
2972.039171	1524.350000
2973.292082	1525.100000
2974.546321	1518.550000
2975.800362	1529.700000
2977.052677	1489.600000
2978.304794	1502.750000
2979.555186	1516.400000
2980.808433	1516.850000
2982.056903	1512.150000
2983.308228	1500.100000
2984.556303	1520.050000
2985.804181	1475.100000
2987.051863	1472.650000
2988.299347	1492.650000
2989.545110	1482.250000
2990.790677	1481.000000
2992.037571	1517.950000
2993.281221	1478.850000
2994.526199	1479.050000
2995.767933	1470.300000
2997.012519	1499.650000
2998.255386	1475.800000
2999.495012	1457.900000
3000.737488	1467.100000
3001.976724	1481.400000
3003.217288	1453.100000
3004.456135	1493.350000
3005.694788	1467.150000
3006.931725	1483.050000
3008.169990	1475.600000
3009.406539	1483.550000
3010.642895	1482.950000
3011.879057	1484.050000
3013.113505	1473.500000
3014.347760	1445.600000
3015.581823	1465.250000
3016.814172	1451.000000
3018.044810	1452.900000
3019.278294	1462.350000
3020.510067	1453.650000
3021.740129	1466.300000
3022.969998	1457.100000
3024.198158	1462.950000
3025.427645	1445.900000
3026.655422	1480.950000
3027.883008	1453.500000
3029.111920	1450.950000
3030.336090	1443.650000
3031.563104	1471.300000
3032.786893	1438.200000
3034.012009	1456.200000
3035.235418	1436.000000
3036.458637	1450.950000
3037.680151	1453.950000
3038.904506	1444.100000
3040.124126	1455.900000
3041.345072	1459.200000
3042.565829	1421.650000
3043.784882	1454.550000
3045.005260	1432.850000
3046.222422	1421.650000
3047.440910	1436.500000
3048.657695	1412.350000
3049.874293	1425.000000
3051.090702	1410.150000
3052.303898	1442.750000
3053.519933	1420.000000
3054.732755	1423.600000
3055.948413	1410.500000
3057.159350	1429.250000
3058.371611	1428.650000
3059.583685	1410.900000
3060.795573	1425.800000
3062.005764	1415.350000
3063.215768	1419.000000
3064.425586	1407.400000
3065.633708	1433.050000
3066.841645	1447.500000
3068.047886	1402.000000
3069.255452	1407.600000
3070.461323	1403.650000
3071.667009	1399.700000
3072.872511	1422.850000
3074.076319	1402.400000
3075.281451	1422.050000
3076.484890	1424.600000
3077.686638	1404.800000
3078.888201	1413.350000
3080.089581	1415.250000
3081.290777	1419.000000
3082.490283	1408.700000
3083.689606	1396.000000
3084.890252	1393.700000
3086.089208	1375.950000
3087.284970	1397.100000
3088.483560	1379.950000
3089.678958	1381.050000
3090.875678	1377.850000
3092.069206	1376.350000
3093.265562	1370.950000
3094.460231	1382.550000
3095.651710	1386.500000
3096.847521	1378.750000
3098.038637	1371.450000
3099.231077	1385.400000
3100.420329	1369.750000
3101.612406	1358.000000
3102.802800	1343.000000
3103.990008	1373.650000
3105.178538	1369.350000
3106.368391	1357.700000
3107.555060	1364.150000
3108.741548	1349.800000
3109.927858	1359.700000
3111.115489	1345.550000
3112.299938	1356.500000
3113.482708	1339.750000
3114.668300	1340.500000
3115.852213	1348.850000
3117.034447	1369.700000
3118.216502	1357.450000
3119.398379	1361.950000
3120.580078	1347.850000
3121.760100	1352.100000
3122.938445	1342.650000
3124.119610	1333.850000
3125.297600	1318.350000
3126.475413	1331.750000
3127.653049	1330.800000
3128.829010	1339.150000
3130.004795	1348.150000
3131.181901	1329.300000
3132.357332	1351.150000
3133.531090	1331.650000
3134.703175	1315.300000
3135.876582	1311.950000
3137.049812	1348.450000
3138.221371	1329.450000
3139.394250	1319.400000
3140.563962	1310.100000
3141.734995	1311.300000
3142.904358	1346.000000
3144.072050	1335.000000
3145.242558	1323.950000
3146.408408	1350.000000
3147.578566	1328.600000
3148.744068	1313.150000
3149.909395	1335.450000
3151.074549	1326.900000
3152.239530	1327.350000
3153.405830	1314.000000
3154.567478	1318.250000
3155.730445	1301.550000
3156.893240	1311.350000
3158.055862	1290.850000
3159.216818	1279.750000
3160.377603	1283.850000
3161.538215	1271.750000
3162.697163	1288.250000
3163.855940	1267.100000
3165.014544	1277.700000
3166.172977	1271.700000
3167.331239	1270.700000
3168.487838	1261.550000
3169.642776	1268.650000
3170.799033	1257.100000
3171.953629	1272.050000
3173.108055	1267.650000
3174.260821	1259.550000
3175.413416	1260.900000
3176.565842	1247.250000
3177.718098	1266.550000
3178.870183	1253.500000
3180.019122	1264.300000
3181.170869	1279.050000
3182.320957	1275.400000
3183.469389	1268.850000
3184.617651	1259.850000
3185.765745	1284.250000
3186.913670	1272.050000
3188.059939	1277.750000
3189.206040	1269.500000
3190.350487	1288.700000
3191.494766	1280.500000
3192.638877	1273.050000
3193.784305	1280.900000
3194.926595	1264.500000
3196.068718	1277.750000
3197.210673	1274.850000
3198.352461	1260.850000
3199.494082	1252.200000
3200.632568	1262.800000
3201.772371	1257.750000
3202.913491	1248.250000
3204.051478	1269.550000
3205.187815	1250.100000
3206.323986	1257.950000
3207.461474	1255.950000
3208.597314	1260.800000
3209.734471	1254.850000
3210.867015	1255.100000
3212.003841	1247.950000
3213.136055	1236.550000
3214.269586	1240.700000
3215.402953	1210.900000
3216.533192	1224.800000
3217.666229	1231.900000
3218.796140	1195.350000
3219.927367	1218.550000
3221.055470	1189.150000
3222.186369	1201.400000
3223.315624	1193.400000
3224.443236	1196.300000
3225.567725	1184.800000
3226.696490	1208.050000
3227.822133	1189.400000
3228.947613	1184.000000
3230.071452	1205.900000
3231.198086	1177.150000
3232.320122	1178.950000
3233.443474	1188.650000
3234.566664	1194.350000
3235.689691	1187.500000
3236.811080	1183.900000
3237.932306	1165.450000
3239.051894	1180.550000
3240.171321	1178.300000
3241.289111	1176.600000
3242.409692	1172.650000
3243.527160	1199.600000
3244.644467	1194.400000
3245.761614	1197.700000
3246.877124	1209.400000
3247.993950	1202.900000
3249.107666	1214.500000
3250.224171	1213.950000
3251.339042	1232.400000
3252.450803	1226.150000
3253.562406	1199.950000
3254.675324	1216.100000
3255.788082	1219.800000
3256.897734	1202.600000
3258.008701	1192.700000
3259.119509	1201.050000
3260.228685	1191.100000
3261.336230	1202.100000
3262.445090	1175.350000
3263.553792	1207.500000
3264.659391	1174.550000
3265.766304	1201.100000
3266.871588	1188.150000
3267.978186	1197.850000
3269.081684	1187.150000
3270.186496	1197.900000
3271.291151	1187.650000
3272.392708	1165.650000
3273.494108	1182.450000
3274.596822	1198.600000
3275.699380	1189.250000
3276.798841	1196.000000
3277.901086	1209.250000
3279.000235	1194.650000
3280.097760	1195.700000
3281.195129	1185.000000
3282.295280	1171.950000
3283.392339	1192.800000
3284.489242	1164.050000
3285.585990	1165.650000
3286.678179	1166.950000
3287.774618	1160.950000
3288.869434	1160.900000
3289.964096	1172.400000
3291.057136	1156.900000
3292.150021	1160.050000
3293.241286	1154.900000
3294.333864	1152.000000
3295.424822	1169.150000
3296.514160	1145.250000
3297.603345	1143.900000
3298.693842	1145.700000
3299.781256	1136.250000
3300.868516	1148.100000
3301.957089	1147.000000
3303.045509	1137.550000
3304.129383	1159.050000
3305.217498	1150.300000
3306.302531	1142.250000
3307.385949	1114.550000
3308.470679	1123.600000
3309.553793	1145.550000
3310.638220	1138.500000
3311.719568	1123.250000
3312.802228	1141.300000
3313.883274	1117.200000
3314.964168	1130.800000
3316.043450	1127.300000
3317.122581	1098.450000
3318.203024	1118.750000
3319.280392	1116.650000
3320.359072	1130.500000
3321.436140	1132.350000
3322.513059	1116.200000
3323.588366	1105.250000
3324.663524	1118.950000
3325.739993	1131.750000
3326.813392	1106.050000
3327.886641	1100.800000
3328.961202	1137.650000
3330.034154	1093.650000
3331.105497	1118.850000
3332.178151	1111.750000
3333.247739	1102.950000
3334.318637	1101.700000
3335.387928	1108.100000
3336.458529	1099.200000
3337.527525	1117.450000
3338.594914	1090.000000
3339.660698	1076.250000
3340.730708	1105.900000
3341.797655	1105.000000
3342.861540	1110.300000
3343.928192	1087.000000
3344.993241	1075.350000
3346.056686	1077.200000
3347.119985	1083.700000
3348.183137	1079.550000
3349.246143	1076.600000
3350.309003	1075.050000
3351.370261	1086.300000
3352.428462	1060.550000
3353.490883	1067.050000
3354.550249	1047.500000
3355.609469	1082.050000
3356.669998	1080.050000
3357.726019	1069.200000
3358.784803	1070.200000
3359.839080	1094.500000
3360.896121	1099.500000
3361.951563	1095.050000
3363.008315	1076.200000
3364.063468	1104.300000
3365.117024	1084.650000
3366.168984	1072.100000
3367.223705	1065.150000
3368.275377	1066.300000
3369.326906	1064.750000
3370.379743	1074.250000
3371.429533	1068.150000
3372.480632	1063.550000
3373.528684	1060.700000
3374.579497	1092.800000
3375.627264	1071.500000
3376.674889	1075.250000
3377.722372	1061.350000
3378.768262	1054.450000
3379.815460	1058.450000
3380.859616	1071.150000
3381.906530	1069.400000
3382.951852	1054.400000
3383.994133	1059.850000
3385.036273	1081.200000
3386.079722	1053.450000
3387.123029	1077.650000
3388.164746	1050.650000
3389.206323	1045.550000
3390.247758	1058.100000
3391.287605	1059.800000
3392.325863	1040.400000
3393.365429	1054.550000
3394.404855	1045.200000
3395.442693	1038.050000
3396.478944	1063.000000
3397.515056	1054.000000
3398.552475	1058.200000
3399.586861	1024.200000
3400.622554	1014.100000
3401.658108	1051.100000
3402.690631	1042.650000
3403.725906	1044.950000
3404.758152	1050.700000
3405.790259	1052.600000
3406.820782	1039.450000
3407.852612	1059.950000
3408.884304	1036.400000
3409.912968	1035.750000
3410.941495	1040.600000
3411.971328	1023.650000
3413.001024	1049.300000
3414.027694	1039.500000
3415.055670	1036.300000
3416.080623	1034.700000
3417.108325	1027.950000
3418.133003	1070.300000
3419.158989	1040.300000
3420.183394	1037.150000
3421.207663	1039.600000
3422.230353	1051.950000
3423.252907	1028.850000
3424.276767	1035.750000
3425.297607	1019.100000
3426.318311	1025.600000
3427.340322	1030.350000
3428.359314	1024.000000
3429.378170	997.750000
3430.398333	1022.000000
3431.415479	1017.350000
