-117.095864	30.300000
-114.426264	26.050000
-111.759599	16.800000
-109.093686	25.200000
-106.430705	30.100000
-103.766295	30.650000
-101.104815	32.250000
-98.441906	38.200000
-95.784103	30.150000
-93.124871	29.100000
-90.466387	36.950000
-87.810827	28.400000
-85.153839	27.500000
-82.501949	25.650000
-79.848628	25.600000
-77.198228	30.350000
-74.546398	26.200000
-71.899659	38.900000
-69.251491	27.950000
-66.604065	19.750000
-63.959553	31.650000
-61.313613	29.300000
-58.672754	26.950000
-56.030466	31.650000
-53.391086	13.250000
-50.750278	30.300000
-48.110210	32.050000
-45.475214	37.950000
-42.838790	31.650000
-40.205268	34.500000
-37.570318	40.000000
-34.940433	24.450000
-32.306956	41.950000
-29.678541	38.450000
-27.050860	27.700000
-24.421750	43.400000
-21.797697	29.100000
-19.170055	46.150000
-16.547466	49.650000
-13.925609	62.700000
-11.304482	83.800000
-8.684085	157.850000
-6.066577	417.650000
-3.447639	1219.650000
-0.831588	2705.000000
1.783735	3086.400000
4.398331	1637.450000
7.010044	203.150000
9.623186	59.200000
12.231294	53.700000
14.842984	40.650000
17.449643	43.550000
20.057730	54.250000
22.665093	41.900000
25.267431	41.750000
27.873347	52.650000
30.474241	32.150000
33.076563	47.350000
35.673868	37.950000
38.274748	36.250000
40.870614	43.850000
43.467907	39.200000
46.064481	40.950000
48.656046	38.200000
51.249039	46.350000
53.839171	36.350000
56.430731	42.950000
59.019431	40.450000
61.609558	42.500000
64.194687	38.150000
66.781242	43.000000
69.367084	44.150000
71.950072	55.300000
74.534486	44.050000
77.111772	58.850000
79.692624	53.450000
82.270627	44.300000
84.847920	54.200000
87.426639	52.150000
90.000376	49.800000
92.575541	59.100000
95.147862	52.400000
97.719475	61.900000
100.288248	65.550000
102.858448	77.600000
105.425810	79.750000
107.994597	75.850000
110.560548	107.700000
113.123664	101.350000
115.690336	144.100000
118.247787	170.250000
120.810923	245.000000
123.369099	321.150000
125.930830	471.950000
128.487604	712.150000
131.045805	1064.950000
133.599053	1580.200000
136.151602	2367.750000
138.707702	3364.750000
141.258854	4585.650000
143.809309	5688.900000
146.359066	6532.300000
148.906005	7063.100000
151.452247	7268.950000
153.999915	7369.800000
156.546887	7509.850000
159.088924	7433.900000
161.630267	7389.950000
164.170917	7490.000000
166.712993	7353.300000
169.252257	7392.700000
171.788713	7305.150000
174.324477	7386.450000
176.861667	7319.750000
179.398166	7344.550000
181.931859	7319.500000
184.462749	7319.650000
186.992950	7289.700000
189.524576	7270.750000
192.053401	7336.200000
194.579427	7306.400000
197.104767	7293.250000
199.631533	7278.350000
202.155501	7303.650000
204.678785	7311.750000
207.201384	7265.750000
209.721190	7259.600000
212.240313	7298.350000
214.758753	7235.350000
217.278617	7235.150000
219.791480	7269.150000
222.307874	7282.700000
224.823586	7355.150000
227.334408	7267.850000
229.846656	7401.950000
232.356120	7353.650000
234.864906	7356.700000
237.373014	7368.950000
239.882545	7394.500000
242.387196	7467.150000
244.891171	7398.450000
247.396571	7421.550000
249.897095	7473.700000
252.401142	7482.000000
254.898218	7532.150000
257.398818	7557.150000
259.896646	7527.900000
262.393801	7454.500000
264.890283	7547.150000
267.381902	7504.700000
269.877041	7520.800000
272.369414	7471.650000
274.861116	7498.800000
277.350054	7569.850000
279.840417	7582.300000
282.328017	7473.500000
284.812858	7530.050000
287.301214	7569.100000
289.782630	7463.950000
292.267560	7550.700000
294.747645	7579.350000
297.231242	7543.550000
299.709996	7589.700000
302.190174	7630.250000
304.667599	7622.450000
307.144361	7630.850000
309.620460	7581.300000
312.093810	7627.750000
314.566498	7655.000000
317.038525	7629.350000
319.509891	7704.200000
321.978513	7716.000000
324.446475	7786.200000
326.915859	7726.600000
329.380421	7726.600000
331.848487	7677.050000
334.311733	7715.050000
336.774321	7743.600000
339.236253	7670.700000
341.697528	7684.100000
344.156069	7704.250000
346.616032	7670.750000
349.073262	7633.250000
351.529838	7653.800000
353.985760	7613.600000
356.438953	7538.100000
358.893567	7563.400000
361.343380	7544.050000
363.796689	7449.150000
366.245200	7407.400000
368.693060	7375.150000
371.142341	7352.850000
373.586829	7302.150000
376.032739	7240.800000
378.478000	7172.250000
380.920541	7210.700000
383.362435	7181.400000
385.803682	7100.550000
388.242213	7105.650000
390.682166	7066.700000
393.119405	7044.450000
395.553932	6972.550000
397.991947	7007.750000
400.425185	7037.650000
402.859844	6939.750000
405.289731	6944.650000
407.723103	6990.950000
410.151705	6989.650000
412.579666	6863.200000
415.009047	6868.350000
417.433663	6882.550000
419.859701	6854.400000
422.285098	6800.200000
424.709855	6825.500000
427.129854	6811.650000
429.551274	6817.050000
431.969997	6834.500000
434.390141	6798.250000
436.807590	6880.900000
439.226459	6781.300000
441.642635	6864.350000
444.054064	6858.800000
446.468969	6879.000000
448.881184	6828.400000
451.292765	6844.550000
453.703712	6869.500000
456.111973	6844.000000
458.519601	6841.300000
460.926597	6809.000000
463.332962	6823.700000
465.736644	6826.650000
468.139696	6823.200000
470.542118	6772.800000
472.943910	6795.100000
475.343025	6844.450000
477.743559	6827.950000
480.143464	6821.650000
482.538646	6828.850000
484.937295	6830.300000
487.331224	6745.700000
489.724527	6780.050000
492.117204	6742.000000
494.509256	6734.300000
496.902726	6708.900000
499.291485	6718.800000
501.677577	6740.650000
504.065088	6675.250000
506.451977	6697.100000
508.836202	6641.900000
511.221846	6727.750000
513.604827	6745.100000
515.985148	6742.300000
518.366888	6781.150000
520.745969	6697.900000
523.126469	6711.100000
525.504311	6663.650000
527.879498	6714.250000
530.254067	6668.850000
532.630055	6719.150000
535.003389	6702.600000
537.378141	6636.350000
539.748208	6630.350000
542.117659	6663.700000
544.488528	6584.000000
546.854717	6476.500000
549.222324	6504.450000
551.587285	6500.400000
553.951633	6429.850000
556.315369	6407.850000
558.680521	6458.800000
561.041002	6333.250000
563.402901	6339.100000
565.762159	6284.700000
568.118780	6294.600000
570.478845	6262.400000
572.832219	6142.900000
575.189038	6138.400000
577.543222	6105.600000
579.896798	6073.450000
582.249765	6016.850000
584.600101	5923.300000
586.951853	5923.250000
589.296929	5910.900000
591.647469	5862.200000
593.991335	5785.700000
596.340663	5796.750000
598.685343	5784.250000
601.027397	5780.650000
603.370869	5724.700000
605.711718	5745.150000
608.051965	5670.600000
610.389591	5758.700000
612.730652	5689.800000
615.067075	5711.450000
617.404915	5666.700000
619.740138	5705.450000
622.072745	5700.100000
624.406768	5746.500000
626.738178	5806.200000
629.068989	5750.000000
631.399202	5759.750000
633.728817	5727.150000
636.053810	5818.000000
638.384244	5808.500000
640.710056	5757.250000
643.033262	5800.100000
645.357883	5778.850000
647.679899	5777.950000
650.001322	5788.150000
652.320141	5782.250000
654.640376	5762.550000
656.960018	5759.300000
659.277059	5789.150000
661.593508	5774.500000
663.907359	5791.950000
666.222626	5814.750000
668.535296	5847.300000
670.849381	5842.950000
673.158866	5904.950000
675.469767	5889.600000
677.778075	5888.350000
680.085795	5950.600000
682.394929	5945.350000
684.699472	5962.650000
687.003427	5995.400000
689.306797	5992.650000
691.611581	6043.100000
693.911779	6036.400000
696.213391	6135.650000
698.514419	6080.400000
700.810864	6077.050000
703.108725	6135.500000
705.406002	6148.600000
707.702696	6165.750000
709.994814	6215.500000
712.290343	6242.350000
714.581298	6304.950000
716.873668	6322.100000
719.163463	6381.800000
721.452677	6356.500000
723.741312	6386.700000
726.027374	6409.600000
728.314851	6462.900000
730.599756	6453.550000
732.884084	6476.050000
735.165843	6498.500000
737.449016	6515.000000
739.731612	6544.900000
742.009652	6563.450000
744.289107	6609.300000
746.567986	6668.000000
748.846289	6730.800000
751.120043	6784.250000
753.395211	6835.750000
755.669805	6902.400000
757.941839	6889.000000
760.215287	6914.700000
762.486177	6930.550000
764.754511	6949.900000
767.024258	7023.600000
769.291451	6979.250000
771.558073	7066.250000
773.824125	7140.000000
776.087626	7091.700000
778.352540	7136.000000
780.616884	7153.050000
782.876699	7136.550000
785.137926	7224.700000
787.398586	7260.050000
789.656700	7255.650000
791.912269	7217.050000
794.171229	7302.600000
796.423690	7326.000000
798.681517	7253.550000
800.934826	7351.350000
803.185595	7409.050000
805.437776	7330.900000
807.687418	7410.950000
809.938473	7429.750000
812.185016	7399.750000
814.432971	7411.200000
816.678392	7562.500000
818.925224	7484.600000
821.171495	7501.550000
823.413262	7538.800000
825.658411	7588.150000
827.897088	7639.450000
830.139147	7606.950000
832.376708	7680.050000
834.615681	7667.900000
836.852127	7641.300000
839.089984	7710.300000
841.325316	7675.250000
843.558125	7802.150000
845.792345	7808.850000
848.024043	7792.900000
850.255185	7877.250000
852.485774	7970.350000
854.715807	7948.350000
856.945287	8031.400000
859.170285	8113.700000
861.398658	8200.750000
863.622552	8240.850000
865.847856	8308.450000
868.068685	8421.750000
870.292886	8485.150000
872.512614	8568.100000
874.733753	8640.950000
876.954341	8754.100000
879.172419	8823.550000
881.391907	8924.100000
883.606929	8955.750000
885.821404	9049.150000
888.035330	9131.950000
890.248710	9165.050000
892.461542	9138.850000
894.673828	9181.350000
896.883611	9270.350000
899.092849	9197.300000
901.301542	9245.300000
903.507736	9188.850000
905.715339	9103.650000
907.920444	9040.150000
910.125006	9076.200000
912.327073	9030.450000
914.530549	8869.850000
916.731531	8778.300000
918.931972	8769.700000
921.133820	8689.650000
923.329278	8537.600000
925.528095	8434.750000
927.722473	8292.050000
929.920209	8194.950000
932.113509	8094.150000
934.308218	8066.100000
936.500441	7930.650000
938.692126	7883.400000
940.883272	7776.800000
943.071936	7830.100000
945.260064	7842.900000
947.445711	7732.050000
949.634710	7741.850000
951.819286	7700.300000
954.003327	7746.550000
956.190718	7714.850000
958.369805	7731.650000
960.552243	7747.100000
962.734147	7705.300000
964.913576	7788.600000
967.090533	7768.050000
969.268898	7753.400000
971.448670	7737.700000
973.622093	7689.150000
975.798862	7706.600000
977.971224	7648.550000
980.144994	7622.700000
982.314360	7517.050000
984.487070	7549.500000
986.657315	7532.050000
988.827031	7409.600000
990.996218	7385.750000
993.161008	7312.900000
995.329139	7322.650000
997.492876	7183.550000
999.658019	7137.800000
1001.820703	7101.500000
1003.982862	7047.700000
1006.142564	7011.850000
1008.301741	6912.650000
1010.462326	6906.650000
1012.620455	6838.050000
1014.778060	6742.850000
1016.935142	6678.300000
1019.091701	6647.900000
1021.243880	6633.000000
1023.397465	6545.100000
1025.550529	6543.650000
1027.701145	6480.250000
1029.853166	6461.650000
1032.000814	6409.550000
1034.151794	6373.150000
1036.298403	6346.150000
1038.444493	6344.250000
1040.590065	6343.550000
1042.737042	6265.150000
1044.877730	6268.500000
1047.021748	6212.600000
1049.163325	6191.250000
1051.304386	6194.350000
1053.446851	6191.750000
1055.583037	6085.250000
1057.722549	6148.750000
1059.857705	6069.100000
1061.996186	6090.200000
1064.130313	6046.750000
1066.263927	6059.350000
1068.398946	5972.250000
1070.529615	6060.400000
1072.661689	5988.650000
1074.791334	6031.150000
1076.920467	6014.750000
1079.049088	5992.700000
1081.177198	5960.300000
1083.302882	6006.800000
1085.428056	5966.500000
1087.554634	5976.600000
1089.676874	5913.300000
1091.800519	5910.350000
1093.919830	5830.550000
1096.044369	5842.800000
1098.162663	5778.150000
1100.282362	5781.050000
1102.399642	5816.600000
1104.516416	5717.500000
1106.632683	5738.050000
1108.746534	5711.150000
1110.861790	5646.200000
1112.972722	5646.350000
1115.086967	5602.250000
1117.196891	5587.850000
1119.308219	5590.100000
1121.419042	5545.900000
1123.525549	5492.850000
1125.635366	5516.550000
1127.740868	5485.350000
1129.847773	5446.750000
1131.948463	5333.900000
1134.054365	5440.200000
1136.155958	5328.700000
1138.258954	5357.250000
1140.361449	5261.150000
1142.457737	5241.900000
1144.559233	5279.900000
1146.656425	5263.500000
1148.753120	5158.100000
1150.849316	5211.750000
1152.945015	5127.000000
1155.040215	5160.350000
1157.133020	5140.700000
1159.227226	5151.300000
1161.315241	5130.900000
1163.408454	5085.050000
1165.495479	5076.450000
1167.585803	5041.450000
1169.671840	5029.100000
1171.761174	5062.450000
1173.844327	5083.650000
1175.928882	5092.700000
1178.014839	5014.250000
1180.096514	5031.850000
1182.179591	4992.550000
1184.260282	5033.650000
1186.340481	4979.750000
1188.420189	4996.200000
1190.499406	4983.250000
1192.576241	4968.050000
1194.650695	4985.000000
1196.728440	4987.750000
1198.801916	4931.000000
1200.876792	4962.350000
1202.947401	4913.650000
1205.019412	4985.600000
1207.089046	4979.050000
1209.160081	4951.650000
1211.230628	5008.650000
1213.296914	4996.250000
1215.364601	4996.850000
1217.429916	5012.600000
1219.496631	5012.600000
1221.559090	5027.000000
1223.624834	5048.200000
1225.686325	5024.000000
1227.749215	5056.350000
1229.809738	4938.800000
1231.869777	5027.900000
1233.929334	5011.150000
1235.986525	5033.000000
1238.043235	5032.200000
1240.097582	4985.000000
1242.155209	4979.100000
1244.210474	5033.050000
1246.261498	5044.650000
1248.313922	5002.600000
1250.365866	5000.500000
1252.415452	4979.200000
1254.464559	5004.500000
1256.513188	5002.950000
1258.561338	5027.700000
1260.609009	5020.300000
1262.652451	5001.750000
1264.699167	5007.250000
1266.743530	5058.650000
1268.787417	4962.200000
1270.828952	5017.300000
1272.868138	5039.950000
1274.910597	4998.700000
1276.948833	5053.200000
1278.988468	4992.900000
1281.027628	4977.600000
1283.062569	5025.400000
1285.098909	5011.950000
1287.132905	5027.800000
1289.168299	5057.450000
1291.199479	5020.250000
1293.232057	5009.300000
1295.264164	5098.850000
1297.293930	4996.250000
1299.325094	4989.700000
1301.352050	5085.450000
1303.380404	5047.600000
1305.404554	5074.800000
1307.431968	5064.900000
1309.455180	5023.250000
1311.479790	5045.750000
1313.502066	5072.350000
1315.525739	5048.950000
1317.547079	5113.100000
1319.567951	5085.200000
1321.588356	5102.500000
1323.604568	5119.050000
1325.622177	5069.100000
1327.637458	5117.700000
1329.655998	5092.750000
1331.670349	5120.600000
1333.682374	5141.050000
1335.697656	5165.000000
1337.708753	5135.100000
1339.721247	5107.500000
1341.729558	5170.700000
1343.741125	5106.500000
1345.746652	5075.500000
1347.755435	5112.350000
1349.760040	5123.000000
1351.767899	5056.450000
1353.775296	5114.250000
1355.776662	5154.850000
1357.779425	5118.950000
1359.781727	5161.800000
1361.783570	5070.150000
1363.784953	5144.850000
1365.784023	5188.950000
1367.782634	5202.450000
1369.780787	5231.700000
1371.778481	5225.300000
1373.772013	5206.600000
1375.766941	5211.000000
1377.761411	5194.450000
1379.755426	5251.250000
1381.747132	5239.700000
1383.738384	5240.150000
1385.727330	5218.700000
1387.717671	5257.700000
1389.707557	5224.500000
1391.695140	5245.550000
1393.682268	5256.500000
1395.667095	5254.550000
1397.653317	5231.300000
1399.637239	5233.050000
1401.620708	5258.600000
1403.603724	5245.050000
1405.584443	5261.900000
1407.566556	5268.500000
1409.546373	5284.650000
1411.525738	5274.200000
1413.500965	5314.150000
1415.479431	5290.750000
1417.455602	5270.250000
1419.431325	5322.100000
1421.406598	5229.050000
1423.379580	5275.450000
1425.352114	5300.900000
1427.324200	5266.500000
1429.295839	5253.850000
1431.263349	5282.100000
1433.235933	5309.350000
1435.200712	5295.450000
1437.170562	5319.800000
1439.136289	5293.050000
1441.103408	5337.950000
1443.068244	5257.650000
1445.028960	5294.650000
1446.994744	5268.850000
1448.954574	5247.350000
1450.915796	5293.600000
1452.878411	5265.000000
1454.836911	5302.300000
1456.794968	5292.350000
1458.752584	5315.700000
1460.709757	5292.250000
1462.664656	5278.250000
1464.620946	5250.300000
1466.574962	5280.100000
1468.528537	5279.300000
1470.479841	5241.750000
1472.432536	5291.800000
1474.382960	5219.900000
1476.332944	5269.950000
1478.282490	5316.200000
1480.229767	5297.400000
1482.174777	5290.500000
1484.121178	5304.000000
1486.067142	5267.150000
1488.012669	5310.900000
1489.955931	5300.700000
1491.898756	5336.500000
1493.839318	5271.250000
1495.781271	5293.350000
1497.720962	5256.350000
1499.660219	5305.650000
1501.599040	5298.200000
1503.535602	5256.350000
1505.473555	5268.400000
1507.409249	5296.400000
1509.344510	5286.250000
1511.277515	5236.450000
1513.210087	5267.050000
1515.142227	5329.500000
1517.073935	5231.700000
1519.003389	5227.000000
1520.934234	5251.200000
1522.864647	5270.100000
1524.790988	5236.350000
1526.718720	5314.700000
1528.644201	5231.450000
1530.569253	5237.900000
1532.493876	5316.700000
1534.418070	5299.350000
1536.340016	5278.550000
1538.263353	5292.750000
1540.184444	5256.950000
1542.103290	5303.400000
1544.023525	5332.050000
1545.941518	5266.700000
1547.859084	5308.550000
1549.774408	5325.500000
1551.691122	5332.100000
1553.603781	5330.750000
1555.519644	5334.250000
1557.433267	5349.850000
1559.344653	5326.550000
1561.257427	5297.450000
1563.166152	5336.100000
1565.076266	5331.400000
1566.985957	5280.050000
1568.895225	5336.200000
1570.802259	5316.750000
1572.707060	5285.450000
1574.613250	5294.400000
1576.517208	5323.800000
1578.420745	5318.350000
1580.323862	5253.350000
1582.224749	5308.400000
1584.127025	5222.050000
1586.027073	5264.100000
1587.928508	5303.550000
1589.825910	5252.450000
1591.722893	5262.550000
1593.619458	5238.500000
1595.517411	5252.400000
1597.409529	5294.250000
1599.304840	5248.950000
1601.199734	5298.700000
1603.092406	5279.500000
1604.984662	5276.850000
1606.874697	5259.450000
1608.764318	5272.800000
1610.653522	5242.800000
1612.542312	5276.950000
1614.428884	5226.300000
1616.316844	5239.600000
1618.200787	5283.350000
1620.086118	5262.500000
1621.971034	5243.850000
1623.853737	5216.200000
1625.737827	5219.800000
1627.617906	5301.150000
1629.499371	5261.450000
1631.378626	5264.700000
1633.259267	5234.250000
1635.134104	5260.750000
1637.013922	5263.250000
1638.889736	5240.400000
1640.765139	5227.350000
1642.641928	5226.400000
1644.512921	5257.250000
1646.387095	5236.000000
1648.257271	5287.350000
1650.130627	5229.900000
1652.001780	5261.350000
1653.870731	5266.700000
1655.741068	5251.400000
1657.607411	5199.600000
1659.475140	5160.100000
1661.340670	5173.800000
1663.207586	5199.950000
1665.070513	5150.650000
1666.934825	5144.600000
1668.796941	5152.800000
1670.658653	5133.750000
1672.521749	5116.200000
1674.382651	5122.100000
1676.241359	5087.000000
1678.099664	5056.850000
1679.959354	5074.550000
1681.813276	5054.800000
1683.670372	5082.550000
1685.527065	5102.350000
1687.379782	4990.150000
1689.235669	5070.750000
1691.087583	5068.750000
1692.939096	5012.350000
1694.790208	5002.150000
1696.640920	5034.300000
1698.491231	5033.650000
1700.339357	5038.400000
1702.188868	5041.300000
1704.032630	5016.550000
1705.881341	5049.150000
1707.724306	5040.100000
1709.570438	5067.550000
1711.412607	4984.800000
1713.257942	5062.100000
1715.097536	5036.400000
1716.938514	5072.150000
1718.780875	5053.550000
1720.619280	5003.350000
1722.459068	5004.400000
1724.296681	4967.600000
1726.133898	5024.100000
1727.968942	4969.950000
1729.805369	4990.200000
1731.639624	4981.300000
1733.473484	4906.000000
1735.306951	4955.300000
1737.136471	4914.250000
1738.969150	4907.800000
1740.797885	4941.450000
1742.629777	4884.400000
1744.457728	4958.600000
1746.285286	4860.250000
1748.112452	4878.600000
1749.939227	4901.400000
1751.765611	4909.350000
1753.588057	4913.100000
1755.413659	4882.150000
1757.235326	4896.350000
1759.058375	4883.550000
1760.879262	4875.250000
1762.699761	4909.750000
1764.521641	4893.850000
1766.337821	4913.850000
1768.157153	4921.250000
1769.972558	4863.100000
1771.791113	4875.600000
1773.605743	4938.750000
1775.419987	4948.300000
1777.233843	4911.150000
1779.047313	4943.100000
1780.858630	4860.450000
1782.671327	4898.450000
1784.483639	4902.500000
1786.292033	4835.300000
1788.101807	4865.900000
1789.907667	4886.600000
1791.716672	4884.000000
1793.521764	4841.700000
1795.328237	4837.250000
1797.134326	4856.900000
1798.936505	4828.750000
1800.741827	4850.500000
1802.543241	4834.800000
1804.346035	4834.800000
1806.144923	4823.700000
1807.945192	4851.300000
1809.745079	4807.450000
1811.542825	4813.750000
1813.340189	4757.700000
1815.137174	4777.200000
1816.933778	4771.050000
1818.728243	4750.050000
1820.524087	4756.150000
1822.314277	4758.400000
1824.109362	4747.100000
1825.898796	4743.250000
1827.691366	4729.950000
1829.481801	4733.900000
1831.270102	4695.700000
1833.061538	4708.400000
1834.847328	4690.650000
1836.634498	4675.700000
1838.419536	4733.250000
1840.207708	4697.750000
1841.991994	4640.200000
1843.774151	4680.850000
1845.557686	4637.600000
1847.339093	4671.400000
1849.121879	4665.350000
1850.900784	4687.650000
1852.681069	4642.500000
1854.459227	4663.450000
1856.238764	4633.000000
1858.016176	4663.650000
1859.791464	4667.250000
1861.568130	4731.150000
1863.342674	4646.650000
1865.118596	4640.900000
1866.888897	4627.450000
1868.662326	4664.000000
1870.433635	4656.050000
1872.204574	4676.350000
1873.976889	4633.250000
1875.743591	4685.200000
1877.513419	4656.950000
1879.279383	4661.600000
1881.048470	4614.000000
1882.813697	4616.700000
1884.578554	4634.550000
1886.344789	4688.200000
1888.107165	4674.400000
1889.869174	4617.450000
1891.630815	4655.100000
1893.392090	4640.700000
1895.152997	4647.250000
1896.913538	4615.650000
1898.671969	4655.900000
1900.430034	4637.250000
1902.185992	4599.500000
1903.943326	4596.050000
1905.700295	4599.400000
1907.455157	4559.550000
1909.207915	4528.450000
1910.960309	4556.800000
1912.714078	4508.650000
1914.465744	4522.650000
1916.215308	4548.300000
1917.966247	4523.450000
1919.716824	4513.700000
1921.463561	4505.550000
1923.211675	4544.450000
1924.957689	4507.900000
1926.705079	4534.000000
1928.450370	4461.600000
1930.193564	4466.300000
1931.938133	4468.900000
1933.680607	4435.100000
1935.422720	4445.150000
1937.164473	4478.500000
1938.905867	4482.300000
1940.645166	4441.250000
1942.384107	4444.050000
1944.122689	4445.050000
1945.859180	4435.550000
1947.595313	4440.025000
1949.332820	4444.500000
1951.066505	4470.200000
1952.801565	4440.900000
1954.534537	4441.800000
1956.267151	4426.000000
1957.999410	4424.450000
1959.731312	4462.750000
1961.461128	4435.500000
1963.188859	4471.800000
1964.917965	4458.450000
1966.646716	4440.550000
1968.373383	4511.800000
1970.099696	4468.600000
1971.827382	4486.500000
1973.549532	4492.150000
1975.274783	4453.500000
1976.996228	4494.700000
1978.720772	4469.100000
1980.443237	4476.550000
1982.161898	4444.750000
1983.883658	4485.100000
1985.601616	4453.550000
1987.320947	4475.850000
1989.036479	4445.350000
1990.756831	4452.300000
1992.473385	4420.500000
1994.186142	4466.600000
1995.901996	4428.550000
1997.615776	4457.650000
1999.329207	4442.100000
2001.040567	4434.450000
2002.753299	4443.100000
2004.462241	4432.350000
2006.174275	4457.100000
2007.880801	4450.350000
2009.590418	4412.450000
2011.297969	4434.450000
2013.005172	4443.900000
2014.710308	4427.300000
2016.415099	4456.150000
2018.121261	4447.750000
2019.823641	4431.150000
2021.527393	4459.900000
2023.229081	4468.000000
2024.930425	4439.800000
2026.631423	4390.750000
2028.330360	4386.150000
2030.030669	4416.650000
2031.727203	4358.950000
2033.425108	4392.850000
2035.120954	4418.050000
2036.819886	4370.500000
2038.513332	4379.800000
2040.208149	4345.350000
2041.902624	4380.450000
2043.593330	4354.750000
2045.287120	4330.950000
2046.977143	4321.600000
2048.668537	4329.250000
2050.357878	4385.350000
2052.048589	4290.950000
2053.735537	4297.700000
2055.422146	4304.450000
2057.110125	4276.650000
2058.794343	4276.650000
2060.479933	4230.550000
2062.165183	4270.650000
2063.848385	4254.650000
2065.532956	4231.650000
2067.212065	4236.750000
2068.895959	4221.800000
2070.574393	4204.600000
2072.255903	4255.500000
2073.933663	4243.150000
2075.611085	4252.750000
2077.289877	4207.800000
2078.966627	4245.850000
2080.641335	4231.250000
2082.317412	4211.300000
2083.991449	4232.250000
2085.665150	4192.100000
2087.338516	4204.700000
2089.009844	4209.750000
2090.680837	4176.850000
2092.351496	4204.200000
2094.021820	4177.500000
2095.691811	4197.750000
2097.359766	4182.700000
2099.027388	4122.500000
2100.692975	4169.500000
2102.359931	4128.900000
2104.024854	4139.400000
2105.689445	4190.050000
2107.352004	4146.650000
2109.015931	4211.650000
2110.677828	4112.250000
2112.339393	4121.150000
2114.000627	4136.600000
2115.659833	4135.700000
2117.318708	4132.600000
2118.977254	4113.500000
2120.635470	4123.200000
2122.289962	4124.150000
2123.947519	4126.900000
2125.604747	4156.300000
2127.258253	4091.950000
2128.913127	4023.800000
2130.564283	4122.350000
2132.218500	4141.700000
2133.869001	4042.300000
2135.520868	4113.800000
2137.167327	4109.350000
2138.818541	4088.200000
2140.466041	4087.800000
2142.114908	4070.650000
2143.761757	4080.550000
2145.408279	4071.750000
2147.054476	4107.700000
2148.696965	4029.200000
2150.342512	4077.950000
2151.984352	4047.150000
2153.629249	4047.650000
2155.270441	4048.400000
2156.911309	4029.600000
2158.551853	4027.350000
2160.190385	3979.700000
2161.830283	4003.100000
2163.466481	3958.900000
2165.104045	3992.800000
2166.741287	3966.750000
2168.376519	3963.450000
2170.011430	3978.500000
2171.646019	3931.550000
2173.280286	3938.450000
2174.910860	3902.200000
2176.544486	3878.800000
2178.174420	3954.300000
2179.805719	3915.750000
2181.435013	3923.450000
2183.063988	3928.450000
2184.692643	3893.250000
2186.320979	3883.300000
2187.947313	3909.450000
2189.573328	3870.350000
2191.197342	3848.750000
2192.822720	3879.150000
2194.446099	3873.900000
2196.070841	3816.200000
2197.691903	3831.800000
2199.312648	3806.150000
2200.934758	3769.900000
2202.554870	3811.450000
2204.172985	3752.250000
2205.790785	3761.600000
2207.408270	3742.600000
2209.025439	3753.600000
2210.642293	3767.500000
2212.258831	3721.750000
2213.873377	3774.450000
2215.485930	3747.950000
2217.099847	3738.150000
2218.711773	3800.150000
2220.325062	3764.800000
2221.936361	3752.750000
2223.545670	3734.300000
2225.156343	3787.100000
2226.765027	3777.750000
2228.373398	3773.700000
2229.979783	3738.350000
2231.587531	3789.350000
2233.193292	3779.450000
2234.798742	3773.950000
2236.402207	3774.500000
2238.007035	3757.750000
2239.609879	3750.000000
2241.210740	3736.400000
2242.812964	3725.650000
2244.413206	3751.350000
2246.014810	3724.800000
2247.612762	3731.450000
2249.212075	3732.650000
2250.809410	3757.350000
2252.406435	3695.400000
2254.004823	3705.500000
2255.599562	3707.350000
2257.192324	3733.700000
2258.786449	3694.550000
2260.381935	3682.000000
2261.973777	3705.300000
2263.565312	3657.200000
2265.158208	3671.150000
2266.745795	3693.200000
2268.338079	3670.750000
2269.925055	3662.000000
2271.515059	3626.650000
2273.099760	3633.400000
2274.689153	3625.250000
2276.273245	3619.600000
2277.858698	3622.200000
2279.442181	3598.750000
2281.028691	3568.000000
2282.611566	3590.400000
2284.194139	3571.400000
2285.776408	3606.850000
2287.355048	3578.650000
2288.936711	3536.150000
2290.514746	3595.400000
2292.095804	3537.200000
2293.673235	3535.025000
2295.248703	3532.850000
2296.827193	3518.400000
2298.402059	3553.250000
2299.976624	3497.650000
2301.550889	3519.600000
2303.124853	3518.450000
2304.698517	3490.750000
2306.271880	3516.550000
2307.841625	3477.050000
2309.411071	3479.750000
2310.983535	3486.350000
2312.550725	3515.900000
2314.120933	3499.300000
2315.687526	3486.700000
2317.255479	3477.000000
2318.821476	3481.550000
2320.387176	3508.350000
2321.952578	3516.750000
2323.516027	3475.550000
2325.080835	3481.250000
2326.642035	3492.250000
2328.206249	3466.000000
2329.765201	3457.550000
2331.327168	3477.300000
2332.887184	3446.700000
2334.446904	3403.300000
2336.004675	3457.200000
2337.562151	3439.800000
2339.119333	3446.200000
2340.674567	3442.050000
2342.229508	3390.200000
2343.784155	3437.900000
2345.338507	3445.600000
2346.892567	3397.050000
2348.446332	3412.650000
2349.998154	3417.650000
2351.548032	3390.900000
2353.100918	3410.850000
2354.648562	3425.050000
2356.199213	3386.750000
2357.746273	3377.800000
2359.294691	3358.800000
2360.842818	3400.100000
2362.387356	3365.750000
2363.933252	3374.700000
2365.477210	3388.450000
2367.022525	3348.200000
2368.564255	3323.450000
2370.107342	3319.700000
2371.648493	3317.800000
2373.189355	3324.900000
2374.729928	3332.450000
2376.270212	3357.600000
2377.810207	3327.200000
2379.346624	3325.750000
2380.886042	3266.650000
2382.421883	3314.350000
2383.959080	3244.850000
2385.492702	3311.850000
2387.029325	3315.700000
2388.564016	3272.500000
2390.096778	3245.650000
2391.629253	3230.750000
2393.159800	3290.950000
2394.693345	3271.650000
2396.221679	3242.650000
2397.751370	3248.300000
2399.280775	3222.550000
2400.809894	3208.050000
2402.338729	3215.750000
2403.862358	3240.050000
2405.390624	3263.200000
2406.913686	3244.750000
2408.441382	3236.250000
2409.962239	3182.000000
2411.487729	3224.500000
2413.009658	3203.200000
2414.532943	3181.050000
2416.054306	3238.550000
2417.573751	3204.800000
2419.094550	3204.400000
2420.613430	3203.350000
2422.132028	3192.750000
2423.648709	3186.100000
2425.166744	3208.950000
2426.684498	3152.950000
2428.198701	3188.100000
2429.712623	3183.200000
2431.226265	3183.450000
2432.741262	3159.700000
2434.252710	3169.100000
2435.765513	3165.850000
2437.276402	3158.400000
2438.787013	3096.050000
2440.295712	3129.600000
2441.807397	3122.500000
2443.315539	3121.800000
2444.823403	3078.750000
2446.330989	3044.850000
2447.835034	3100.650000
2449.342065	3078.250000
2450.847187	3086.200000
2452.352032	3095.150000
2453.854969	3084.900000
2455.357631	3053.150000
2456.860016	3067.400000
2458.360496	3057.200000
2459.862329	3007.500000
2461.362257	3026.500000
2462.861911	3022.550000
2464.361288	3022.700000
2465.858763	3048.600000
2467.354336	3010.000000
2468.852889	3012.900000
2470.347914	3010.200000
2471.844291	3020.950000
2473.337142	3022.450000
2474.831346	3016.100000
2476.325276	2962.650000
2477.815682	2975.050000
2479.309066	3003.950000
2480.800552	2974.150000
2482.290141	2998.500000
2483.779458	2973.750000
2485.266880	2963.700000
2486.757277	2989.350000
2488.244155	2975.150000
2489.732385	2963.050000
2491.217099	2962.400000
2492.701542	2974.650000
2494.187337	2946.600000
2495.671239	2919.150000
2497.156493	2924.300000
2498.636612	2905.100000
2500.119705	2928.250000
2501.600907	2905.900000
2503.081840	2927.300000
2504.560884	2924.550000
2506.039659	2897.550000
2507.518166	2916.700000
2508.996405	2900.800000
2510.474375	2870.900000
2511.948840	2859.450000
2513.426275	2886.900000
2514.900206	2925.050000
2516.375487	2908.600000
2517.850502	2904.550000
2519.322015	2886.350000
2520.794878	2918.700000
2522.265859	2882.650000
2523.738190	2876.950000
2525.205407	2927.300000
2526.675591	2910.150000
2528.143894	2892.350000
2529.611932	2900.150000
2531.079705	2884.700000
2532.547213	2930.200000
2534.014456	2892.300000
2535.478207	2900.700000
2536.943308	2903.100000
2538.406532	2851.450000
2539.871106	2879.900000
2541.332190	2872.650000
2542.794624	2911.750000
2544.256795	2902.650000
2545.715480	2863.200000
2547.178737	2874.350000
2548.636897	2887.350000
2550.096406	2861.350000
2551.550821	2827.100000
2553.009807	2883.400000
2554.466921	2844.800000
2555.922164	2870.400000
2557.377146	2809.900000
2558.830258	2827.900000
2560.284719	2850.500000
2561.737311	2812.550000
2563.189643	2786.450000
2564.640107	2846.050000
2566.093527	2841.050000
2567.541865	2819.100000
2568.993159	2847.000000
2570.442586	2767.850000
2571.888541	2813.500000
2573.337451	2801.550000
2574.782891	2820.800000
2576.229678	2828.650000
2577.674603	2773.950000
2579.119269	2816.900000
2580.565284	2753.900000
2582.007831	2763.550000
2583.451726	2741.050000
2584.892156	2798.350000
2586.333933	2737.250000
2587.773851	2760.900000
2589.215116	2778.500000
2590.652919	2775.500000
2592.093673	2783.200000
2593.529363	2733.350000
2594.968003	2751.550000
2596.404785	2756.950000
2597.839712	2715.600000
2599.277586	2724.250000
2600.710403	2696.950000
2602.144567	2745.900000
2603.576877	2713.500000
2605.010533	2735.550000
2606.442336	2725.650000
2607.873885	2717.050000
2609.305182	2708.800000
2610.734626	2726.300000
2612.163818	2698.850000
2613.591160	2735.500000
2615.019847	2702.750000
2616.448283	2711.150000
2617.873271	2702.600000
2619.299606	2734.750000
2620.724092	2694.150000
2622.149924	2686.450000
2623.572312	2746.800000
2624.996046	2723.950000
2626.417933	2721.450000
2627.839571	2698.550000
2629.259363	2686.650000
2630.680501	2695.200000
2632.101389	2682.400000
2633.518839	2695.300000
2634.939228	2709.450000
2636.356180	2717.700000
2637.772883	2711.050000
2639.189339	2700.950000
2640.605545	2698.650000
2642.021504	2697.250000
2643.435622	2718.200000
2644.849493	2721.000000
2646.261524	2688.150000
2647.674900	2670.000000
2649.084846	2642.100000
2650.497727	2662.300000
2651.907180	2683.400000
2653.316387	2665.550000
2654.723758	2661.550000
2656.134064	2678.000000
2657.542533	2663.300000
2658.949167	2638.250000
2660.355556	2635.900000
2661.760111	2678.050000
2663.166010	2657.250000
2664.570076	2656.050000
2665.973897	2641.250000
2667.377475	2641.600000
2668.779220	2699.850000
2670.182309	2670.400000
2671.581980	2635.850000
2672.982995	2655.900000
2674.380594	2627.450000
2675.781123	2628.450000
2677.178236	2610.000000
2678.576694	2619.800000
2679.973323	2631.600000
2681.369710	2658.750000
2682.765856	2631.200000
2684.160175	2628.250000
2685.555836	2600.650000
2686.948089	2670.200000
2688.341684	2575.350000
2689.733455	2595.600000
2691.126569	2614.900000
2692.517859	2606.350000
2693.907326	2597.200000
2695.296553	2587.650000
2696.685541	2562.000000
2698.075870	2596.350000
2699.461216	2591.200000
2700.849485	2586.050000
2702.235934	2578.350000
2703.622144	2544.850000
2705.008116	2559.250000
2706.390688	2572.300000
2707.774603	2579.600000
2709.158280	2520.650000
2710.541719	2542.150000
2711.921762	2535.050000
2713.303147	2562.700000
2714.682716	2561.450000
2716.063627	2541.400000
2717.442722	2573.900000
2718.820004	2535.400000
2720.198627	2551.250000
2721.575437	2542.000000
2722.952011	2528.700000
2724.328349	2495.900000
2725.702875	2540.650000
2727.078742	2554.350000
2728.451222	2501.950000
2729.826618	2488.350000
2731.197054	2509.450000
2732.568831	2475.600000
2733.940373	2473.650000
2735.310107	2485.700000
2736.681182	2508.450000
2738.050448	2485.550000
2739.419481	2467.700000
2740.786708	2473.450000
2742.153702	2471.950000
2743.520463	2449.850000
2744.886991	2450.700000
2746.251714	2480.650000
2747.616206	2467.000000
2748.980465	2440.450000
2750.344492	2445.350000
2751.708288	2467.800000
2753.068710	2449.700000
2754.432042	2450.650000
2755.790433	2440.650000
2757.151732	2406.050000
2758.509662	2414.850000
2759.870500	2385.800000
2761.229539	2382.100000
2762.585209	2432.550000
2763.943787	2430.600000
2765.298998	2398.750000
2766.653980	2394.150000
2768.007166	2400.700000
2769.363258	2382.800000
2770.715985	2377.900000
2772.068485	2407.100000
2773.420756	2401.950000
2774.774366	2396.350000
2776.124614	2365.100000
2777.473069	2411.150000
2778.824428	2374.050000
2780.172428	2379.500000
2781.521766	2390.100000
2782.869313	2402.450000
2784.216632	2362.500000
2785.563725	2368.350000
2786.909027	2337.350000
2788.254103	2354.200000
2789.598952	2350.450000
2790.943576	2374.350000
2792.284848	2344.100000
2793.627458	2335.900000
2794.969842	2322.150000
2796.312002	2341.800000
2797.650812	2314.900000
2798.992521	2352.350000
2800.330883	2369.150000
2801.670582	2328.500000
2803.008495	2335.950000
2804.344624	2315.550000
2805.680529	2324.900000
2807.017772	2337.000000
2808.353231	2311.300000
2809.688467	2289.500000
2811.021920	2330.050000
2812.356710	2306.000000
2813.688160	2334.000000
2815.022505	2317.050000
2816.351952	2281.900000
2817.682736	2315.400000
2819.013298	2318.300000
2820.342081	2308.700000
2821.672200	2313.400000
2823.000541	2289.350000
2824.328661	2317.400000
2825.655003	2292.600000
2826.982682	2308.200000
2828.307027	2304.700000
2829.632709	2279.450000
2830.956615	2264.100000
2832.280302	2296.900000
2833.605324	2265.300000
2834.927016	2252.200000
2836.248490	2265.650000
2837.569745	2259.950000
2838.890781	2279.300000
2840.210045	2230.650000
2841.530644	2258.700000
2842.849471	2258.100000
2844.168080	2267.300000
2845.484918	2208.000000
2846.801539	2252.400000
2848.117943	2240.650000
2849.432577	2275.700000
2850.748547	2229.400000
2852.061196	2236.350000
2853.375180	2259.400000
2854.688948	2255.400000
2856.002500	2217.350000
2857.314284	2240.800000
2858.624302	2235.050000
2859.935655	2248.600000
2861.243693	2255.000000
2862.553065	2258.550000
2863.862223	2259.200000
2865.171165	2242.150000
2866.478343	2252.850000
2867.783759	2229.300000
2869.090509	2251.300000
2870.395496	2233.750000
2871.700270	2244.400000
2873.003282	2244.450000
2874.309176	2270.600000
2875.610214	2241.100000
2876.912587	2238.250000
2878.213200	2252.200000
2879.515147	2212.400000
2880.816881	2209.300000
2882.115310	2232.500000
2883.415073	2220.400000
2884.713079	2213.400000
2886.010873	2228.600000
2887.306911	2171.750000
2888.604282	2202.250000
2889.899897	2195.700000
2891.195301	2211.600000
2892.490494	2188.000000
2893.782390	2188.550000
2895.077162	2189.600000
2896.368637	2173.600000
2897.661445	2186.250000
2898.954043	2193.400000
2900.243347	2208.200000
2901.533983	2175.250000
2902.822868	2187.550000
2904.113086	2137.400000
2905.400011	2171.000000
2906.688270	2166.800000
2907.974778	2173.200000
2909.261079	2156.750000
2910.547171	2143.600000
2911.831515	2156.000000
2913.118730	2127.900000
2914.401119	2161.500000
2915.684840	2167.350000
2916.966815	2169.650000
2918.248582	2139.400000
2919.528605	2151.350000
2920.811497	2168.450000
2922.092644	2147.850000
2923.370509	2139.200000
2924.651243	2141.900000
2925.928696	2141.700000
2927.205943	2120.300000
2928.481449	2130.700000
2929.759822	2155.400000
2931.033380	2126.450000
2932.309806	2133.700000
2933.584491	2141.250000
2934.857436	2091.450000
2936.131711	2119.600000
2937.404247	2117.450000
2938.676579	2105.000000
2939.945637	2136.500000
2941.217561	2103.650000
2942.487747	2095.400000
2943.757730	2089.150000
2945.027509	2108.250000
2946.295551	2066.000000
2947.561858	2102.300000
2948.827962	2087.500000
2950.095396	2095.350000
2951.361096	2058.950000
2952.626593	2057.650000
2953.891888	2087.850000
2955.153918	2046.200000
2956.417279	2074.300000
2957.680437	2041.000000
2958.941864	2049.850000
2960.204620	2015.100000
2961.465645	2065.250000
2962.724938	2056.100000
2963.984032	2052.600000
2965.242925	2042.800000
2966.501618	2036.850000
2967.760111	2049.300000
2969.016875	2044.700000
2970.273439	2055.500000
2971.528276	2038.050000
2972.784441	2031.900000
2974.037352	2041.800000
2975.291592	2003.050000
2976.545633	2036.150000
2977.797948	2017.250000
2979.050064	2020.350000
2980.300456	2020.550000
2981.553703	2015.700000
2982.802173	1964.050000
2984.053498	2010.850000
2985.301573	2013.350000
2986.549452	1995.250000
2987.797133	2002.300000
2989.044617	2022.450000
2990.290380	2011.750000
2991.535947	2009.200000
2992.782841	1981.250000
2994.026491	2003.050000
2995.271469	1998.700000
2996.513203	1999.500000
2997.757789	1998.250000
2999.000656	1975.850000
3000.240282	2001.200000
3001.482758	2025.800000
3002.721995	1985.800000
3003.962558	1968.750000
3005.201406	1984.350000
3006.440058	1988.200000
3007.676996	2001.500000
3008.915260	1983.650000
3010.151810	1994.800000
3011.388165	1965.000000
3012.624327	1976.450000
3013.858776	1972.100000
3015.093031	1942.450000
3016.327093	1983.100000
3017.559443	1974.500000
3018.790081	1937.400000
3020.023565	1984.300000
3021.255337	1968.600000
3022.485399	1966.000000
3023.715269	1977.750000
3024.943429	1948.300000
3026.172915	1971.950000
3027.400692	1948.600000
3028.628279	1988.050000
3029.857191	1949.650000
3031.081361	1954.050000
3032.308374	1939.550000
3033.532163	1975.300000
3034.757279	1966.550000
3035.980688	1931.000000
3037.203907	1943.000000
3038.425421	1928.400000
3039.649776	1926.000000
3040.869396	1918.900000
3042.090342	1932.450000
3043.311099	1919.050000
3044.530152	1939.500000
3045.750531	1929.950000
3046.967693	1903.900000
3048.186180	1905.900000
3049.402965	1910.100000
3050.619563	1916.750000
3051.835972	1901.100000
3053.049169	1908.650000
3054.265203	1921.250000
3055.478025	1881.150000
3056.693684	1914.000000
3057.904620	1917.150000
3059.116881	1884.700000
3060.328956	1889.750000
3061.540844	1897.900000
3062.751034	1899.250000
3063.961038	1888.800000
3065.170856	1890.350000
3066.378979	1876.700000
3067.586915	1856.600000
3068.793156	1898.350000
3070.000722	1866.550000
3071.206593	1879.025000
3072.412280	1891.500000
3073.617781	1866.850000
3074.821589	1860.900000
3076.026721	1863.450000
3077.230161	1874.250000
3078.431908	1849.400000
3079.633472	1857.350000
3080.834851	1868.100000
3082.036048	1885.350000
3083.235553	1865.750000
3084.434876	1837.400000
3085.635522	1893.750000
3086.834478	1880.150000
3088.030240	1858.050000
3089.228831	1869.450000
3090.424228	1852.850000
3091.620948	1897.050000
3092.814476	1830.550000
3094.010832	1867.400000
3095.205502	1837.300000
3096.396981	1847.650000
3097.592791	1840.100000
3098.783908	1845.250000
3099.976347	1866.600000
3101.165599	1833.200000
3102.357677	1838.150000
3103.548070	1826.700000
3104.735278	1849.100000
3105.923809	1834.000000
3107.113661	1837.550000
3108.300330	1841.350000
3109.486819	1841.900000
3110.673128	1827.700000
3111.860759	1853.600000
3113.045208	1816.300000
3114.227978	1820.350000
3115.413570	1827.400000
3116.597483	1849.300000
3117.779717	1802.300000
3118.961772	1798.900000
3120.143650	1836.050000
3121.325349	1837.550000
3122.505370	1834.200000
3123.683715	1840.000000
3124.864880	1817.150000
3126.042871	1789.150000
3127.220684	1817.700000
3128.398320	1802.400000
3129.574281	1832.700000
3130.750065	1817.700000
3131.927171	1787.450000
3133.102602	1799.950000
3134.276360	1771.250000
3135.448445	1827.800000
3136.621852	1771.450000
3137.795082	1776.750000
3138.966641	1777.900000
3140.139520	1792.250000
3141.309233	1778.100000
3142.480265	1806.200000
3143.649628	1807.650000
3144.817321	1812.800000
3145.987829	1783.550000
3147.153678	1772.850000
3148.323837	1779.700000
3149.489338	1803.950000
3150.654666	1763.700000
3151.819820	1788.150000
3152.984800	1807.800000
3154.151100	1781.750000
3155.312748	1758.850000
3156.475715	1745.100000
3157.638510	1725.750000
3158.801132	1743.150000
3159.962089	1728.750000
3161.122873	1717.250000
3162.283485	1718.300000
3163.442433	1730.200000
3164.601210	1693.500000
3165.759815	1714.200000
3166.918248	1720.150000
3168.076509	1722.100000
3169.233108	1738.700000
3170.388046	1744.300000
3171.544303	1703.150000
3172.698899	1718.900000
3173.853325	1704.500000
3175.006091	1704.500000
3176.158687	1706.450000
3177.311112	1704.250000
3178.463368	1695.450000
3179.615453	1733.550000
3180.764393	1732.800000
3181.916139	1711.800000
3183.066227	1720.300000
3184.214659	1705.800000
3185.362922	1709.450000
3186.511015	1710.100000
3187.658940	1711.750000
3188.805210	1697.450000
3189.951311	1719.550000
3191.095757	1711.200000
3192.240036	1726.950000
3193.384147	1697.100000
3194.529575	1690.800000
3195.671865	1689.450000
3196.813988	1677.550000
3197.955943	1680.500000
3199.097731	1681.200000
3200.239353	1667.350000
3201.377838	1687.950000
3202.517641	1668.350000
3203.658762	1680.050000
3204.796748	1668.000000
3205.933085	1658.750000
3207.069256	1666.850000
3208.206745	1667.650000
3209.342584	1639.900000
3210.479741	1654.850000
3211.612285	1673.500000
3212.749111	1661.750000
3213.881325	1653.800000
3215.014856	1658.850000
3216.148223	1637.750000
3217.278462	1642.000000
3218.411499	1628.250000
3219.541410	1619.800000
3220.672637	1621.400000
3221.800740	1618.950000
3222.931639	1596.900000
3224.060894	1596.750000
3225.188506	1587.600000
3226.312996	1586.050000
3227.441760	1591.750000
3228.567403	1582.500000
3229.692884	1596.850000
3230.816723	1568.600000
3231.943356	1594.700000
3233.065392	1585.350000
3234.188744	1588.050000
3235.311934	1580.600000
3236.434962	1594.550000
3237.556350	1591.150000
3238.677577	1568.850000
3239.797165	1593.850000
3240.916592	1575.000000
3242.034381	1594.000000
3243.154962	1607.100000
3244.272430	1586.150000
3245.389737	1590.900000
3246.506884	1621.800000
3247.622395	1617.800000
3248.739221	1606.250000
3249.852936	1591.250000
3250.969441	1616.850000
3252.084312	1628.800000
3253.196074	1595.200000
3254.307676	1606.200000
3255.420594	1587.450000
3256.533353	1590.200000
3257.643005	1597.700000
3258.753971	1625.750000
3259.864779	1604.900000
3260.973956	1587.800000
3262.081501	1626.300000
3263.190360	1597.550000
3264.299062	1582.300000
3265.404661	1616.150000
3266.511574	1580.350000
3267.616858	1616.750000
3268.723457	1597.450000
3269.826955	1602.600000
3270.931767	1627.400000
3272.036422	1602.650000
3273.137978	1601.150000
3274.239378	1638.750000
3275.342093	1601.950000
3276.444650	1561.450000
3277.544111	1594.650000
3278.646356	1609.050000
3279.745505	1582.950000
3280.843030	1574.500000
3281.940399	1564.800000
3283.040551	1572.600000
3284.137609	1574.400000
3285.234512	1587.600000
3286.331260	1604.550000
3287.423450	1601.350000
3288.519888	1580.700000
3289.614704	1563.250000
3290.709366	1586.200000
3291.802406	1571.450000
3292.895292	1576.800000
3293.986557	1561.050000
3295.079135	1569.250000
3296.170092	1563.800000
3297.259430	1554.950000
3298.348615	1572.950000
3299.439113	1551.000000
3300.526526	1572.100000
3301.613787	1552.300000
3302.702360	1544.000000
3303.790780	1549.400000
3304.874653	1566.650000
3305.962768	1553.950000
3307.047802	1568.650000
3308.131219	1577.800000
3309.215949	1561.000000
3310.299064	1547.750000
3311.383490	1545.450000
3312.464838	1551.900000
3313.547498	1570.400000
3314.628544	1554.450000
3315.709439	1554.750000
3316.788720	1572.550000
3317.867852	1553.450000
3318.948294	1526.800000
3320.025662	1543.200000
3321.104342	1542.600000
3322.181411	1551.200000
3323.258329	1563.600000
3324.333636	1538.250000
3325.408794	1531.950000
3326.485263	1540.700000
3327.558662	1559.100000
3328.631912	1534.150000
3329.706472	1552.750000
3330.779424	1522.550000
3331.850767	1539.650000
3332.923422	1532.050000
3333.993009	1541.000000
3335.063907	1513.950000
3336.133198	1509.800000
3337.203800	1515.150000
3338.272795	1503.600000
3339.340184	1531.150000
3340.405968	1516.850000
3341.475978	1520.100000
3342.542925	1487.650000
3343.606810	1495.750000
3344.673463	1491.850000
3345.738511	1504.600000
3346.801956	1490.800000
3347.865255	1493.750000
3348.928407	1518.350000
3349.991413	1492.400000
3351.054273	1497.950000
3352.115531	1500.900000
3353.173732	1481.950000
3354.236154	1477.950000
3355.295519	1482.600000
3356.354739	1490.900000
3357.415269	1485.650000
3358.471289	1480.900000
3359.530073	1484.850000
3360.584350	1477.150000
3361.641391	1476.650000
3362.696834	1497.150000
3363.753585	1495.700000
3364.808738	1478.700000
3365.862294	1491.500000
3366.914254	1466.500000
3367.968975	1467.350000
3369.020647	1464.450000
3370.072176	1476.450000
3371.125013	1479.500000
3372.174803	1501.450000
3373.225902	1474.600000
3374.273955	1461.200000
3375.324767	1479.950000
3376.372535	1475.350000
3377.420160	1470.600000
3378.467642	1473.800000
3379.513532	1482.650000
3380.560730	1468.200000
3381.604886	1469.000000
3382.651800	1476.750000
3383.697122	1455.300000
3384.739403	1487.050000
3385.781544	1467.000000
3386.824992	1470.250000
3387.868299	1467.550000
3388.910017	1451.350000
3389.951593	1449.800000
3390.993029	1452.550000
3392.032875	1471.550000
3393.071133	1464.550000
3394.110699	1464.050000
3395.150125	1476.500000
3396.187963	1450.250000
3397.224214	1458.200000
3398.260326	1478.500000
3399.297745	1485.950000
3400.332131	1451.600000
3401.367824	1474.550000
3402.403378	1468.800000
3403.435901	1475.700000
3404.471177	1479.600000
3405.503422	1459.900000
3406.535529	1473.700000
3407.566052	1471.050000
3408.597882	1477.550000
3409.629574	1448.650000
3410.658238	1491.400000
3411.686765	1481.250000
3412.716599	1474.050000
3413.746294	1457.300000
3414.772964	1480.200000
3415.800941	1451.550000
3416.825893	1456.000000
3417.853595	1470.150000
3418.878274	1459.000000
3419.904259	1476.750000
3420.928664	1444.900000
3421.952933	1447.800000
3422.975623	1474.000000
3423.998177	1445.550000
3425.022037	1445.950000
3426.042877	1450.000000
3427.063582	1448.150000
3428.085592	1444.300000
3429.104584	1442.900000
3430.123441	1421.850000
3431.143603	1414.050000
3432.160749	1420.850000
