-117.095864	83.650000
-114.426264	88.700000
-111.759599	69.550000
-109.093686	90.450000
-106.430705	78.550000
-103.766295	90.150000
-101.104815	88.750000
-98.441906	99.350000
-95.784103	79.850000
-93.124871	87.650000
-90.466387	88.750000
-87.810827	102.950000
-85.153839	75.750000
-82.501949	89.300000
-79.848628	76.500000
-77.198228	102.500000
-74.546398	83.900000
-71.899659	97.250000
-69.251491	93.700000
-66.604065	80.050000
-63.959553	86.300000
-61.313613	85.550000
-58.672754	94.200000
-56.030466	100.800000
-53.391086	76.700000
-50.750278	95.200000
-48.110210	86.200000
-45.475214	105.500000
-42.838790	85.150000
-40.205268	85.700000
-37.570318	93.350000
-34.940433	104.700000
-32.306956	104.850000
-29.678541	87.200000
-27.050860	87.350000
-24.421750	100.950000
-21.797697	99.000000
-19.170055	106.750000
-16.547466	102.650000
-13.925609	112.450000
-11.304482	126.250000
-8.684085	181.350000
-6.066577	339.700000
-3.447639	887.950000
-0.831588	1824.100000
1.783735	2140.300000
4.398331	1179.100000
7.010044	216.300000
9.623186	108.550000
12.231294	110.900000
14.842984	101.600000
17.449643	119.300000
20.057730	108.100000
22.665093	113.450000
25.267431	111.700000
27.873347	111.250000
30.474241	106.600000
33.076563	117.400000
35.673868	104.650000
38.274748	118.900000
40.870614	123.150000
43.467907	108.650000
46.064481	112.550000
48.656046	106.100000
51.249039	114.700000
53.839171	125.300000
56.430731	122.600000
59.019431	127.700000
61.609558	129.200000
64.194687	123.500000
66.781242	115.100000
69.367084	139.800000
71.950072	135.450000
74.534486	132.350000
77.111772	137.450000
79.692624	134.950000
82.270627	134.950000
84.847920	140.650000
87.426639	138.100000
90.000376	145.200000
92.575541	152.350000
95.147862	153.700000
97.719475	153.300000
100.288248	168.800000
102.858448	177.700000
105.425810	189.950000
107.994597	185.900000
110.560548	222.150000
113.123664	242.450000
115.690336	304.200000
118.247787	357.450000
120.810923	480.500000
123.369099	633.150000
125.930830	901.400000
128.487604	1312.900000
131.045805	1931.450000
133.599053	2883.100000
136.151602	4203.200000
138.707702	5999.950000
141.258854	8108.500000
143.809309	10347.100000
146.359066	12186.050000
148.906005	13767.150000
151.452247	14625.100000
153.999915	15162.750000
156.546887	15542.450000
159.088924	15568.250000
161.630267	15586.850000
164.170917	15668.950000
166.712993	15598.550000
169.252257	15728.750000
171.788713	15719.700000
174.324477	15781.750000
176.861667	15811.850000
179.398166	15842.400000
181.931859	15946.250000
184.462749	15885.150000
186.992950	15840.100000
189.524576	15933.850000
192.053401	15967.900000
194.579427	16029.850000
197.104767	16012.200000
199.631533	16050.950000
202.155501	16147.000000
204.678785	16090.200000
207.201384	16207.200000
209.721190	16099.750000
212.240313	16113.900000
214.758753	16096.100000
217.278617	16167.900000
219.791480	16197.650000
222.307874	16231.000000
224.823586	16310.150000
227.334408	16315.350000
229.846656	16408.450000
232.356120	16345.200000
234.864906	16411.750000
237.373014	16518.900000
239.882545	16517.050000
242.387196	16593.500000
244.891171	16519.350000
247.396571	16638.550000
249.897095	16744.900000
252.401142	16766.850000
254.898218	16672.000000
257.398818	16796.350000
259.896646	16802.050000
262.393801	16729.150000
264.890283	16845.800000
267.381902	16851.500000
269.877041	16871.950000
272.369414	16906.350000
274.861116	16871.500000
277.350054	16963.600000
279.840417	16928.100000
282.328017	16880.500000
284.812858	16970.900000
287.301214	16988.750000
289.782630	16921.650000
292.267560	17004.450000
294.747645	17085.100000
297.231242	17044.850000
299.709996	17086.900000
302.190174	17106.100000
304.667599	17128.750000
307.144361	17053.400000
309.620460	17079.800000
312.093810	17162.450000
314.566498	17195.450000
317.038525	17177.950000
319.509891	17295.100000
321.978513	17367.050000
324.446475	17486.150000
326.915859	17408.350000
329.380421	17442.150000
331.848487	17487.750000
334.311733	17510.400000
336.774321	17605.400000
339.236253	17504.450000
341.697528	17670.850000
344.156069	17686.700000
346.616032	17701.850000
349.073262	17687.500000
351.529838	17681.200000
353.985760	17641.200000
356.438953	17694.200000
358.893567	17652.350000
361.343380	17647.900000
363.796689	17620.350000
366.245200	17544.900000
368.693060	17516.000000
371.142341	17547.250000
373.586829	17501.000000
376.032739	17489.300000
378.478000	17432.450000
380.920541	17617.850000
383.362435	17540.950000
385.803682	17558.700000
388.242213	17554.900000
390.682166	17530.950000
393.119405	17567.950000
395.553932	17480.550000
397.991947	17645.150000
400.425185	17586.400000
402.859844	17549.200000
405.289731	17661.500000
407.723103	17752.200000
410.151705	17708.900000
412.579666	17646.800000
415.009047	17781.800000
417.433663	17835.600000
419.859701	17813.650000
422.285098	17769.950000
424.709855	17940.200000
427.129854	17817.950000
429.551274	17957.400000
431.969997	17904.850000
434.390141	17975.950000
436.807590	17986.200000
439.226459	18111.650000
441.642635	18145.000000
444.054064	18176.900000
446.468969	18260.400000
448.881184	18161.050000
451.292765	18318.250000
453.703712	18406.250000
456.111973	18325.100000
458.519601	18388.450000
460.926597	18488.950000
463.332962	18374.200000
465.736644	18484.850000
468.139696	18445.400000
470.542118	18446.750000
472.943910	18462.950000
475.343025	18464.300000
477.743559	18505.000000
480.143464	18505.050000
482.538646	18530.050000
484.937295	18566.100000
487.331224	18486.700000
489.724527	18481.950000
492.117204	18516.800000
494.509256	18601.500000
496.902726	18516.100000
499.291485	18645.800000
501.677577	18612.250000
504.065088	18604.900000
506.451977	18660.850000
508.836202	18714.200000
511.221846	18733.000000
513.604827	18720.650000
515.985148	18830.900000
518.366888	19017.350000
520.745969	18894.750000
523.126469	18929.700000
525.504311	18986.100000
527.879498	19127.250000
530.254067	19010.350000
532.630055	19119.650000
535.003389	19153.150000
537.378141	19160.750000
539.748208	19138.050000
542.117659	19236.450000
544.488528	19209.700000
546.854717	19041.750000
549.222324	19244.950000
551.587285	19134.250000
553.951633	19173.050000
556.315369	19201.050000
558.680521	19243.150000
561.041002	19196.300000
563.402901	19250.600000
565.762159	19221.250000
568.118780	19237.600000
570.478845	19252.700000
572.832219	19088.900000
575.189038	19264.150000
577.543222	19216.450000
579.896798	19137.650000
582.249765	19158.950000
584.600101	19018.800000
586.951853	19150.500000
589.296929	19113.450000
591.647469	19057.300000
593.991335	19149.150000
596.340663	19148.250000
598.685343	19118.950000
601.027397	19194.800000
603.370869	19157.000000
605.711718	19188.900000
608.051965	19162.750000
610.389591	19368.700000
612.730652	19226.200000
615.067075	19320.250000
617.404915	19301.350000
619.740138	19280.800000
622.072745	19301.850000
624.406768	19362.350000
626.738178	19505.400000
629.068989	19475.050000
631.399202	19461.200000
633.728817	19547.100000
636.053810	19503.900000
638.384244	19570.050000
640.710056	19542.950000
643.033262	19739.900000
645.357883	19687.600000
647.679899	19668.800000
650.001322	19670.300000
652.320141	19803.250000
654.640376	19722.700000
656.960018	19876.350000
659.277059	19832.200000
661.593508	19904.100000
663.907359	19874.850000
666.222626	19992.300000
668.535296	20100.600000
670.849381	19961.100000
673.158866	20236.850000
675.469767	20272.900000
677.778075	20091.750000
680.085795	20282.900000
682.394929	20299.300000
684.699472	20393.300000
687.003427	20317.900000
689.306797	20425.250000
691.611581	20438.700000
693.911779	20411.300000
696.213391	20653.100000
698.514419	20469.450000
700.810864	20577.350000
703.108725	20583.650000
705.406002	20570.350000
707.702696	20562.150000
709.994814	20496.500000
712.290343	20612.400000
714.581298	20798.850000
716.873668	20744.300000
719.163463	20782.450000
721.452677	20780.850000
723.741312	20788.400000
726.027374	20909.000000
728.314851	21026.000000
730.599756	20912.050000
732.884084	21029.850000
735.165843	21155.750000
737.449016	21024.750000
739.731612	21165.950000
742.009652	21248.150000
744.289107	21332.900000
746.567986	21410.900000
748.846289	21578.950000
751.120043	21645.300000
753.395211	21676.250000
755.669805	21769.850000
757.941839	21743.400000
760.215287	21866.200000
762.486177	22000.350000
764.754511	21961.050000
767.024258	22009.300000
769.291451	21992.400000
771.558073	22185.000000
773.824125	22329.550000
776.087626	22128.250000
778.352540	22160.300000
780.616884	22323.850000
782.876699	22210.800000
785.137926	22346.650000
787.398586	22477.950000
789.656700	22434.300000
791.912269	22445.350000
794.171229	22549.150000
796.423690	22626.100000
798.681517	22610.000000
800.934826	22687.950000
803.185595	22726.350000
805.437776	22645.550000
807.687418	22755.500000
809.938473	22849.300000
812.185016	22805.700000
814.432971	22870.800000
816.678392	23133.400000
818.925224	22918.700000
821.171495	23066.950000
823.413262	23128.700000
825.658411	23201.950000
827.897088	23168.850000
830.139147	23253.400000
832.376708	23291.100000
834.615681	23462.550000
836.852127	23387.650000
839.089984	23382.800000
841.325316	23287.150000
843.558125	23628.800000
845.792345	23626.750000
848.024043	23674.050000
850.255185	23701.450000
852.485774	23754.450000
854.715807	23941.300000
856.945287	23919.150000
859.170285	24039.300000
861.398658	24085.050000
863.622552	24212.050000
865.847856	24243.500000
868.068685	24601.050000
870.292886	24511.750000
872.512614	24526.750000
874.733753	24632.950000
876.954341	24812.850000
879.172419	24878.700000
881.391907	24959.600000
883.606929	25029.500000
885.821404	24960.900000
888.035330	25211.100000
890.248710	25157.850000
892.461542	25055.650000
894.673828	25090.500000
896.883611	25297.900000
899.092849	25085.700000
901.301542	25194.300000
903.507736	25178.500000
905.715339	25170.100000
907.920444	25052.600000
910.125006	25174.150000
912.327073	25268.550000
914.530549	25122.400000
916.731531	25184.450000
918.931972	25138.700000
921.133820	25079.700000
923.329278	25040.900000
925.528095	24947.150000
927.722473	25025.050000
929.920209	24825.800000
932.113509	24842.750000
934.308218	24875.350000
936.500441	24757.400000
938.692126	24796.700000
940.883272	24744.450000
943.071936	24846.050000
945.260064	25018.850000
947.445711	24883.400000
949.634710	25036.500000
951.819286	24976.950000
954.003327	25125.800000
956.190718	25199.450000
958.369805	25299.750000
960.552243	25304.900000
962.734147	25397.900000
964.913576	25498.250000
967.090533	25582.650000
969.268898	25653.250000
971.448670	25788.850000
973.622093	25676.300000
975.798862	25800.050000
977.971224	25821.250000
980.144994	25786.600000
982.314360	25687.650000
984.487070	25882.600000
986.657315	25796.000000
988.827031	25757.800000
990.996218	25822.400000
993.161008	25829.850000
995.329139	25900.600000
997.492876	25786.750000
999.658019	25662.650000
1001.820703	25755.600000
1003.982862	25705.600000
1006.142564	25846.700000
1008.301741	25651.550000
1010.462326	25713.850000
1012.620455	25564.450000
1014.778060	25585.050000
1016.935142	25413.400000
1019.091701	25400.000000
1021.243880	25455.800000
1023.397465	25325.200000
1025.550529	25390.450000
1027.701145	25278.000000
1029.853166	25277.550000
1032.000814	25272.350000
1034.151794	25278.350000
1036.298403	25273.450000
1038.444493	25354.350000
1040.590065	25353.450000
1042.737042	25292.250000
1044.877730	25384.350000
1047.021748	25207.050000
1049.163325	25440.600000
1051.304386	25416.300000
1053.446851	25451.350000
1055.583037	25486.700000
1057.722549	25585.650000
1059.857705	25413.200000
1061.996186	25555.800000
1064.130313	25351.300000
1066.263927	25576.750000
1068.398946	25435.900000
1070.529615	25709.500000
1072.661689	25625.200000
1074.791334	25614.500000
1076.920467	25736.100000
1079.049088	25812.800000
1081.177198	25894.600000
1083.302882	25825.900000
1085.428056	25939.850000
1087.554634	25986.900000
1089.676874	25989.850000
1091.800519	26152.200000
1093.919830	26046.050000
1096.044369	26006.350000
1098.162663	25996.800000
1100.282362	26163.300000
1102.399642	26339.050000
1104.516416	26228.450000
1106.632683	26405.300000
1108.746534	26449.400000
1110.861790	26322.200000
1112.972722	26477.950000
1115.086967	26423.450000
1117.196891	26558.800000
1119.308219	26526.300000
1121.419042	26544.500000
1123.525549	26434.550000
1125.635366	26563.000000
1127.740868	26589.750000
1129.847773	26503.700000
1131.948463	26340.200000
1134.054365	26538.700000
1136.155958	26493.400000
1138.258954	26631.850000
1140.361449	26439.300000
1142.457737	26399.000000
1144.559233	26460.550000
1146.656425	26530.450000
1148.753120	26382.650000
1150.849316	26522.250000
1152.945015	26549.250000
1155.040215	26643.850000
1157.133020	26549.600000
1159.227226	26651.950000
1161.315241	26850.400000
1163.408454	26794.300000
1165.495479	26806.700000
1167.585803	26674.750000
1169.671840	26897.900000
1171.761174	26913.000000
1173.844327	26926.300000
1175.928882	27074.050000
1178.014839	26969.150000
1180.096514	27064.250000
1182.179591	27038.650000
1184.260282	27077.350000
1186.340481	27129.250000
1188.420189	27171.300000
1190.499406	27218.150000
1192.576241	27271.050000
1194.650695	27309.900000
1196.728440	27338.000000
1198.801916	27253.550000
1200.876792	27368.500000
1202.947401	27337.600000
1205.019412	27424.800000
1207.089046	27464.800000
1209.160081	27442.000000
1211.230628	27685.700000
1213.296914	27566.250000
1215.364601	27671.750000
1217.429916	27685.700000
1219.496631	27658.500000
1221.559090	27839.050000
1223.624834	27787.800000
1225.686325	27836.650000
1227.749215	27947.050000
1229.809738	27774.000000
1231.869777	27895.050000
1233.929334	27934.450000
1235.986525	28000.250000
1238.043235	28243.100000
1240.097582	28103.850000
1242.155209	28088.450000
1244.210474	28339.350000
1246.261498	28292.800000
1248.313922	28304.950000
1250.365866	28432.150000
1252.415452	28433.050000
1254.464559	28449.300000
1256.513188	28421.850000
1258.561338	28787.450000
1260.609009	28696.100000
1262.652451	28680.900000
1264.699167	28681.700000
1266.743530	28620.500000
1268.787417	28750.650000
1270.828952	28775.050000
1272.868138	28678.150000
1274.910597	28794.600000
1276.948833	28856.850000
1278.988468	29074.500000
1281.027628	28590.900000
1283.062569	28968.450000
1285.098909	28735.050000
1287.132905	28909.900000
1289.168299	28849.600000
1291.199479	28947.750000
1293.232057	28970.050000
1295.264164	29152.700000
1297.293930	28948.900000
1299.325094	28855.650000
1301.352050	29174.850000
1303.380404	29092.600000
1305.404554	29130.450000
1307.431968	29323.450000
1309.455180	29024.800000
1311.479790	29438.600000
1313.502066	29343.100000
1315.525739	29330.450000
1317.547079	29519.100000
1319.567951	29400.250000
1321.588356	29419.550000
1323.604568	29757.550000
1325.622177	29440.850000
1327.637458	29558.100000
1329.655998	29837.800000
1331.670349	29610.600000
1333.682374	29852.000000
1335.697656	29819.900000
1337.708753	29724.500000
1339.721247	29488.500000
1341.729558	29991.000000
1343.741125	29563.400000
1345.746652	29668.500000
1347.755435	29458.700000
1349.760040	29513.750000
1351.767899	29391.300000
1353.775296	29630.750000
1355.776662	29466.050000
1357.779425	29559.600000
1359.781727	29549.950000
1361.783570	29380.050000
1363.784953	29440.150000
1365.784023	29590.050000
1367.782634	29501.050000
1369.780787	29512.750000
1371.778481	29456.550000
1373.772013	29436.100000
1375.766941	29540.750000
1377.761411	29533.950000
1379.755426	29595.700000
1381.747132	29651.950000
1383.738384	29465.700000
1385.727330	29529.350000
1387.717671	29564.600000
1389.707557	29439.750000
1391.695140	29736.800000
1393.682268	29604.800000
1395.667095	29678.800000
1397.653317	29637.400000
1399.637239	29623.500000
1401.620708	29773.450000
1403.603724	29743.800000
1405.584443	29855.750000
1407.566556	29691.550000
1409.546373	29828.650000
1411.525738	29672.600000
1413.500965	29885.350000
1415.479431	29805.100000
1417.455602	29966.000000
1419.431325	30010.400000
1421.406598	30026.150000
1423.379580	30196.800000
1425.352114	30226.050000
1427.324200	30019.050000
1429.295839	30158.800000
1431.263349	30186.150000
1433.235933	30295.400000
1435.200712	30295.850000
1437.170562	30334.150000
1439.136289	30368.350000
1441.103408	30379.950000
1443.068244	30170.400000
1445.028960	30218.600000
1446.994744	30278.200000
1448.954574	30244.000000
1450.915796	30380.400000
1452.878411	30338.900000
1454.836911	30270.350000
1456.794968	30386.350000
1458.752584	30517.450000
1460.709757	30325.850000
1462.664656	30428.550000
1464.620946	30468.600000
1466.574962	30438.600000
1468.528537	30376.900000
1470.479841	30463.800000
1472.432536	30516.450000
1474.382960	30211.100000
1476.332944	30321.300000
1478.282490	30599.950000
1480.229767	30514.550000
1482.174777	30343.750000
1484.121178	30412.050000
1486.067142	30635.550000
1488.012669	30743.500000
1489.955931	30502.350000
1491.898756	30604.950000
1493.839318	30396.400000
1495.781271	30503.250000
1497.720962	30639.650000
1499.660219	30396.200000
1501.599040	30549.750000
1503.535602	30351.050000
1505.473555	30690.500000
1507.409249	30619.700000
1509.344510	30478.550000
1511.277515	30254.600000
1513.210087	30395.700000
1515.142227	30481.300000
1517.073935	30318.700000
1519.003389	30411.450000
1520.934234	30387.800000
1522.864647	30364.400000
1524.790988	30464.250000
1526.718720	30610.850000
1528.644201	30512.700000
1530.569253	30528.900000
1532.493876	30677.800000
1534.418070	30559.650000
1536.340016	30649.600000
1538.263353	30579.950000
1540.184444	30692.500000
1542.103290	30873.450000
1544.023525	30869.100000
1545.941518	30729.450000
1547.859084	30719.500000
1549.774408	30864.900000
1551.691122	30762.600000
1553.603781	30681.950000
1555.519644	30699.100000
1557.433267	30799.600000
1559.344653	30784.200000
1561.257427	30644.900000
1563.166152	30634.500000
1565.076266	30935.250000
1566.985957	30516.800000
1568.895225	30815.500000
1570.802259	30751.400000
1572.707060	30627.100000
1574.613250	30715.050000
1576.517208	30755.400000
1578.420745	30630.800000
1580.323862	30579.400000
1582.224749	31092.250000
1584.127025	30739.500000
1586.027073	30643.250000
1587.928508	30682.500000
1589.825910	30688.850000
1591.722893	30651.250000
1593.619458	30471.550000
1595.517411	30707.800000
1597.409529	30667.100000
1599.304840	30639.050000
1601.199734	30727.750000
1603.092406	30657.950000
1604.984662	30586.900000
1606.874697	30451.100000
1608.764318	30666.800000
1610.653522	30483.150000
1612.542312	30656.950000
1614.428884	30598.450000
1616.316844	30534.450000
1618.200787	30615.950000
1620.086118	30646.000000
1621.971034	30697.500000
1623.853737	30567.850000
1625.737827	30549.150000
1627.617906	30597.750000
1629.499371	30789.900000
1631.378626	30432.350000
1633.259267	30581.450000
1635.134104	30424.750000
1637.013922	30559.800000
1638.889736	30416.250000
1640.765139	30504.450000
1642.641928	30507.450000
1644.512921	30638.200000
1646.387095	30513.150000
1648.257271	30711.500000
1650.130627	30540.350000
1652.001780	30543.500000
1653.870731	30428.050000
1655.741068	30531.100000
1657.607411	30300.700000
1659.475140	30301.750000
1661.340670	30343.750000
1663.207586	30295.100000
1665.070513	30080.900000
1666.934825	30011.700000
1668.796941	30417.850000
1670.658653	29858.800000
1672.521749	30151.400000
1674.382651	30079.250000
1676.241359	30092.250000
1678.099664	29749.700000
1679.959354	29920.400000
1681.813276	29958.850000
1683.670372	30185.350000
1685.527065	30069.200000
1687.379782	29959.800000
1689.235669	29944.800000
1691.087583	30011.250000
1692.939096	29903.500000
1694.790208	29745.550000
1696.640920	29784.900000
1698.491231	29853.500000
1700.339357	29838.550000
1702.188868	29796.050000
1704.032630	29583.250000
1705.881341	29793.950000
1707.724306	29627.000000
1709.570438	29829.950000
1711.412607	29555.650000
1713.257942	29729.100000
1715.097536	29611.950000
1716.938514	29665.050000
1718.780875	29696.050000
1720.619280	29420.150000
1722.459068	29584.450000
1724.296681	29458.350000
1726.133898	29497.750000
1727.968942	29557.850000
1729.805369	29417.300000
1731.639624	29424.050000
1733.473484	29287.350000
1735.306951	29437.650000
1737.136471	29340.000000
1738.969150	29333.200000
1740.797885	29377.150000
1742.629777	29230.550000
1744.457728	29429.700000
1746.285286	29262.600000
1748.112452	29201.000000
1749.939227	29280.400000
1751.765611	29229.150000
1753.588057	29286.600000
1755.413659	29151.750000
1757.235326	29252.600000
1759.058375	29157.500000
1760.879262	29121.100000
1762.699761	29235.950000
1764.521641	29226.100000
1766.337821	29220.250000
1768.157153	29232.700000
1769.972558	29119.100000
1771.791113	29258.800000
1773.605743	29310.350000
1775.419987	29276.750000
1777.233843	29126.500000
1779.047313	29313.850000
1780.858630	29177.750000
1782.671327	29285.850000
1784.483639	29411.850000
1786.292033	29224.050000
1788.101807	29299.500000
1789.907667	29200.100000
1791.716672	29233.700000
1793.521764	29295.700000
1795.328237	29291.000000
1797.134326	29194.050000
1798.936505	29230.650000
1800.741827	29180.050000
1802.543241	29234.800000
1804.346035	29323.400000
1806.144923	29289.000000
1807.945192	29267.250000
1809.745079	29062.250000
1811.542825	29179.150000
1813.340189	29008.400000
1815.137174	29061.050000
1816.933778	29092.150000
1818.728243	28936.700000
1820.524087	28947.350000
1822.314277	28955.250000
1824.109362	29042.350000
1825.898796	28964.400000
1827.691366	28894.800000
1829.481801	28936.050000
1831.270102	28893.000000
1833.061538	28960.400000
1834.847328	28939.150000
1836.634498	28952.350000
1838.419536	28935.300000
1840.207708	28850.050000
1841.991994	28699.100000
1843.774151	28800.050000
1845.557686	28791.000000
1847.339093	28706.450000
1849.121879	28847.000000
1850.900784	28834.950000
1852.681069	28651.700000
1854.459227	28730.800000
1856.238764	28436.750000
1858.016176	28625.900000
1859.791464	28570.650000
1861.568130	28627.000000
1863.342674	28530.500000
1865.118596	28530.450000
1866.888897	28541.500000
1868.662326	28576.900000
1870.433635	28561.650000
1872.204574	28645.600000
1873.976889	28408.150000
1875.743591	28683.350000
1877.513419	28491.850000
1879.279383	28555.600000
1881.048470	28567.900000
1882.813697	28387.550000
1884.578554	28456.700000
1886.344789	28533.950000
1888.107165	28406.500000
1889.869174	28264.550000
1891.630815	28377.700000
1893.392090	28264.100000
1895.152997	28452.050000
1896.913538	28301.900000
1898.671969	28400.500000
1900.430034	28140.650000
1902.185992	28253.050000
1903.943326	28283.600000
1905.700295	28139.550000
1907.455157	28156.700000
1909.207915	28168.550000
1910.960309	28166.300000
1912.714078	28091.100000
1914.465744	28051.600000
1916.215308	28065.200000
1917.966247	27834.550000
1919.716824	27939.200000
1921.463561	28026.600000
1923.211675	28073.350000
1924.957689	28010.550000
1926.705079	28085.600000
1928.450370	27881.950000
1930.193564	27954.900000
1931.938133	27992.300000
1933.680607	27698.350000
1935.422720	27792.600000
1937.164473	27821.550000
1938.905867	27962.300000
1940.645166	27918.700000
1942.384107	27771.500000
1944.122689	27920.550000
1945.859180	27883.750000
1947.595313	27904.250000
1949.332820	27924.750000
1951.066505	27946.850000
1952.801565	27874.950000
1954.534537	27934.050000
1956.267151	27755.550000
1957.999410	27834.950000
1959.731312	28029.100000
1961.461128	28042.050000
1963.188859	27990.550000
1964.917965	28070.250000
1966.646716	27911.400000
1968.373383	28068.100000
1970.099696	27978.500000
1971.827382	28038.250000
1973.549532	27958.900000
1975.274783	27769.400000
1976.996228	27932.350000
1978.720772	27902.650000
1980.443237	27872.150000
1982.161898	27972.800000
1983.883658	27952.250000
1985.601616	27880.350000
1987.320947	27829.900000
1989.036479	27911.950000
1990.756831	27917.450000
1992.473385	27885.250000
1994.186142	27919.100000
1995.901996	27962.250000
1997.615776	27833.550000
1999.329207	27950.150000
2001.040567	27885.500000
2002.753299	28046.000000
2004.462241	27880.450000
2006.174275	28044.000000
2007.880801	27972.050000
2009.590418	27856.100000
2011.297969	28003.800000
2013.005172	27989.650000
2014.710308	27884.000000
2016.415099	27907.400000
2018.121261	27852.850000
2019.823641	27903.000000
2021.527393	27869.700000
2023.229081	27728.850000
2024.930425	27872.000000
2026.631423	27732.850000
2028.330360	27847.900000
2030.030669	27818.600000
2031.727203	27815.950000
2033.425108	27855.250000
2035.120954	27900.200000
2036.819886	27964.600000
2038.513332	27760.250000
2040.208149	27837.700000
2041.902624	27999.500000
2043.593330	27838.150000
2045.287120	27930.550000
2046.977143	27857.300000
2048.668537	27631.800000
2050.357878	27770.850000
2052.048589	27506.100000
2053.735537	27522.650000
2055.422146	27446.800000
2057.110125	27428.850000
2058.794343	27249.700000
2060.479933	27195.050000
2062.165183	27349.200000
2063.848385	26985.300000
2065.532956	27144.250000
2067.212065	26957.150000
2068.895959	27122.000000
2070.574393	26912.400000
2072.255903	26923.700000
2073.933663	27000.600000
2075.611085	27125.400000
2077.289877	26915.350000
2078.966627	26992.000000
2080.641335	27006.050000
2082.317412	26943.950000
2083.991449	26900.150000
2085.665150	26821.650000
2087.338516	26826.450000
2089.009844	26698.500000
2090.680837	26767.400000
2092.351496	26622.150000
2094.021820	26693.500000
2095.691811	26785.750000
2097.359766	26569.700000
2099.027388	26635.350000
2100.692975	26519.150000
2102.359931	26756.200000
2104.024854	26772.400000
2105.689445	26858.200000
2107.352004	26815.700000
2109.015931	27025.250000
2110.677828	26792.550000
2112.339393	26964.600000
2114.000627	26768.600000
2115.659833	26874.200000
2117.318708	26970.500000
2118.977254	26869.200000
2120.635470	26906.300000
2122.289962	26760.000000
2123.947519	26749.650000
2125.604747	26744.850000
2127.258253	26718.600000
2128.913127	26680.900000
2130.564283	26758.450000
2132.218500	26665.350000
2133.869001	26504.900000
2135.520868	26604.650000
2137.167327	26413.750000
2138.818541	26399.000000
2140.466041	26622.000000
2142.114908	26526.250000
2143.761757	26476.850000
2145.408279	26489.350000
2147.054476	26583.500000
2148.696965	26542.800000
2150.342512	26403.700000
2151.984352	26386.350000
2153.629249	26295.050000
2155.270441	26308.000000
2156.911309	26268.950000
2158.551853	26262.300000
2160.190385	26068.000000
2161.830283	26212.850000
2163.466481	26050.950000
2165.104045	26069.150000
2166.741287	25946.750000
2168.376519	25860.850000
2170.011430	25891.250000
2171.646019	25952.000000
2173.280286	25969.450000
2174.910860	25921.500000
2176.544486	25770.600000
2178.174420	25894.500000
2179.805719	25778.100000
2181.435013	25845.250000
2183.063988	25851.000000
2184.692643	25654.850000
2186.320979	25623.400000
2187.947313	25676.950000
2189.573328	25542.700000
2191.197342	25599.000000
2192.822720	25594.150000
2194.446099	25387.050000
2196.070841	25468.350000
2197.691903	25421.800000
2199.312648	25502.500000
2200.934758	25397.850000
2202.554870	25406.950000
2204.172985	25233.900000
2205.790785	25363.350000
2207.408270	25181.450000
2209.025439	25281.850000
2210.642293	25334.350000
2212.258831	25161.850000
2213.873377	25225.550000
2215.485930	25219.150000
2217.099847	25321.450000
2218.711773	25134.850000
2220.325062	25075.750000
2221.936361	25137.500000
2223.545670	25076.250000
2225.156343	25143.100000
2226.765027	25081.300000
2228.373398	24984.850000
2229.979783	25009.950000
2231.587531	25000.500000
2233.193292	25015.450000
2234.798742	24927.900000
2236.402207	24908.300000
2238.007035	24949.800000
2239.609879	24932.300000
2241.210740	25015.650000
2242.812964	24891.000000
2244.413206	25009.600000
2246.014810	24849.400000
2247.612762	24978.150000
2249.212075	24944.600000
2250.809410	25026.050000
2252.406435	24893.300000
2254.004823	24971.050000
2255.599562	24986.100000
2257.192324	25028.700000
2258.786449	24845.700000
2260.381935	24978.600000
2261.973777	24799.100000
2263.565312	24814.150000
2265.158208	24683.650000
2266.745795	24764.950000
2268.338079	24718.300000
2269.925055	24755.200000
2271.515059	24743.500000
2273.099760	24480.100000
2274.689153	24533.900000
2276.273245	24349.100000
2277.858698	24294.700000
2279.442181	24292.350000
2281.028691	24069.450000
2282.611566	24128.800000
2284.194139	23985.700000
2285.776408	24159.100000
2287.355048	24177.250000
2288.936711	23998.400000
2290.514746	24001.450000
2292.095804	23931.250000
2293.673235	23836.250000
2295.248703	23741.250000
2296.827193	23712.900000
2298.402059	23763.800000
2299.976624	23692.750000
2301.550889	23649.300000
2303.124853	23732.550000
2304.698517	23673.000000
2306.271880	23558.250000
2307.841625	23543.450000
2309.411071	23596.000000
2310.983535	23607.350000
2312.550725	23644.000000
2314.120933	23562.000000
2315.687526	23616.750000
2317.255479	23563.650000
2318.821476	23658.750000
2320.387176	23560.700000
2321.952578	23733.750000
2323.516027	23618.750000
2325.080835	23741.150000
2326.642035	23673.450000
2328.206249	23587.550000
2329.765201	23579.650000
2331.327168	23708.450000
2332.887184	23642.100000
2334.446904	23383.100000
2336.004675	23596.650000
2337.562151	23544.650000
2339.119333	23598.400000
2340.674567	23596.050000
2342.229508	23513.350000
2343.784155	23638.100000
2345.338507	23517.650000
2346.892567	23598.050000
2348.446332	23628.550000
2349.998154	23520.900000
2351.548032	23484.300000
2353.100918	23533.450000
2354.648562	23523.900000
2356.199213	23420.600000
2357.746273	23430.350000
2359.294691	23366.950000
2360.842818	23339.950000
2362.387356	23424.500000
2363.933252	23269.950000
2365.477210	23291.800000
2367.022525	23261.700000
2368.564255	23229.150000
2370.107342	23211.650000
2371.648493	23192.850000
2373.189355	23161.650000
2374.729928	23199.500000
2376.270212	23101.850000
2377.810207	23066.000000
2379.346624	23065.150000
2380.886042	22955.600000
2382.421883	23098.900000
2383.959080	22828.450000
2385.492702	22840.600000
2387.029325	22929.500000
2388.564016	22835.550000
2390.096778	22813.800000
2391.629253	22807.050000
2393.159800	22743.250000
2394.693345	22869.600000
2396.221679	22905.250000
2397.751370	22628.350000
2399.280775	22714.650000
2400.809894	22583.250000
2402.338729	22750.500000
2403.862358	22682.100000
2405.390624	22712.350000
2406.913686	22606.650000
2408.441382	22638.550000
2409.962239	22484.650000
2411.487729	22683.550000
2413.009658	22681.800000
2414.532943	22642.850000
2416.054306	22664.750000
2417.573751	22663.900000
2419.094550	22690.850000
2420.613430	22669.600000
2422.132028	22594.450000
2423.648709	22521.200000
2425.166744	22575.800000
2426.684498	22570.500000
2428.198701	22657.050000
2429.712623	22595.200000
2431.226265	22512.350000
2432.741262	22504.250000
2434.252710	22391.350000
2435.765513	22549.350000
2437.276402	22524.900000
2438.787013	22426.700000
2440.295712	22380.200000
2441.807397	22394.650000
2443.315539	22315.150000
2444.823403	22264.900000
2446.330989	22155.300000
2447.835034	22323.200000
2449.342065	22121.550000
2450.847187	22181.800000
2452.352032	22213.950000
2453.854969	22106.850000
2455.357631	22018.600000
2456.860016	22102.650000
2458.360496	21838.150000
2459.862329	21645.650000
2461.362257	21780.900000
2462.861911	21684.200000
2464.361288	21663.600000
2465.858763	21715.000000
2467.354336	21666.000000
2468.852889	21687.000000
2470.347914	21644.900000
2471.844291	21575.450000
2473.337142	21600.300000
2474.831346	21543.050000
2476.325276	21511.000000
2477.815682	21460.300000
2479.309066	21565.200000
2480.800552	21417.250000
2482.290141	21437.300000
2483.779458	21313.200000
2485.266880	21342.400000
2486.757277	21348.300000
2488.244155	21354.250000
2489.732385	21306.200000
2491.217099	21309.050000
2492.701542	21118.050000
2494.187337	21204.900000
2495.671239	21157.850000
2497.156493	21162.600000
2498.636612	21241.600000
2500.119705	21233.250000
2501.600907	21188.100000
2503.081840	21260.250000
2504.560884	21351.750000
2506.039659	21209.250000
2507.518166	21271.350000
2508.996405	21304.100000
2510.474375	21307.800000
2511.948840	21295.700000
2513.426275	21267.150000
2514.900206	21333.050000
2516.375487	21331.900000
2517.850502	21180.600000
2519.322015	21234.200000
2520.794878	21398.800000
2522.265859	21215.800000
2523.738190	21247.100000
2525.205407	21352.800000
2526.675591	21205.250000
2528.143894	21229.100000
2529.611932	21250.600000
2531.079705	21284.300000
2532.547213	21142.950000
2534.014456	21309.100000
2535.478207	21321.700000
2536.943308	21218.800000
2538.406532	21203.900000
2539.871106	21200.300000
2541.332190	21361.000000
2542.794624	21183.250000
2544.256795	21334.300000
2545.715480	21309.550000
2547.178737	21162.800000
2548.636897	21340.000000
2550.096406	21225.400000
2551.550821	21142.550000
2553.009807	21244.550000
2554.466921	21055.200000
2555.922164	21092.050000
2557.377146	21055.900000
2558.830258	21077.200000
2560.284719	20937.400000
2561.737311	20959.750000
2563.189643	20879.350000
2564.640107	20917.900000
2566.093527	20988.800000
2567.541865	20742.650000
2568.993159	20933.750000
2570.442586	20847.750000
2571.888541	20870.800000
2573.337451	20820.350000
2574.782891	20860.550000
2576.229678	20898.150000
2577.674603	20732.150000
2579.119269	20857.900000
2580.565284	20609.800000
2582.007831	20683.900000
2583.451726	20599.650000
2584.892156	20555.100000
2586.333933	20447.900000
2587.773851	20482.550000
2589.215116	20461.250000
2590.652919	20553.950000
2592.093673	20601.350000
2593.529363	20476.900000
2594.968003	20563.250000
2596.404785	20572.050000
2597.839712	20555.450000
2599.277586	20339.350000
2600.710403	20572.750000
2602.144567	20339.300000
2603.576877	20566.250000
2605.010533	20458.550000
2606.442336	20279.800000
2607.873885	20310.700000
2609.305182	20321.500000
2610.734626	20388.600000
2612.163818	20288.850000
2613.591160	20253.900000
2615.019847	20205.050000
2616.448283	20162.150000
2617.873271	20190.200000
2619.299606	20070.050000
2620.724092	20141.850000
2622.149924	19999.200000
2623.572312	20179.100000
2624.996046	20091.200000
2626.417933	20116.300000
2627.839571	20081.950000
2629.259363	19908.850000
2630.680501	19897.350000
2632.101389	19853.600000
2633.518839	19894.200000
2634.939228	19984.000000
2636.356180	19828.350000
2637.772883	19873.000000
2639.189339	19832.000000
2640.605545	19872.850000
2642.021504	19683.550000
2643.435622	19794.550000
2644.849493	19775.950000
2646.261524	19599.450000
2647.674900	19638.450000
2649.084846	19693.700000
2650.497727	19618.850000
2651.907180	19746.900000
2653.316387	19801.650000
2654.723758	19547.050000
2656.134064	19579.200000
2657.542533	19537.000000
2658.949167	19689.100000
2660.355556	19445.150000
2661.760111	19464.700000
2663.166010	19506.650000
2664.570076	19495.800000
2665.973897	19583.850000
2667.377475	19347.900000
2668.779220	19628.000000
2670.182309	19630.250000
2671.581980	19527.700000
2672.982995	19470.200000
2674.380594	19514.150000
2675.781123	19444.550000
2677.178236	19475.200000
2678.576694	19405.850000
2679.973323	19488.150000
2681.369710	19352.750000
2682.765856	19486.150000
2684.160175	19305.800000
2685.555836	19328.800000
2686.948089	19319.550000
2688.341684	19261.450000
2689.733455	19310.800000
2691.126569	19244.450000
2692.517859	19062.250000
2693.907326	19288.750000
2695.296553	19113.900000
2696.685541	19111.050000
2698.075870	19180.000000
2699.461216	19142.900000
2700.849485	19022.350000
2702.235934	18988.200000
2703.622144	19024.950000
2705.008116	18913.100000
2706.390688	19032.800000
2707.774603	18922.200000
2709.158280	18790.350000
2710.541719	18935.500000
2711.921762	18860.400000
2713.303147	18991.500000
2714.682716	18969.000000
2716.063627	18816.750000
2717.442722	18968.450000
2718.820004	18809.250000
2720.198627	18902.750000
2721.575437	18890.200000
2722.952011	18799.950000
2724.328349	18854.150000
2725.702875	18795.200000
2727.078742	18837.600000
2728.451222	18739.000000
2729.826618	18815.000000
2731.197054	18736.350000
2732.568831	18660.200000
2733.940373	18663.000000
2735.310107	18669.650000
2736.681182	18731.850000
2738.050448	18617.350000
2739.419481	18578.400000
2740.786708	18569.500000
2742.153702	18631.950000
2743.520463	18507.850000
2744.886991	18486.950000
2746.251714	18559.050000
2747.616206	18566.500000
2748.980465	18477.050000
2750.344492	18636.350000
2751.708288	18516.050000
2753.068710	18563.450000
2754.432042	18453.500000
2755.790433	18427.850000
2757.151732	18391.850000
2758.509662	18423.900000
2759.870500	18188.700000
2761.229539	18193.600000
2762.585209	18316.300000
2763.943787	18097.450000
2765.298998	18139.200000
2766.653980	17949.900000
2768.007166	18128.250000
2769.363258	18096.600000
2770.715985	18094.550000
2772.068485	18057.450000
2773.420756	17959.750000
2774.774366	17874.300000
2776.124614	17961.800000
2777.473069	17965.700000
2778.824428	17842.900000
2780.172428	17867.950000
2781.521766	17824.550000
2782.869313	17847.550000
2784.216632	17812.350000
2785.563725	17710.150000
2786.909027	17614.200000
2788.254103	17717.250000
2789.598952	17627.550000
2790.943576	17594.100000
2792.284848	17502.600000
2793.627458	17606.800000
2794.969842	17613.800000
2796.312002	17683.750000
2797.650812	17636.600000
2798.992521	17596.550000
2800.330883	17607.750000
2801.670582	17633.250000
2803.008495	17619.050000
2804.344624	17546.700000
2805.680529	17629.250000
2807.017772	17536.600000
2808.353231	17623.700000
2809.688467	17594.000000
2811.021920	17575.950000
2812.356710	17641.300000
2813.688160	17599.600000
2815.022505	17658.750000
2816.351952	17450.050000
2817.682736	17697.350000
2819.013298	17547.400000
2820.342081	17503.350000
2821.672200	17580.150000
2823.000541	17598.000000
2824.328661	17665.100000
2825.655003	17535.100000
2826.982682	17507.400000
2828.307027	17545.600000
2829.632709	17355.900000
2830.956615	17430.600000
2832.280302	17359.600000
2833.605324	17411.800000
2834.927016	17343.500000
2836.248490	17331.400000
2837.569745	17401.500000
2838.890781	17393.600000
2840.210045	17294.750000
2841.530644	17430.950000
2842.849471	17275.200000
2844.168080	17272.850000
2845.484918	17198.850000
2846.801539	17179.800000
2848.117943	17143.150000
2849.432577	17153.850000
2850.748547	17118.100000
2852.061196	17169.050000
2853.375180	17005.050000
2854.688948	17096.100000
2856.002500	17031.600000
2857.314284	17011.050000
2858.624302	17067.800000
2859.935655	17052.550000
2861.243693	17020.200000
2862.553065	17042.150000
2863.862223	17094.300000
2865.171165	16877.950000
2866.478343	17006.500000
2867.783759	17042.350000
2869.090509	17052.050000
2870.395496	17095.100000
2871.700270	16917.000000
2873.003282	16989.450000
2874.309176	16935.100000
2875.610214	16793.550000
2876.912587	16893.900000
2878.213200	16953.950000
2879.515147	16898.600000
2880.816881	16769.550000
2882.115310	16904.500000
2883.415073	16697.950000
2884.713079	16691.650000
2886.010873	16725.450000
2887.306911	16594.500000
2888.604282	16654.600000
2889.899897	16556.050000
2891.195301	16555.800000
2892.490494	16593.350000
2893.782390	16563.100000
2895.077162	16542.650000
2896.368637	16555.600000
2897.661445	16517.300000
2898.954043	16526.450000
2900.243347	16551.650000
2901.533983	16408.050000
2902.822868	16487.700000
2904.113086	16464.100000
2905.400011	16580.650000
2906.688270	16615.700000
2907.974778	16514.750000
2909.261079	16513.500000
2910.547171	16455.750000
2911.831515	16384.900000
2913.118730	16511.300000
2914.401119	16450.000000
2915.684840	16417.450000
2916.966815	16387.100000
2918.248582	16387.500000
2919.528605	16402.350000
2920.811497	16352.050000
2922.092644	16313.100000
2923.370509	16486.050000
2924.651243	16343.100000
2925.928696	16256.300000
2927.205943	16292.450000
2928.481449	16240.050000
2929.759822	16301.500000
2931.033380	16038.450000
2932.309806	16170.200000
2933.584491	16141.200000
2934.857436	16024.250000
2936.131711	16086.850000
2937.404247	16090.100000
2938.676579	16015.150000
2939.945637	16093.200000
2941.217561	15956.000000
2942.487747	15984.000000
2943.757730	15955.350000
2945.027509	15888.650000
2946.295551	15905.700000
2947.561858	15786.350000
2948.827962	15841.850000
2950.095396	15882.750000
2951.361096	15818.100000
2952.626593	15782.300000
2953.891888	15750.900000
2955.153918	15656.650000
2956.417279	15716.650000
2957.680437	15667.050000
2958.941864	15750.700000
2960.204620	15469.600000
2961.465645	15774.100000
2962.724938	15546.350000
2963.984032	15717.850000
2965.242925	15605.350000
2966.501618	15652.900000
2967.760111	15564.800000
2969.016875	15543.800000
2970.273439	15535.800000
2971.528276	15467.550000
2972.784441	15515.300000
2974.037352	15650.300000
2975.291592	15515.150000
2976.545633	15603.100000
2977.797948	15462.700000
2979.050064	15448.550000
2980.300456	15421.200000
2981.553703	15454.950000
2982.802173	15317.000000
2984.053498	15572.850000
2985.301573	15458.600000
2986.549452	15405.650000
2987.797133	15334.000000
2989.044617	15309.750000
2990.290380	15295.200000
2991.535947	15305.150000
2992.782841	15402.500000
2994.026491	15312.150000
2995.271469	15397.700000
2996.513203	15345.850000
2997.757789	15357.050000
2999.000656	15349.650000
3000.240282	15365.750000
3001.482758	15378.000000
3002.721995	15261.150000
3003.962558	15301.500000
3005.201406	15341.950000
3006.440058	15165.300000
3007.676996	15292.150000
3008.915260	15195.350000
3010.151810	15310.700000
3011.388165	15146.750000
3012.624327	15260.300000
3013.858776	15242.550000
3015.093031	15132.900000
3016.327093	15218.850000
3017.559443	15187.400000
3018.790081	15177.150000
3020.023565	15093.000000
3021.255337	15148.150000
3022.485399	15170.900000
3023.715269	15132.750000
3024.943429	14969.650000
3026.172915	15179.350000
3027.400692	15121.850000
3028.628279	15128.150000
3029.857191	15113.950000
3031.081361	14980.650000
3032.308374	15010.400000
3033.532163	14998.450000
3034.757279	15035.900000
3035.980688	14957.800000
3037.203907	14997.550000
3038.425421	15041.800000
3039.649776	14880.600000
3040.869396	14911.550000
3042.090342	14881.900000
3043.311099	14904.350000
3044.530152	14880.000000
3045.750531	14941.950000
3046.967693	14784.100000
3048.186180	14758.850000
3049.402965	14800.400000
3050.619563	14813.950000
3051.835972	14709.250000
3053.049169	14758.250000
3054.265203	14830.950000
3055.478025	14636.000000
3056.693684	14637.850000
3057.904620	14631.500000
3059.116881	14563.500000
3060.328956	14604.700000
3061.540844	14608.800000
3062.751034	14617.500000
3063.961038	14563.950000
3065.170856	14484.500000
3066.378979	14582.150000
3067.586915	14426.400000
3068.793156	14548.350000
3070.000722	14567.550000
3071.206593	14555.350000
3072.412280	14543.150000
3073.617781	14479.500000
3074.821589	14469.450000
3076.026721	14307.700000
3077.230161	14670.150000
3078.431908	14384.050000
3079.633472	14364.950000
3080.834851	14435.350000
3082.036048	14436.550000
3083.235553	14400.750000
3084.434876	14430.950000
3085.635522	14354.050000
3086.834478	14366.050000
3088.030240	14324.050000
3089.228831	14375.500000
3090.424228	14295.900000
3091.620948	14240.600000
3092.814476	14228.900000
3094.010832	14299.550000
3095.205502	14151.900000
3096.396981	14184.500000
3097.592791	14226.350000
3098.783908	14195.100000
3099.976347	14222.700000
3101.165599	14168.750000
3102.357677	14130.000000
3103.548070	14064.950000
3104.735278	14252.950000
3105.923809	14115.050000
3107.113661	14149.350000
3108.300330	14039.000000
3109.486819	14105.950000
3110.673128	14052.000000
3111.860759	13886.450000
3113.045208	13947.600000
3114.227978	13823.350000
3115.413570	13794.250000
3116.597483	13782.900000
3117.779717	13953.850000
3118.961772	13791.850000
3120.143650	13886.450000
3121.325349	13873.050000
3122.505370	13783.300000
3123.683715	13712.750000
3124.864880	13811.200000
3126.042871	13805.650000
3127.220684	13736.000000
3128.398320	13695.750000
3129.574281	13654.950000
3130.750065	13659.450000
3131.927171	13706.750000
3133.102602	13679.650000
3134.276360	13514.950000
3135.448445	13596.950000
3136.621852	13624.050000
3137.795082	13675.100000
3138.966641	13585.950000
3140.139520	13671.800000
3141.309233	13608.400000
3142.480265	13647.750000
3143.649628	13827.500000
3144.817321	13600.450000
3145.987829	13617.050000
3147.153678	13660.450000
3148.323837	13555.250000
3149.489338	13558.750000
3150.654666	13593.850000
3151.819820	13512.100000
3152.984800	13623.350000
3154.151100	13534.100000
3155.312748	13484.700000
3156.475715	13337.500000
3157.638510	13346.300000
3158.801132	13353.350000
3159.962089	13104.300000
3161.122873	13179.650000
3162.283485	13150.500000
3163.442433	13095.700000
3164.601210	13140.900000
3165.759815	13044.900000
3166.918248	12981.000000
3168.076509	13139.550000
3169.233108	13055.100000
3170.388046	12965.400000
3171.544303	12997.600000
3172.698899	12946.200000
3173.853325	13016.600000
3175.006091	12947.050000
3176.158687	12886.500000
3177.311112	12917.200000
3178.463368	12919.700000
3179.615453	12905.700000
3180.764393	12829.100000
3181.916139	12913.800000
3183.066227	12831.100000
3184.214659	12919.300000
3185.362922	12866.100000
3186.511015	12941.200000
3187.658940	12941.650000
3188.805210	12998.250000
3189.951311	13088.250000
3191.095757	13045.650000
3192.240036	13092.100000
3193.384147	13084.300000
3194.529575	12971.800000
3195.671865	12943.750000
3196.813988	12968.950000
3197.955943	12986.350000
3199.097731	12933.000000
3200.239353	12847.500000
3201.377838	12916.300000
3202.517641	12824.550000
3203.658762	12793.850000
3204.796748	12854.650000
3205.933085	12803.800000
3207.069256	12776.350000
3208.206745	12825.700000
3209.342584	12714.450000
3210.479741	12781.100000
3211.612285	12644.950000
3212.749111	12758.650000
3213.881325	12640.000000
3215.014856	12647.450000
3216.148223	12531.950000
3217.278462	12609.250000
3218.411499	12534.900000
3219.541410	12445.150000
3220.672637	12382.100000
3221.800740	12375.750000
3222.931639	12355.800000
3224.060894	12393.850000
3225.188506	12331.900000
3226.312996	12375.950000
3227.441760	12432.800000
3228.567403	12318.450000
3229.692884	12359.100000
3230.816723	12402.550000
3231.943356	12340.750000
3233.065392	12374.450000
3234.188744	12298.400000
3235.311934	12305.250000
3236.434962	12211.500000
3237.556350	12266.900000
3238.677577	12175.250000
3239.797165	12295.600000
3240.916592	12144.250000
3242.034381	12222.250000
3243.154962	12209.100000
3244.272430	12251.400000
3245.389737	12292.700000
3246.506884	12296.550000
3247.622395	12334.400000
3248.739221	12357.450000
3249.852936	12337.100000
3250.969441	12423.550000
3252.084312	12284.800000
3253.196074	12355.650000
3254.307676	12267.300000
3255.420594	12252.650000
3256.533353	12188.550000
3257.643005	12224.450000
3258.753971	12224.400000
3259.864779	12109.500000
3260.973956	12128.100000
3262.081501	12228.600000
3263.190360	12056.850000
3264.299062	12172.800000
3265.404661	12078.600000
3266.511574	12183.900000
3267.616858	12122.850000
3268.723457	12173.950000
3269.826955	12108.700000
3270.931767	12165.650000
3272.036422	12093.850000
3273.137978	12077.850000
3274.239378	12111.300000
3275.342093	12111.650000
3276.444650	12118.600000
3277.544111	12106.250000
3278.646356	12068.400000
3279.745505	11971.450000
3280.843030	12024.350000
3281.940399	12052.950000
3283.040551	11982.300000
3284.137609	12001.550000
3285.234512	11969.300000
3286.331260	11949.200000
3287.423450	11991.700000
3288.519888	11917.800000
3289.614704	11875.050000
3290.709366	12013.350000
3291.802406	11845.600000
3292.895292	11955.450000
3293.986557	11867.750000
3295.079135	11819.700000
3296.170092	11904.050000
3297.259430	11922.350000
3298.348615	11878.600000
3299.439113	11782.200000
3300.526526	11862.400000
3301.613787	11808.550000
3302.702360	11828.800000
3303.790780	11877.250000
3304.874653	11703.350000
3305.962768	11863.850000
3307.047802	11904.500000
3308.131219	11906.100000
3309.215949	11746.700000
3310.299064	11870.900000
3311.383490	11827.700000
3312.464838	11751.700000
3313.547498	11880.600000
3314.628544	11669.950000
3315.709439	11741.050000
3316.788720	11624.900000
3317.867852	11695.850000
3318.948294	11645.500000
3320.025662	11650.850000
3321.104342	11711.700000
3322.181411	11643.150000
3323.258329	11744.350000
3324.333636	11557.000000
3325.408794	11606.150000
3326.485263	11624.350000
3327.558662	11594.050000
3328.631912	11571.250000
3329.706472	11576.050000
3330.779424	11533.500000
3331.850767	11575.850000
3332.923422	11520.600000
3333.993009	11436.100000
3335.063907	11389.750000
3336.133198	11347.900000
3337.203800	11369.850000
3338.272795	11346.950000
3339.340184	11300.200000
3340.405968	11236.300000
3341.475978	11182.450000
3342.542925	11163.750000
3343.606810	11190.000000
3344.673463	11199.450000
3345.738511	11101.300000
3346.801956	11159.500000
3347.865255	11196.750000
3348.928407	11113.100000
3349.991413	11158.250000
3351.054273	11075.150000
3352.115531	11093.650000
3353.173732	11023.800000
3354.236154	11028.600000
3355.295519	10976.000000
3356.354739	11050.700000
3357.415269	10947.400000
3358.471289	11050.450000
3359.530073	11053.000000
3360.584350	11074.300000
3361.641391	11058.600000
3362.696834	11126.450000
3363.753585	11101.250000
3364.808738	11028.250000
3365.862294	11036.450000
3366.914254	11073.750000
3367.968975	11105.900000
3369.020647	11110.600000
3370.072176	11053.900000
3371.125013	11095.650000
3372.174803	11130.900000
3373.225902	11032.600000
3374.273955	11055.500000
3375.324767	10986.500000
3376.372535	11028.650000
3377.420160	11070.200000
3378.467642	11041.650000
3379.513532	11108.650000
3380.560730	10975.100000
3381.604886	10989.300000
3382.651800	10973.500000
3383.697122	10975.350000
3384.739403	10965.350000
3385.781544	10942.800000
3386.824992	10958.750000
3387.868299	10893.800000
3388.910017	10851.200000
3389.951593	10891.150000
3390.993029	10876.250000
3392.032875	10873.700000
3393.071133	10833.850000
3394.110699	10931.100000
3395.150125	10911.300000
3396.187963	10817.850000
3397.224214	10862.450000
3398.260326	10807.850000
3399.297745	10828.150000
3400.332131	10720.650000
3401.367824	10736.650000
3402.403378	10744.450000
3403.435901	10717.000000
3404.471177	10746.500000
3405.503422	10680.750000
3406.535529	10695.400000
3407.566052	10708.850000
3408.597882	10740.450000
3409.629574	10683.500000
3410.658238	10663.900000
3411.686765	10686.600000
3412.716599	10629.850000
3413.746294	10662.950000
3414.772964	10591.350000
3415.800941	10608.800000
3416.825893	10582.400000
3417.853595	10604.600000
3418.878274	10591.150000
3419.904259	10608.450000
3420.928664	10578.500000
3421.952933	10485.000000
3422.975623	10552.050000
3423.998177	10396.400000
3425.022037	10444.550000
3426.042877	10461.350000
3427.063582	10346.100000
3428.085592	10410.500000
3429.104584	10258.950000
3430.123441	10343.450000
3431.143603	10295.850000
3432.160749	10320.200000
