-117.095864	29.100000
-114.426264	15.650000
-111.759599	14.900000
-109.093686	13.400000
-106.430705	3.250000
-103.766295	5.500000
-101.104815	18.300000
-98.441906	33.400000
-95.784103	14.100000
-93.124871	17.600000
-90.466387	24.800000
-87.810827	26.750000
-85.153839	23.700000
-82.501949	29.450000
-79.848628	12.900000
-77.198228	29.450000
-74.546398	12.650000
-71.899659	28.850000
-69.251491	13.850000
-66.604065	13.350000
-63.959553	29.900000
-61.313613	17.150000
-58.672754	21.000000
-56.030466	33.700000
-53.391086	-0.950000
-50.750278	19.250000
-48.110210	18.400000
-45.475214	18.650000
-42.838790	10.000000
-40.205268	20.200000
-37.570318	22.300000
-34.940433	24.450000
-32.306956	32.300000
-29.678541	36.200000
-27.050860	18.200000
-24.421750	33.800000
-21.797697	27.550000
-19.170055	46.000000
-16.547466	36.000000
-13.925609	42.800000
-11.304482	79.100000
-8.684085	166.950000
-6.066577	483.150000
-3.447639	1454.150000
-0.831588	3427.450000
1.783735	3861.650000
4.398331	2114.300000
7.010044	267.600000
9.623186	53.300000
12.231294	48.250000
14.842984	30.650000
17.449643	30.850000
20.057730	26.250000
22.665093	35.600000
25.267431	26.800000
27.873347	23.150000
30.474241	12.550000
33.076563	24.150000
35.673868	9.850000
38.274748	33.650000
40.870614	34.600000
43.467907	27.000000
46.064481	22.300000
48.656046	24.600000
51.249039	30.350000
53.839171	22.700000
56.430731	19.600000
59.019431	30.750000
61.609558	43.150000
64.194687	30.300000
66.781242	26.450000
69.367084	34.500000
71.950072	37.250000
74.534486	35.200000
77.111772	33.500000
79.692624	37.200000
82.270627	26.550000
84.847920	27.950000
87.426639	31.750000
90.000376	28.000000
92.575541	46.600000
95.147862	25.950000
97.719475	37.650000
100.288248	42.300000
102.858448	46.750000
105.425810	56.450000
107.994597	43.250000
110.560548	67.650000
113.123664	68.500000
115.690336	97.850000
118.247787	104.150000
120.810923	153.450000
123.369099	201.100000
125.930830	330.400000
128.487604	480.450000
131.045805	705.700000
133.599053	1051.200000
136.151602	1540.200000
138.707702	2165.550000
141.258854	2846.100000
143.809309	3518.550000
146.359066	4019.100000
148.906005	4430.450000
151.452247	4628.650000
153.999915	4758.050000
156.546887	4802.350000
159.088924	4728.700000
161.630267	4706.850000
164.170917	4754.050000
166.712993	4674.350000
169.252257	4769.750000
171.788713	4638.350000
174.324477	4667.500000
176.861667	4667.500000
179.398166	4658.250000
181.931859	4652.300000
184.462749	4673.000000
186.992950	4588.750000
189.524576	4647.700000
192.053401	4667.600000
194.579427	4638.250000
197.104767	4616.350000
199.631533	4639.950000
202.155501	4577.300000
204.678785	4620.450000
207.201384	4626.150000
209.721190	4578.550000
212.240313	4568.150000
214.758753	4521.550000
217.278617	4496.350000
219.791480	4485.400000
222.307874	4483.700000
224.823586	4498.100000
227.334408	4503.050000
229.846656	4525.050000
232.356120	4538.700000
234.864906	4571.500000
237.373014	4604.650000
239.882545	4587.400000
242.387196	4615.250000
244.891171	4561.700000
247.396571	4632.950000
249.897095	4663.500000
252.401142	4657.100000
254.898218	4633.650000
257.398818	4621.000000
259.896646	4661.400000
262.393801	4669.950000
264.890283	4693.150000
267.381902	4709.850000
269.877041	4700.300000
272.369414	4719.650000
274.861116	4690.650000
277.350054	4769.300000
279.840417	4764.850000
282.328017	4687.500000
284.812858	4725.950000
287.301214	4745.650000
289.782630	4708.350000
292.267560	4742.050000
294.747645	4715.900000
297.231242	4700.400000
299.709996	4729.750000
302.190174	4679.200000
304.667599	4736.350000
307.144361	4618.250000
309.620460	4637.000000
312.093810	4652.650000
314.566498	4684.300000
317.038525	4674.450000
319.509891	4719.650000
321.978513	4780.000000
324.446475	4774.950000
326.915859	4759.450000
329.380421	4808.900000
331.848487	4755.650000
334.311733	4792.600000
336.774321	4775.200000
339.236253	4782.050000
341.697528	4787.250000
344.156069	4795.950000
346.616032	4793.350000
349.073262	4745.150000
351.529838	4765.900000
353.985760	4732.300000
356.438953	4766.550000
358.893567	4764.050000
361.343380	4755.450000
363.796689	4719.700000
366.245200	4680.450000
368.693060	4637.850000
371.142341	4617.000000
373.586829	4544.400000
376.032739	4481.450000
378.478000	4458.400000
380.920541	4427.650000
383.362435	4354.400000
385.803682	4336.950000
388.242213	4223.550000
390.682166	4157.850000
393.119405	4141.200000
395.553932	4102.300000
397.991947	4068.150000
400.425185	4041.150000
402.859844	3988.800000
405.289731	3932.000000
407.723103	3989.450000
410.151705	3999.450000
412.579666	3928.450000
415.009047	3935.800000
417.433663	3906.350000
419.859701	3969.050000
422.285098	3882.000000
424.709855	3923.650000
427.129854	3900.550000
429.551274	3926.150000
431.969997	3908.400000
434.390141	3857.700000
436.807590	3866.150000
439.226459	3911.200000
441.642635	3925.700000
444.054064	3890.600000
446.468969	3859.950000
448.881184	3881.600000
451.292765	3884.100000
453.703712	3878.900000
456.111973	3835.400000
458.519601	3878.500000
460.926597	3866.500000
463.332962	3850.500000
465.736644	3830.850000
468.139696	3828.300000
470.542118	3811.000000
472.943910	3845.150000
475.343025	3835.300000
477.743559	3822.850000
480.143464	3859.600000
482.538646	3828.200000
484.937295	3872.350000
487.331224	3812.800000
489.724527	3822.600000
492.117204	3874.050000
494.509256	3824.200000
496.902726	3854.700000
499.291485	3826.950000
501.677577	3828.950000
504.065088	3780.000000
506.451977	3804.100000
508.836202	3774.500000
511.221846	3839.650000
513.604827	3820.000000
515.985148	3853.850000
518.366888	3905.450000
520.745969	3884.450000
523.126469	3867.500000
525.504311	3836.350000
527.879498	3824.300000
530.254067	3816.100000
532.630055	3764.450000
535.003389	3771.750000
537.378141	3723.600000
539.748208	3700.850000
542.117659	3695.500000
544.488528	3597.250000
546.854717	3509.200000
549.222324	3515.050000
551.587285	3499.600000
553.951633	3446.600000
556.315369	3397.700000
558.680521	3437.100000
561.041002	3377.350000
563.402901	3350.200000
565.762159	3338.600000
568.118780	3315.800000
570.478845	3243.500000
572.832219	3244.800000
575.189038	3247.450000
577.543222	3248.750000
579.896798	3248.850000
582.249765	3207.450000
584.600101	3173.900000
586.951853	3214.200000
589.296929	3147.700000
591.647469	3127.150000
593.991335	3085.050000
596.340663	3076.000000
598.685343	3044.950000
601.027397	2986.600000
603.370869	2949.650000
605.711718	2913.750000
608.051965	2916.250000
610.389591	2919.150000
612.730652	2876.250000
615.067075	2853.550000
617.404915	2873.500000
619.740138	2867.800000
622.072745	2845.100000
624.406768	2869.750000
626.738178	2907.150000
629.068989	2897.000000
631.399202	2884.150000
633.728817	2931.850000
636.053810	2933.350000
638.384244	2912.300000
640.710056	2948.550000
643.033262	2948.100000
645.357883	2939.350000
647.679899	2961.950000
650.001322	2923.400000
652.320141	2981.700000
654.640376	2941.650000
656.960018	2996.850000
659.277059	2944.750000
661.593508	2918.650000
663.907359	2926.200000
666.222626	2963.350000
668.535296	2974.850000
670.849381	3003.000000
673.158866	3005.250000
675.469767	2997.600000
677.778075	2962.950000
680.085795	3043.150000
682.394929	3050.800000
684.699472	3066.750000
687.003427	3063.750000
689.306797	3097.800000
691.611581	3104.100000
693.911779	3075.800000
696.213391	3164.450000
698.514419	3135.850000
700.810864	3134.800000
703.108725	3160.100000
705.406002	3188.200000
707.702696	3204.700000
709.994814	3227.050000
712.290343	3236.250000
714.581298	3265.950000
716.873668	3289.950000
719.163463	3318.900000
721.452677	3285.750000
723.741312	3337.500000
726.027374	3362.700000
728.314851	3404.650000
730.599756	3401.350000
732.884084	3419.500000
735.165843	3446.450000
737.449016	3458.700000
739.731612	3472.450000
742.009652	3523.050000
744.289107	3531.600000
746.567986	3586.550000
748.846289	3591.000000
751.120043	3637.500000
753.395211	3650.800000
755.669805	3664.950000
757.941839	3680.950000
760.215287	3693.650000
762.486177	3738.700000
764.754511	3781.550000
767.024258	3766.450000
769.291451	3758.450000
771.558073	3789.550000
773.824125	3827.950000
776.087626	3784.650000
778.352540	3825.500000
780.616884	3881.700000
782.876699	3872.000000
785.137926	3914.350000
787.398586	3989.550000
789.656700	3976.800000
791.912269	3946.300000
794.171229	3985.950000
796.423690	3973.400000
798.681517	4014.900000
800.934826	4025.600000
803.185595	4056.400000
805.437776	4033.150000
807.687418	4061.600000
809.938473	4061.950000
812.185016	4087.800000
814.432971	4099.000000
816.678392	4177.050000
818.925224	4119.550000
821.171495	4144.950000
823.413262	4204.400000
825.658411	4204.550000
827.897088	4262.350000
830.139147	4250.800000
832.376708	4255.150000
834.615681	4274.700000
836.852127	4271.550000
839.089984	4326.550000
841.325316	4300.250000
843.558125	4379.050000
845.792345	4370.200000
848.024043	4403.550000
850.255185	4395.150000
852.485774	4479.850000
854.715807	4514.950000
856.945287	4579.550000
859.170285	4592.250000
861.398658	4638.300000
863.622552	4622.000000
865.847856	4695.050000
868.068685	4802.650000
870.292886	4831.300000
872.512614	4861.950000
874.733753	4914.450000
876.954341	4987.700000
879.172419	5024.750000
881.391907	5053.800000
883.606929	5113.800000
885.821404	5182.750000
888.035330	5183.350000
890.248710	5244.450000
892.461542	5281.950000
894.673828	5298.150000
896.883611	5345.750000
899.092849	5344.600000
901.301542	5354.400000
903.507736	5244.400000
905.715339	5254.250000
907.920444	5188.100000
910.125006	5170.500000
912.327073	5113.550000
914.530549	5055.350000
916.731531	5002.450000
918.931972	4945.450000
921.133820	4846.300000
923.329278	4773.550000
925.528095	4663.300000
927.722473	4606.450000
929.920209	4495.250000
932.113509	4452.150000
934.308218	4391.700000
936.500441	4325.400000
938.692126	4309.550000
940.883272	4193.050000
943.071936	4181.600000
945.260064	4186.550000
947.445711	4098.850000
949.634710	4057.000000
951.819286	4028.350000
954.003327	4032.900000
956.190718	3965.500000
958.369805	4000.850000
960.552243	3974.800000
962.734147	3957.200000
964.913576	4012.150000
967.090533	3995.350000
969.268898	3985.350000
971.448670	3982.150000
973.622093	3949.850000
975.798862	3918.700000
977.971224	3919.200000
980.144994	3883.600000
982.314360	3835.950000
984.487070	3865.600000
986.657315	3810.500000
988.827031	3707.700000
990.996218	3713.100000
993.161008	3686.550000
995.329139	3682.500000
997.492876	3599.450000
999.658019	3523.400000
1001.820703	3538.900000
1003.982862	3494.400000
1006.142564	3494.350000
1008.301741	3424.300000
1010.462326	3413.950000
1012.620455	3421.500000
1014.778060	3331.800000
1016.935142	3329.450000
1019.091701	3331.850000
1021.243880	3262.800000
1023.397465	3254.800000
1025.550529	3272.950000
1027.701145	3224.900000
1029.853166	3183.550000
1032.000814	3160.650000
1034.151794	3092.500000
1036.298403	3081.600000
1038.444493	3047.000000
1040.590065	3029.900000
1042.737042	2955.700000
1044.877730	2980.600000
1047.021748	2948.450000
1049.163325	2976.750000
1051.304386	2946.350000
1053.446851	2950.400000
1055.583037	2956.800000
1057.722549	2930.100000
1059.857705	2904.450000
1061.996186	2948.650000
1064.130313	2909.800000
1066.263927	2918.300000
1068.398946	2826.400000
1070.529615	2903.900000
1072.661689	2862.300000
1074.791334	2899.450000
1076.920467	2906.250000
1079.049088	2861.750000
1081.177198	2879.400000
1083.302882	2877.700000
1085.428056	2806.750000
1087.554634	2764.850000
1089.676874	2719.900000
1091.800519	2700.050000
1093.919830	2606.550000
1096.044369	2582.500000
1098.162663	2541.750000
1100.282362	2509.400000
1102.399642	2530.350000
1104.516416	2476.000000
1106.632683	2481.950000
1108.746534	2427.700000
1110.861790	2386.400000
1112.972722	2396.800000
1115.086967	2379.950000
1117.196891	2347.450000
1119.308219	2296.200000
1121.419042	2319.800000
1123.525549	2308.950000
1125.635366	2309.100000
1127.740868	2276.250000
1129.847773	2261.800000
1131.948463	2255.000000
1134.054365	2233.000000
1136.155958	2208.100000
1138.258954	2203.150000
1140.361449	2175.300000
1142.457737	2187.750000
1144.559233	2139.000000
1146.656425	2191.200000
1148.753120	2158.650000
1150.849316	2064.600000
1152.945015	2140.150000
1155.040215	2116.300000
1157.133020	2044.700000
1159.227226	2043.100000
1161.315241	1998.850000
1163.408454	1975.800000
1165.495479	1936.200000
1167.585803	1964.500000
1169.671840	1951.600000
1171.761174	1922.750000
1173.844327	1885.350000
1175.928882	1884.600000
1178.014839	1876.700000
1180.096514	1846.300000
1182.179591	1801.400000
1184.260282	1787.800000
1186.340481	1810.100000
1188.420189	1790.400000
1190.499406	1792.050000
1192.576241	1766.850000
1194.650695	1806.700000
1196.728440	1798.750000
1198.801916	1860.250000
1200.876792	1789.500000
1202.947401	1823.600000
1205.019412	1855.600000
1207.089046	1847.350000
1209.160081	1846.850000
1211.230628	1847.300000
1213.296914	1876.500000
1215.364601	1895.300000
1217.429916	1882.300000
1219.496631	1827.050000
1221.559090	1851.650000
1223.624834	1870.850000
1225.686325	1847.700000
1227.749215	1815.300000
1229.809738	1815.850000
1231.869777	1806.900000
1233.929334	1833.350000
1235.986525	1745.650000
1238.043235	1817.100000
1240.097582	1781.800000
1242.155209	1768.150000
1244.210474	1829.300000
1246.261498	1803.550000
1248.313922	1812.650000
1250.365866	1810.600000
1252.415452	1801.950000
1254.464559	1757.100000
1256.513188	1742.900000
1258.561338	1808.800000
1260.609009	1769.050000
1262.652451	1735.250000
1264.699167	1730.650000
1266.743530	1747.600000
1268.787417	1749.850000
1270.828952	1765.900000
1272.868138	1733.750000
1274.910597	1753.750000
1276.948833	1766.600000
1278.988468	1757.300000
1281.027628	1696.600000
1283.062569	1776.350000
1285.098909	1736.450000
1287.132905	1790.850000
1289.168299	1737.400000
1291.199479	1758.100000
1293.232057	1719.400000
1295.264164	1689.250000
1297.293930	1636.300000
1299.325094	1635.400000
1301.352050	1626.500000
1303.380404	1635.800000
1305.404554	1632.550000
1307.431968	1679.300000
1309.455180	1599.550000
1311.479790	1661.800000
1313.502066	1624.100000
1315.525739	1680.900000
1317.547079	1691.750000
1319.567951	1662.750000
1321.588356	1635.200000
1323.604568	1701.100000
1325.622177	1645.550000
1327.637458	1682.400000
1329.655998	1730.850000
1331.670349	1675.600000
1333.682374	1756.750000
1335.697656	1783.900000
1337.708753	1757.850000
1339.721247	1721.600000
1341.729558	1780.000000
1343.741125	1741.550000
1345.746652	1773.250000
1347.755435	1741.850000
1349.760040	1772.950000
1351.767899	1798.950000
1353.775296	1775.650000
1355.776662	1789.500000
1357.779425	1748.100000
1359.781727	1801.800000
1361.783570	1752.450000
1363.784953	1795.500000
1365.784023	1826.500000
1367.782634	1837.100000
1369.780787	1773.900000
1371.778481	1793.150000
1373.772013	1763.550000
1375.766941	1709.000000
1377.761411	1761.150000
1379.755426	1761.000000
1381.747132	1767.250000
1383.738384	1727.000000
1385.727330	1768.600000
1387.717671	1713.050000
1389.707557	1704.450000
1391.695140	1714.000000
1393.682268	1728.600000
1395.667095	1717.450000
1397.653317	1680.400000
1399.637239	1673.300000
1401.620708	1664.950000
1403.603724	1646.300000
1405.584443	1677.350000
1407.566556	1597.050000
1409.546373	1614.900000
1411.525738	1619.000000
1413.500965	1687.000000
1415.479431	1646.800000
1417.455602	1682.550000
1419.431325	1638.050000
1421.406598	1677.200000
1423.379580	1666.500000
1425.352114	1673.750000
1427.324200	1638.600000
1429.295839	1651.500000
1431.263349	1697.150000
1433.235933	1762.550000
1435.200712	1703.250000
1437.170562	1665.950000
1439.136289	1720.150000
1441.103408	1672.600000
1443.068244	1654.150000
1445.028960	1648.900000
1446.994744	1673.150000
1448.954574	1674.350000
1450.915796	1630.750000
1452.878411	1619.200000
1454.836911	1641.300000
1456.794968	1625.350000
1458.752584	1647.250000
1460.709757	1618.350000
1462.664656	1626.000000
1464.620946	1621.100000
1466.574962	1659.200000
1468.528537	1653.000000
1470.479841	1674.350000
1472.432536	1690.200000
1474.382960	1665.750000
1476.332944	1658.050000
1478.282490	1759.600000
1480.229767	1700.200000
1482.174777	1710.150000
1484.121178	1689.150000
1486.067142	1698.250000
1488.012669	1752.950000
1489.955931	1706.300000
1491.898756	1750.400000
1493.839318	1708.200000
1495.781271	1695.550000
1497.720962	1715.700000
1499.660219	1665.800000
1501.599040	1709.100000
1503.535602	1663.650000
1505.473555	1695.200000
1507.409249	1657.750000
1509.344510	1680.000000
1511.277515	1607.700000
1513.210087	1688.300000
1515.142227	1618.100000
1517.073935	1615.700000
1519.003389	1575.100000
1520.934234	1589.950000
1522.864647	1577.250000
1524.790988	1573.150000
1526.718720	1589.050000
1528.644201	1571.000000
1530.569253	1556.200000
1532.493876	1570.300000
1534.418070	1543.750000
1536.340016	1582.500000
1538.263353	1561.950000
1540.184444	1575.250000
1542.103290	1562.800000
1544.023525	1591.800000
1545.941518	1555.650000
1547.859084	1561.750000
1549.774408	1612.650000
1551.691122	1598.700000
1553.603781	1640.000000
1555.519644	1652.400000
1557.433267	1593.100000
1559.344653	1597.550000
1561.257427	1577.600000
1563.166152	1608.500000
1565.076266	1640.350000
1566.985957	1590.900000
1568.895225	1611.800000
1570.802259	1613.700000
1572.707060	1615.150000
1574.613250	1600.200000
1576.517208	1586.350000
1578.420745	1595.250000
1580.323862	1548.250000
1582.224749	1575.350000
1584.127025	1505.500000
1586.027073	1547.900000
1587.928508	1523.400000
1589.825910	1507.700000
1591.722893	1515.650000
1593.619458	1521.600000
1595.517411	1566.350000
1597.409529	1578.000000
1599.304840	1562.500000
1601.199734	1568.600000
1603.092406	1578.000000
1604.984662	1554.050000
1606.874697	1543.500000
1608.764318	1563.650000
1610.653522	1555.000000
1612.542312	1538.700000
1614.428884	1556.450000
1616.316844	1562.950000
1618.200787	1569.050000
1620.086118	1612.250000
1621.971034	1544.250000
1623.853737	1560.950000
1625.737827	1597.650000
1627.617906	1573.200000
1629.499371	1600.450000
1631.378626	1568.150000
1633.259267	1562.450000
1635.134104	1613.250000
1637.013922	1570.050000
1638.889736	1567.500000
1640.765139	1521.600000
1642.641928	1522.400000
1644.512921	1538.400000
1646.387095	1501.500000
1648.257271	1518.100000
1650.130627	1470.900000
1652.001780	1507.350000
1653.870731	1487.650000
1655.741068	1493.700000
1657.607411	1469.900000
1659.475140	1434.550000
1661.340670	1473.350000
1663.207586	1445.900000
1665.070513	1449.950000
1666.934825	1438.800000
1668.796941	1451.100000
1670.658653	1388.700000
1672.521749	1434.150000
1674.382651	1404.750000
1676.241359	1390.750000
1678.099664	1383.500000
1679.959354	1418.600000
1681.813276	1338.050000
1683.670372	1382.800000
1685.527065	1370.200000
1687.379782	1337.150000
1689.235669	1317.300000
1691.087583	1332.750000
1692.939096	1359.950000
1694.790208	1312.000000
1696.640920	1317.000000
1698.491231	1366.900000
1700.339357	1358.600000
1702.188868	1390.300000
1704.032630	1428.900000
1705.881341	1384.150000
1707.724306	1432.350000
1709.570438	1472.650000
1711.412607	1416.250000
1713.257942	1451.800000
1715.097536	1450.050000
1716.938514	1487.400000
1718.780875	1467.750000
1720.619280	1475.200000
1722.459068	1461.100000
1724.296681	1407.950000
1726.133898	1466.700000
1727.968942	1452.250000
1729.805369	1426.100000
1731.639624	1444.500000
1733.473484	1427.800000
1735.306951	1416.350000
1737.136471	1386.850000
1738.969150	1420.300000
1740.797885	1403.700000
1742.629777	1394.350000
1744.457728	1391.600000
1746.285286	1383.200000
1748.112452	1412.050000
1749.939227	1365.300000
1751.765611	1418.600000
1753.588057	1385.200000
1755.413659	1394.100000
1757.235326	1404.000000
1759.058375	1410.550000
1760.879262	1394.800000
1762.699761	1397.100000
1764.521641	1455.050000
1766.337821	1387.700000
1768.157153	1430.300000
1769.972558	1407.850000
1771.791113	1417.150000
1773.605743	1391.650000
1775.419987	1401.400000
1777.233843	1415.350000
1779.047313	1391.250000
1780.858630	1420.850000
1782.671327	1375.050000
1784.483639	1406.300000
1786.292033	1356.750000
1788.101807	1409.100000
1789.907667	1408.650000
1791.716672	1419.700000
1793.521764	1405.900000
1795.328237	1400.200000
1797.134326	1403.950000
1798.936505	1406.450000
1800.741827	1441.750000
1802.543241	1405.400000
1804.346035	1379.450000
1806.144923	1389.200000
1807.945192	1368.750000
1809.745079	1366.300000
1811.542825	1389.100000
1813.340189	1342.450000
1815.137174	1381.300000
1816.933778	1343.500000
1818.728243	1376.850000
1820.524087	1359.050000
1822.314277	1386.350000
1824.109362	1384.550000
1825.898796	1424.250000
1827.691366	1397.650000
1829.481801	1368.400000
1831.270102	1393.550000
1833.061538	1391.550000
1834.847328	1370.650000
1836.634498	1372.300000
1838.419536	1387.650000
1840.207708	1391.200000
1841.991994	1357.950000
1843.774151	1358.950000
1845.557686	1314.250000
1847.339093	1358.900000
1849.121879	1306.150000
1850.900784	1342.050000
1852.681069	1306.500000
1854.459227	1341.950000
1856.238764	1274.700000
1858.016176	1297.650000
1859.791464	1311.550000
1861.568130	1345.800000
1863.342674	1286.700000
1865.118596	1311.150000
1866.888897	1293.800000
1868.662326	1324.100000
1870.433635	1327.000000
1872.204574	1358.050000
1873.976889	1305.250000
1875.743591	1359.800000
1877.513419	1356.500000
1879.279383	1306.200000
1881.048470	1329.450000
1882.813697	1332.050000
1884.578554	1341.850000
1886.344789	1363.700000
1888.107165	1393.200000
1889.869174	1344.350000
1891.630815	1388.300000
1893.392090	1371.450000
1895.152997	1368.550000
1896.913538	1363.500000
1898.671969	1366.700000
1900.430034	1356.150000
1902.185992	1334.150000
1903.943326	1342.750000
1905.700295	1349.100000
1907.455157	1339.650000
1909.207915	1351.050000
1910.960309	1365.600000
1912.714078	1328.650000
1914.465744	1338.850000
1916.215308	1314.550000
1917.966247	1291.200000
1919.716824	1284.750000
1921.463561	1276.100000
1923.211675	1301.350000
1924.957689	1276.500000
1926.705079	1297.550000
1928.450370	1251.550000
1930.193564	1265.800000
1931.938133	1276.700000
1933.680607	1252.200000
1935.422720	1213.550000
1937.164473	1239.650000
1938.905867	1229.250000
1940.645166	1241.450000
1942.384107	1246.500000
1944.122689	1217.550000
1945.859180	1241.350000
1947.595313	1256.100000
1949.332820	1270.850000
1951.066505	1274.400000
1952.801565	1274.950000
1954.534537	1290.250000
1956.267151	1280.000000
1957.999410	1315.300000
1959.731312	1308.500000
1961.461128	1309.650000
1963.188859	1340.500000
1964.917965	1342.350000
1966.646716	1348.250000
1968.373383	1362.400000
1970.099696	1346.400000
1971.827382	1341.650000
1973.549532	1321.400000
1975.274783	1335.750000
1976.996228	1362.000000
1978.720772	1303.900000
1980.443237	1345.000000
1982.161898	1313.600000
1983.883658	1332.150000
1985.601616	1294.200000
1987.320947	1321.650000
1989.036479	1296.950000
1990.756831	1336.800000
1992.473385	1322.900000
1994.186142	1332.650000
1995.901996	1312.450000
1997.615776	1347.500000
1999.329207	1299.950000
2001.040567	1286.050000
2002.753299	1271.150000
2004.462241	1281.850000
2006.174275	1289.400000
2007.880801	1282.000000
2009.590418	1254.600000
2011.297969	1253.750000
2013.005172	1268.650000
2014.710308	1259.400000
2016.415099	1255.900000
2018.121261	1266.000000
2019.823641	1258.300000
2021.527393	1257.700000
2023.229081	1263.100000
2024.930425	1303.800000
2026.631423	1257.800000
2028.330360	1291.750000
2030.030669	1277.050000
2031.727203	1283.750000
2033.425108	1292.850000
2035.120954	1269.250000
2036.819886	1295.400000
2038.513332	1330.550000
2040.208149	1291.450000
2041.902624	1312.750000
2043.593330	1330.550000
2045.287120	1295.400000
2046.977143	1280.850000
2048.668537	1310.700000
2050.357878	1305.250000
2052.048589	1290.350000
2053.735537	1287.750000
2055.422146	1288.900000
2057.110125	1282.900000
2058.794343	1281.150000
2060.479933	1258.100000
2062.165183	1289.650000
2063.848385	1267.300000
2065.532956	1270.700000
2067.212065	1262.150000
2068.895959	1255.600000
2070.574393	1280.300000
2072.255903	1302.450000
2073.933663	1281.350000
2075.611085	1301.050000
2077.289877	1260.700000
2078.966627	1320.600000
2080.641335	1292.600000
2082.317412	1272.700000
2083.991449	1272.800000
2085.665150	1288.900000
2087.338516	1245.250000
2089.009844	1276.350000
2090.680837	1256.750000
2092.351496	1243.700000
2094.021820	1273.050000
2095.691811	1230.750000
2097.359766	1233.000000
2099.027388	1217.000000
2100.692975	1195.250000
2102.359931	1196.450000
2104.024854	1190.900000
2105.689445	1201.050000
2107.352004	1177.800000
2109.015931	1171.550000
2110.677828	1194.850000
2112.339393	1152.000000
2114.000627	1153.050000
2115.659833	1164.400000
2117.318708	1158.050000
2118.977254	1178.050000
2120.635470	1155.000000
2122.289962	1162.450000
2123.947519	1167.650000
2125.604747	1230.800000
2127.258253	1189.650000
2128.913127	1136.900000
2130.564283	1204.600000
2132.218500	1190.850000
2133.869001	1185.900000
2135.520868	1205.600000
2137.167327	1195.200000
2138.818541	1216.000000
2140.466041	1212.900000
2142.114908	1228.850000
2143.761757	1217.950000
2145.408279	1233.000000
2147.054476	1217.900000
2148.696965	1202.350000
2150.342512	1245.300000
2151.984352	1225.300000
2153.629249	1199.150000
2155.270441	1198.150000
2156.911309	1216.100000
2158.551853	1249.150000
2160.190385	1224.700000
2161.830283	1248.450000
2163.466481	1244.800000
2165.104045	1229.500000
2166.741287	1218.100000
2168.376519	1230.650000
2170.011430	1225.100000
2171.646019	1180.450000
2173.280286	1202.350000
2174.910860	1194.150000
2176.544486	1153.200000
2178.174420	1183.800000
2179.805719	1204.150000
2181.435013	1190.050000
2183.063988	1193.850000
2184.692643	1188.750000
2186.320979	1210.400000
2187.947313	1211.350000
2189.573328	1178.600000
2191.197342	1204.300000
2192.822720	1186.700000
2194.446099	1184.750000
2196.070841	1201.150000
2197.691903	1183.100000
2199.312648	1207.350000
2200.934758	1190.450000
2202.554870	1213.250000
2204.172985	1192.700000
2205.790785	1218.800000
2207.408270	1203.900000
2209.025439	1193.000000
2210.642293	1169.100000
2212.258831	1142.350000
2213.873377	1169.200000
2215.485930	1147.000000
2217.099847	1149.400000
2218.711773	1148.150000
2220.325062	1123.150000
2221.936361	1127.150000
2223.545670	1137.850000
2225.156343	1099.850000
2226.765027	1122.450000
2228.373398	1109.850000
2229.979783	1080.500000
2231.587531	1094.250000
2233.193292	1132.450000
2234.798742	1112.200000
2236.402207	1098.350000
2238.007035	1099.550000
2239.609879	1118.900000
2241.210740	1088.750000
2242.812964	1093.900000
2244.413206	1105.400000
2246.014810	1059.150000
2247.612762	1064.350000
2249.212075	1074.850000
2250.809410	1091.800000
2252.406435	1062.000000
2254.004823	1062.750000
2255.599562	1076.600000
2257.192324	1080.250000
2258.786449	1109.750000
2260.381935	1082.300000
2261.973777	1111.150000
2263.565312	1119.300000
2265.158208	1099.100000
2266.745795	1150.400000
2268.338079	1135.050000
2269.925055	1154.500000
2271.515059	1184.350000
2273.099760	1171.900000
2274.689153	1182.750000
2276.273245	1187.000000
2277.858698	1161.200000
2279.442181	1151.200000
2281.028691	1148.750000
2282.611566	1089.450000
2284.194139	1145.300000
2285.776408	1119.950000
2287.355048	1117.900000
2288.936711	1070.700000
2290.514746	1094.650000
2292.095804	1049.250000
2293.673235	1051.175000
2295.248703	1053.100000
2296.827193	1056.250000
2298.402059	1056.550000
2299.976624	1043.750000
2301.550889	1028.950000
2303.124853	1084.100000
2304.698517	1061.100000
2306.271880	1078.300000
2307.841625	1059.850000
2309.411071	1109.600000
2310.983535	1107.350000
2312.550725	1080.850000
2314.120933	1104.650000
2315.687526	1115.200000
2317.255479	1097.950000
2318.821476	1098.950000
2320.387176	1114.300000
2321.952578	1105.200000
2323.516027	1112.400000
2325.080835	1083.450000
2326.642035	1114.050000
2328.206249	1091.400000
2329.765201	1070.250000
2331.327168	1109.250000
2332.887184	1073.900000
2334.446904	1071.900000
2336.004675	1085.400000
2337.562151	1084.500000
2339.119333	1064.350000
2340.674567	1095.900000
2342.229508	1065.750000
2343.784155	1115.950000
2345.338507	1098.150000
2346.892567	1095.550000
2348.446332	1084.550000
2349.998154	1131.200000
2351.548032	1105.000000
2353.100918	1109.150000
2354.648562	1123.700000
2356.199213	1125.700000
2357.746273	1118.250000
2359.294691	1127.600000
2360.842818	1115.750000
2362.387356	1111.550000
2363.933252	1093.400000
2365.477210	1114.050000
2367.022525	1106.800000
2368.564255	1108.300000
2370.107342	1094.850000
2371.648493	1103.250000
2373.189355	1085.550000
2374.729928	1078.850000
2376.270212	1099.550000
2377.810207	1085.950000
2379.346624	1081.750000
2380.886042	1069.050000
2382.421883	1079.800000
2383.959080	1085.400000
2385.492702	1067.950000
2387.029325	1111.550000
2388.564016	1036.800000
2390.096778	1052.750000
2391.629253	1036.900000
2393.159800	1066.550000
2394.693345	1051.950000
2396.221679	1034.950000
2397.751370	1039.500000
2399.280775	991.650000
2400.809894	1003.650000
2402.338729	1021.250000
2403.862358	1022.000000
2405.390624	1039.200000
2406.913686	1016.150000
2408.441382	1052.150000
2409.962239	996.400000
2411.487729	1043.650000
2413.009658	1025.600000
2414.532943	1029.550000
2416.054306	1014.550000
2417.573751	1002.700000
2419.094550	1010.800000
2420.613430	1028.300000
2422.132028	1013.000000
2423.648709	1024.550000
2425.166744	1010.950000
2426.684498	1024.700000
2428.198701	1021.100000
2429.712623	1032.000000
2431.226265	998.950000
2432.741262	1041.050000
2434.252710	1021.800000
2435.765513	1048.500000
2437.276402	1025.050000
2438.787013	1011.100000
2440.295712	963.400000
2441.807397	986.200000
2443.315539	1027.500000
2444.823403	988.650000
2446.330989	973.450000
2447.835034	978.400000
2449.342065	968.100000
2450.847187	994.050000
2452.352032	986.350000
2453.854969	994.400000
2455.357631	981.500000
2456.860016	974.300000
2458.360496	973.950000
2459.862329	963.650000
2461.362257	972.250000
2462.861911	969.000000
2464.361288	1015.350000
2465.858763	987.300000
2467.354336	978.500000
2468.852889	995.100000
2470.347914	965.600000
2471.844291	988.550000
2473.337142	989.500000
2474.831346	993.600000
2476.325276	968.100000
2477.815682	984.100000
2479.309066	997.950000
2480.800552	987.450000
2482.290141	1006.150000
2483.779458	1016.350000
2485.266880	1019.150000
2486.757277	1012.250000
2488.244155	988.950000
2489.732385	975.400000
2491.217099	981.850000
2492.701542	971.100000
2494.187337	965.950000
2495.671239	943.500000
2497.156493	973.400000
2498.636612	978.700000
2500.119705	943.300000
2501.600907	910.000000
2503.081840	959.900000
2504.560884	927.400000
2506.039659	934.800000
2507.518166	931.850000
2508.996405	921.750000
2510.474375	929.750000
2511.948840	931.950000
2513.426275	924.100000
2514.900206	959.250000
2516.375487	954.750000
2517.850502	934.500000
2519.322015	947.950000
2520.794878	944.900000
2522.265859	934.500000
2523.738190	943.800000
2525.205407	982.900000
2526.675591	967.650000
2528.143894	963.100000
2529.611932	991.400000
2531.079705	968.200000
2532.547213	967.000000
2534.014456	996.250000
2535.478207	984.100000
2536.943308	951.550000
2538.406532	938.400000
2539.871106	957.300000
2541.332190	949.950000
2542.794624	971.300000
2544.256795	957.200000
2545.715480	944.400000
2547.178737	970.200000
2548.636897	946.550000
2550.096406	939.300000
2551.550821	934.650000
2553.009807	981.350000
2554.466921	928.550000
2555.922164	936.850000
2557.377146	939.050000
2558.830258	948.150000
2560.284719	918.750000
2561.737311	919.500000
2563.189643	939.500000
2564.640107	960.300000
2566.093527	954.200000
2567.541865	912.500000
2568.993159	945.300000
2570.442586	954.650000
2571.888541	966.250000
2573.337451	921.200000
2574.782891	957.650000
2576.229678	947.700000
2577.674603	954.200000
2579.119269	966.500000
2580.565284	916.200000
2582.007831	942.300000
2583.451726	938.300000
2584.892156	940.900000
2586.333933	952.300000
2587.773851	917.800000
2589.215116	951.850000
2590.652919	943.700000
2592.093673	936.350000
2593.529363	916.950000
2594.968003	925.000000
2596.404785	890.350000
2597.839712	911.250000
2599.277586	925.100000
2600.710403	918.050000
2602.144567	911.550000
2603.576877	911.200000
2605.010533	917.500000
2606.442336	928.850000
2607.873885	951.050000
2609.305182	940.750000
2610.734626	980.750000
2612.163818	949.150000
2613.591160	965.200000
2615.019847	952.950000
2616.448283	930.000000
2617.873271	946.150000
2619.299606	944.500000
2620.724092	963.200000
2622.149924	933.700000
2623.572312	959.200000
2624.996046	939.800000
2626.417933	966.350000
2627.839571	933.000000
2629.259363	920.650000
2630.680501	935.900000
2632.101389	937.250000
2633.518839	940.600000
2634.939228	933.850000
2636.356180	960.650000
2637.772883	946.850000
2639.189339	935.750000
2640.605545	922.300000
2642.021504	896.900000
2643.435622	928.850000
2644.849493	892.450000
2646.261524	897.850000
2647.674900	898.050000
2649.084846	892.800000
2650.497727	892.150000
2651.907180	892.050000
2653.316387	861.350000
2654.723758	912.250000
2656.134064	879.200000
2657.542533	887.600000
2658.949167	876.800000
2660.355556	887.500000
2661.760111	896.850000
2663.166010	892.100000
2664.570076	905.450000
2665.973897	886.400000
2667.377475	892.100000
2668.779220	905.500000
2670.182309	917.800000
2671.581980	891.700000
2672.982995	895.650000
2674.380594	899.050000
2675.781123	894.050000
2677.178236	888.900000
2678.576694	903.800000
2679.973323	876.400000
2681.369710	897.800000
2682.765856	871.050000
2684.160175	905.150000
2685.555836	916.050000
2686.948089	897.050000
2688.341684	862.400000
2689.733455	869.350000
2691.126569	897.550000
2692.517859	878.950000
2693.907326	879.850000
2695.296553	878.150000
2696.685541	886.900000
2698.075870	914.400000
2699.461216	903.700000
2700.849485	889.300000
2702.235934	868.450000
2703.622144	875.050000
2705.008116	872.400000
2706.390688	859.050000
2707.774603	872.100000
2709.158280	852.050000
2710.541719	851.500000
2711.921762	852.300000
2713.303147	853.400000
2714.682716	839.950000
2716.063627	845.400000
2717.442722	858.000000
2718.820004	838.300000
2720.198627	863.800000
2721.575437	852.550000
2722.952011	849.350000
2724.328349	844.150000
2725.702875	829.100000
2727.078742	871.900000
2728.451222	873.350000
2729.826618	853.700000
2731.197054	886.900000
2732.568831	864.700000
2733.940373	837.350000
2735.310107	858.450000
2736.681182	860.700000
2738.050448	855.700000
2739.419481	850.550000
2740.786708	867.400000
2742.153702	852.400000
2743.520463	854.300000
2744.886991	830.250000
2746.251714	859.350000
2747.616206	828.200000
2748.980465	830.500000
2750.344492	855.700000
2751.708288	853.800000
2753.068710	822.850000
2754.432042	826.800000
2755.790433	824.950000
2757.151732	821.800000
2758.509662	820.100000
2759.870500	817.850000
2761.229539	814.500000
2762.585209	831.300000
2763.943787	825.950000
2765.298998	825.400000
2766.653980	800.000000
2768.007166	806.500000
2769.363258	822.100000
2770.715985	808.950000
2772.068485	808.700000
2773.420756	801.400000
2774.774366	807.550000
2776.124614	785.500000
2777.473069	799.500000
2778.824428	781.900000
2780.172428	786.150000
2781.521766	794.450000
2782.869313	786.950000
2784.216632	790.750000
2785.563725	743.950000
2786.909027	797.700000
2788.254103	782.400000
2789.598952	783.750000
2790.943576	814.600000
2792.284848	773.850000
2793.627458	786.100000
2794.969842	788.950000
2796.312002	775.900000
2797.650812	787.400000
2798.992521	805.400000
2800.330883	804.000000
2801.670582	775.100000
2803.008495	786.950000
2804.344624	808.600000
2805.680529	774.050000
2807.017772	797.900000
2808.353231	796.700000
2809.688467	778.050000
2811.021920	808.600000
2812.356710	802.750000
2813.688160	787.350000
2815.022505	776.900000
2816.351952	802.800000
2817.682736	801.450000
2819.013298	811.050000
2820.342081	814.100000
2821.672200	789.700000
2823.000541	786.150000
2824.328661	802.000000
2825.655003	773.950000
2826.982682	807.950000
2828.307027	789.150000
2829.632709	793.250000
2830.956615	778.600000
2832.280302	801.600000
2833.605324	791.000000
2834.927016	784.600000
2836.248490	775.050000
2837.569745	782.850000
2838.890781	786.100000
2840.210045	777.250000
2841.530644	792.150000
2842.849471	790.450000
2844.168080	783.000000
2845.484918	801.200000
2846.801539	794.300000
2848.117943	787.600000
2849.432577	794.500000
2850.748547	793.000000
2852.061196	780.500000
2853.375180	775.750000
2854.688948	763.750000
2856.002500	809.650000
2857.314284	785.450000
2858.624302	782.750000
2859.935655	775.050000
2861.243693	783.500000
2862.553065	764.350000
2863.862223	768.550000
2865.171165	765.950000
2866.478343	770.800000
2867.783759	772.400000
2869.090509	748.950000
2870.395496	767.700000
2871.700270	776.200000
2873.003282	764.750000
2874.309176	765.800000
2875.610214	781.250000
2876.912587	789.050000
2878.213200	773.800000
2879.515147	771.450000
2880.816881	742.200000
2882.115310	794.100000
2883.415073	756.950000
2884.713079	762.900000
2886.010873	758.000000
2887.306911	777.450000
2888.604282	782.900000
2889.899897	764.200000
2891.195301	785.500000
2892.490494	779.350000
2893.782390	771.250000
2895.077162	778.900000
2896.368637	797.050000
2897.661445	806.550000
2898.954043	762.500000
2900.243347	790.450000
2901.533983	771.600000
2902.822868	774.150000
2904.113086	743.850000
2905.400011	760.950000
2906.688270	761.500000
2907.974778	763.050000
2909.261079	736.450000
2910.547171	717.550000
2911.831515	729.400000
2913.118730	732.250000
2914.401119	735.500000
2915.684840	762.650000
2916.966815	737.400000
2918.248582	748.050000
2919.528605	740.550000
2920.811497	764.500000
2922.092644	748.150000
2923.370509	720.650000
2924.651243	734.900000
2925.928696	740.750000
2927.205943	735.300000
2928.481449	744.350000
2929.759822	751.650000
2931.033380	732.100000
2932.309806	739.000000
2933.584491	737.100000
2934.857436	701.450000
2936.131711	744.450000
2937.404247	714.800000
2938.676579	722.900000
2939.945637	736.450000
2941.217561	727.650000
2942.487747	747.950000
2943.757730	725.900000
2945.027509	730.850000
2946.295551	706.100000
2947.561858	695.700000
2948.827962	733.750000
2950.095396	718.300000
2951.361096	713.250000
2952.626593	706.700000
2953.891888	729.950000
2955.153918	709.850000
2956.417279	690.300000
2957.680437	692.800000
2958.941864	706.250000
2960.204620	684.250000
2961.465645	708.100000
2962.724938	727.450000
2963.984032	712.800000
2965.242925	709.600000
2966.501618	701.100000
2967.760111	699.900000
2969.016875	718.400000
2970.273439	711.050000
2971.528276	726.700000
2972.784441	694.400000
2974.037352	683.000000
2975.291592	705.500000
2976.545633	698.450000
2977.797948	681.600000
2979.050064	685.000000
2980.300456	694.850000
2981.553703	681.300000
2982.802173	667.800000
2984.053498	683.150000
2985.301573	682.750000
2986.549452	683.650000
2987.797133	683.750000
2989.044617	692.150000
2990.290380	689.200000
2991.535947	678.600000
2992.782841	676.100000
2994.026491	666.900000
2995.271469	690.400000
2996.513203	681.550000
2997.757789	681.850000
2999.000656	691.150000
3000.240282	683.000000
3001.482758	680.600000
3002.721995	678.900000
3003.962558	681.400000
3005.201406	680.000000
3006.440058	682.050000
3007.676996	674.900000
3008.915260	675.350000
3010.151810	684.100000
3011.388165	668.850000
3012.624327	656.650000
3013.858776	691.400000
3015.093031	648.100000
3016.327093	696.950000
3017.559443	665.650000
3018.790081	676.300000
3020.023565	679.650000
3021.255337	689.750000
3022.485399	693.600000
3023.715269	684.200000
3024.943429	662.150000
3026.172915	672.000000
3027.400692	666.550000
3028.628279	673.700000
3029.857191	670.650000
3031.081361	671.450000
3032.308374	661.700000
3033.532163	674.400000
3034.757279	685.600000
3035.980688	675.600000
3037.203907	658.950000
3038.425421	679.500000
3039.649776	658.600000
3040.869396	672.450000
3042.090342	678.150000
3043.311099	682.850000
3044.530152	667.850000
3045.750531	689.150000
3046.967693	654.100000
3048.186180	661.550000
3049.402965	673.200000
3050.619563	648.300000
3051.835972	641.300000
3053.049169	669.650000
3054.265203	641.850000
3055.478025	640.900000
3056.693684	651.650000
3057.904620	646.250000
3059.116881	638.000000
3060.328956	637.000000
3061.540844	659.650000
3062.751034	652.950000
3063.961038	612.950000
3065.170856	652.850000
3066.378979	632.800000
3067.586915	620.850000
3068.793156	639.050000
3070.000722	644.700000
3071.206593	638.025000
3072.412280	631.350000
3073.617781	605.950000
3074.821589	627.850000
3076.026721	625.450000
3077.230161	642.550000
3078.431908	647.050000
3079.633472	648.600000
3080.834851	626.850000
3082.036048	649.050000
3083.235553	638.000000
3084.434876	645.550000
3085.635522	653.300000
3086.834478	649.700000
3088.030240	651.700000
3089.228831	652.200000
3090.424228	635.250000
3091.620948	635.050000
3092.814476	634.350000
3094.010832	667.850000
3095.205502	627.400000
3096.396981	648.950000
3097.592791	638.350000
3098.783908	652.550000
3099.976347	649.150000
3101.165599	661.900000
3102.357677	660.100000
3103.548070	661.150000
3104.735278	648.700000
3105.923809	654.100000
3107.113661	655.600000
3108.300330	655.450000
3109.486819	656.200000
3110.673128	648.250000
3111.860759	652.950000
3113.045208	640.450000
3114.227978	642.550000
3115.413570	647.750000
3116.597483	667.250000
3117.779717	650.600000
3118.961772	642.650000
3120.143650	664.550000
3121.325349	667.250000
3122.505370	653.550000
3123.683715	656.700000
3124.864880	666.100000
3126.042871	658.600000
3127.220684	658.900000
3128.398320	678.450000
3129.574281	694.850000
3130.750065	653.600000
3131.927171	650.750000
3133.102602	653.750000
3134.276360	670.200000
3135.448445	669.000000
3136.621852	661.500000
3137.795082	659.000000
3138.966641	652.600000
3140.139520	677.200000
3141.309233	653.650000
3142.480265	654.500000
3143.649628	663.500000
3144.817321	646.900000
3145.987829	642.450000
3147.153678	653.550000
3148.323837	648.150000
3149.489338	639.850000
3150.654666	635.000000
3151.819820	628.450000
3152.984800	674.050000
3154.151100	640.950000
3155.312748	601.500000
3156.475715	625.600000
3157.638510	619.750000
3158.801132	606.800000
3159.962089	634.450000
3161.122873	618.650000
3162.283485	600.400000
3163.442433	621.400000
3164.601210	622.750000
3165.759815	609.500000
3166.918248	629.700000
3168.076509	621.100000
3169.233108	612.250000
3170.388046	602.050000
3171.544303	597.900000
3172.698899	590.450000
3173.853325	607.200000
3175.006091	610.300000
3176.158687	599.000000
3177.311112	598.800000
3178.463368	596.250000
3179.615453	601.150000
3180.764393	598.700000
3181.916139	589.750000
3183.066227	596.450000
3184.214659	602.100000
3185.362922	612.200000
3186.511015	598.900000
3187.658940	587.550000
3188.805210	607.150000
3189.951311	604.550000
3191.095757	619.800000
3192.240036	601.850000
3193.384147	598.550000
3194.529575	590.300000
3195.671865	568.750000
3196.813988	589.650000
3197.955943	594.700000
3199.097731	575.900000
3200.239353	575.400000
3201.377838	589.200000
3202.517641	577.200000
3203.658762	595.400000
3204.796748	589.550000
3205.933085	594.750000
3207.069256	577.900000
3208.206745	598.650000
3209.342584	580.800000
3210.479741	595.700000
3211.612285	590.850000
3212.749111	600.000000
3213.881325	607.050000
3215.014856	594.900000
3216.148223	592.050000
3217.278462	609.450000
3218.411499	590.900000
3219.541410	595.350000
3220.672637	609.900000
3221.800740	618.850000
3222.931639	597.300000
3224.060894	601.400000
3225.188506	583.550000
3226.312996	593.250000
3227.441760	595.200000
3228.567403	582.350000
3229.692884	576.050000
3230.816723	584.600000
3231.943356	576.100000
3233.065392	598.750000
3234.188744	582.050000
3235.311934	559.250000
3236.434962	572.100000
3237.556350	560.750000
3238.677577	563.050000
3239.797165	577.500000
3240.916592	557.250000
3242.034381	562.650000
3243.154962	575.400000
3244.272430	582.750000
3245.389737	559.350000
3246.506884	595.600000
3247.622395	566.550000
3248.739221	592.550000
3249.852936	566.200000
3250.969441	576.300000
3252.084312	575.900000
3253.196074	566.550000
3254.307676	583.700000
3255.420594	573.850000
3256.533353	555.050000
3257.643005	566.650000
3258.753971	590.550000
3259.864779	567.000000
3260.973956	581.150000
3262.081501	581.150000
3263.190360	585.000000
3264.299062	559.950000
3265.404661	571.400000
3266.511574	593.550000
3267.616858	574.900000
3268.723457	583.050000
3269.826955	565.000000
3270.931767	582.750000
3272.036422	564.400000
3273.137978	565.050000
3274.239378	571.200000
3275.342093	553.900000
3276.444650	547.450000
3277.544111	565.700000
3278.646356	556.900000
3279.745505	549.800000
3280.843030	560.900000
3281.940399	543.400000
3283.040551	535.500000
3284.137609	552.500000
3285.234512	532.000000
3286.331260	563.450000
3287.423450	563.500000
3288.519888	558.150000
3289.614704	552.950000
3290.709366	546.200000
3291.802406	565.150000
3292.895292	554.800000
3293.986557	554.250000
3295.079135	555.400000
3296.170092	549.250000
3297.259430	543.300000
3298.348615	540.950000
3299.439113	547.050000
3300.526526	556.200000
3301.613787	533.650000
3302.702360	540.400000
3303.790780	534.500000
3304.874653	544.800000
3305.962768	544.550000
3307.047802	558.000000
3308.131219	548.850000
3309.215949	537.500000
3310.299064	538.000000
3311.383490	558.200000
3312.464838	552.100000
3313.547498	553.700000
3314.628544	526.850000
3315.709439	543.600000
3316.788720	531.300000
3317.867852	540.950000
3318.948294	540.100000
3320.025662	558.750000
3321.104342	543.200000
3322.181411	540.550000
3323.258329	549.950000
3324.333636	539.300000
3325.408794	540.950000
3326.485263	540.150000
3327.558662	532.150000
3328.631912	558.650000
3329.706472	554.400000
3330.779424	525.500000
3331.850767	535.300000
3332.923422	525.050000
3333.993009	527.050000
3335.063907	519.850000
3336.133198	532.550000
3337.203800	527.300000
3338.272795	546.100000
3339.340184	530.400000
3340.405968	528.250000
3341.475978	527.300000
3342.542925	535.450000
3343.606810	522.650000
3344.673463	515.500000
3345.738511	523.850000
3346.801956	532.350000
3347.865255	544.000000
3348.928407	540.850000
3349.991413	527.900000
3351.054273	534.800000
3352.115531	518.900000
3353.173732	498.900000
3354.236154	527.150000
3355.295519	526.400000
3356.354739	520.350000
3357.415269	534.500000
3358.471289	523.650000
3359.530073	530.150000
3360.584350	527.550000
3361.641391	518.200000
3362.696834	510.250000
3363.753585	532.200000
3364.808738	509.400000
3365.862294	525.200000
3366.914254	507.500000
3367.968975	518.950000
3369.020647	520.800000
3370.072176	522.150000
3371.125013	513.900000
3372.174803	527.850000
3373.225902	520.650000
3374.273955	533.050000
3375.324767	507.850000
3376.372535	534.950000
3377.420160	506.350000
3378.467642	533.950000
3379.513532	531.050000
3380.560730	525.000000
3381.604886	509.550000
3382.651800	509.250000
3383.697122	498.850000
3384.739403	528.400000
3385.781544	512.400000
3386.824992	531.700000
3387.868299	528.000000
3388.910017	520.500000
3389.951593	512.600000
3390.993029	525.300000
3392.032875	504.800000
3393.071133	527.100000
3394.110699	506.250000
3395.150125	515.000000
3396.187963	500.500000
3397.224214	518.100000
3398.260326	500.700000
3399.297745	509.250000
3400.332131	510.500000
3401.367824	524.550000
3402.403378	505.500000
3403.435901	501.900000
3404.471177	510.500000
3405.503422	493.650000
3406.535529	509.950000
3407.566052	511.400000
3408.597882	510.150000
3409.629574	513.800000
3410.658238	530.900000
3411.686765	514.150000
3412.716599	516.500000
3413.746294	530.250000
3414.772964	525.400000
3415.800941	528.850000
3416.825893	519.550000
3417.853595	526.050000
3418.878274	521.400000
3419.904259	519.800000
3420.928664	516.100000
3421.952933	515.800000
3422.975623	529.600000
3423.998177	523.000000
3425.022037	515.650000
3426.042877	516.050000
3427.063582	514.250000
3428.085592	520.700000
3429.104584	504.150000
3430.123441	514.350000
3431.143603	507.400000
3432.160749	506.000000
