-118.067271	230.312271
-115.397671	239.699634
-112.731006	245.757076
-110.065093	248.900100
-107.402113	249.544206
-104.737702	248.104895
-102.076222	244.997669
-99.413313	233.347319
-96.755510	234.104895
-94.096278	229.944056
-91.437794	230.818182
-88.782235	234.696970
-86.125246	241.142191
-83.473356	237.435897
-80.820036	236.752914
-78.169635	236.228438
-75.517806	234.431235
-72.871067	233.736597
-70.222898	234.836830
-67.575472	231.372960
-64.930961	234.944056
-62.285020	238.179487
-59.644161	243.435897
-57.001873	250.696970
-54.362494	250.100233
-51.721686	249.773893
-49.081617	246.741259
-46.446622	246.202797
-43.810197	245.552448
-41.176675	247.456876
-38.541725	249.055944
-35.911841	254.000000
-33.278363	256.151515
-30.649948	257.062937
-28.022267	262.573427
-25.393157	263.209790
-22.769105	248.121212
-20.141462	206.592075
-17.518874	101.885781
-14.897016	146.349650
-12.275889	464.743590
-9.655493	933.804196
-7.037984	1324.787879
-4.419047	1596.372960
-1.802996	1738.608392
0.812328	1754.368298
3.426923	1651.613054
6.038637	1426.473193
8.651779	1082.533800
11.259887	654.550117
13.871576	239.638695
16.478235	76.822844
19.086323	148.825175
21.693685	258.764569
24.296023	279.179487
26.901940	280.948718
29.502834	282.135198
32.105156	282.717949
34.702460	287.696970
37.303341	296.638695
39.899206	300.428904
42.496500	303.487179
45.093074	306.417249
47.684639	307.662005
50.277632	313.668998
52.867764	319.279720
55.459323	322.668998
58.048024	328.125874
60.638151	329.659674
63.223279	331.319347
65.809835	333.722611
68.395677	335.039627
70.978664	335.860140
73.563079	335.939394
76.140365	337.757576
78.721217	339.251748
81.299220	345.829837
83.876513	350.034965
86.455232	359.710956
89.028969	372.223776
91.604133	387.699301
94.176454	405.897436
96.748068	418.587413
99.316841	431.948718
101.887041	451.200466
104.454402	474.524476
107.023190	500.993007
109.589141	528.540793
112.152257	575.006993
114.718929	647.519814
117.276379	760.300699
119.839515	945.340326
122.397692	1310.403263
124.959423	1972.834499
127.516197	3083.230769
130.074397	4932.151515
132.627645	7563.370629
135.180195	11039.130536
137.736295	15166.505828
140.287447	19678.757576
142.837902	24261.027972
145.387659	28578.254079
147.934597	32252.937063
150.480840	35129.976690
153.028508	37111.524476
155.575480	38304.659674
158.117517	38876.538462
160.658860	39080.659674
163.199510	39075.906760
165.741586	39075.993007
168.280850	39048.696970
170.817305	39038.181818
173.353070	39051.815851
175.890260	39103.820513
178.426759	39084.240093
180.960452	39105.400932
183.491341	39140.393939
186.021542	39204.811189
188.553169	39266.400932
191.081994	39324.365967
193.608020	39405.090909
196.133360	39500.585082
198.660125	39546.634033
201.184094	39581.356643
203.707378	39584.962704
206.229976	39583.503497
208.749782	39570.962704
211.268905	39614.916084
213.787346	39628.920746
216.307210	39688.944056
218.820072	39745.396270
221.336467	39841.976690
223.852179	39917.030303
226.363001	40014.023310
228.875248	40118.153846
231.384712	40154.480186
233.893498	40210.902098
236.401606	40251.235431
238.911138	40351.519814
241.415789	40421.554779
243.919764	40468.589744
246.425163	40600.652681
248.925687	40672.634033
251.429734	40757.573427
253.926811	40799.517483
256.427411	40864.167832
258.925239	40903.058275
261.422394	40911.354312
263.918876	40964.729604
266.410495	40988.149184
268.905634	40998.741259
271.398006	41004.997669
273.889708	41006.773893
276.378647	41021.699301
278.869009	41021.620047
281.356610	40975.675991
283.841451	40936.382284
286.329807	40886.303030
288.811223	40860.953380
291.296153	40884.344988
293.776238	40895.188811
296.259835	40952.032634
298.738589	40948.981352
301.218766	40996.806527
303.696192	40954.533800
306.172954	40947.030303
308.649052	40959.559441
311.122402	40990.624709
313.595091	41039.228438
316.067118	41100.400932
318.538483	41238.822844
321.007105	41311.529138
323.475067	41440.841492
325.944452	41561.773893
328.409014	41635.449883
330.877080	41719.293706
333.340325	41754.641026
335.802914	41781.955711
338.264846	41827.899767
340.726121	41918.794872
343.184661	41958.284382
345.644625	41981.627040
348.101855	41979.342657
350.558431	41949.792541
353.014353	41955.284382
355.467545	41893.128205
357.922160	41862.100233
360.371973	41854.613054
362.825282	41845.041958
365.273792	41759.149184
367.721652	41750.062937
370.170934	41746.160839
372.615422	41745.885781
375.061332	41762.515152
377.506592	41806.515152
379.949134	41891.272727
382.391028	41901.016317
384.832274	41930.648019
387.270806	42004.135198
389.710758	42065.293706
392.147997	42070.144522
394.582525	42048.144522
397.020539	42083.689977
399.453778	42117.843823
401.888437	42136.324009
404.318324	42224.734266
406.751696	42306.743590
409.180298	42382.624709
411.608258	42491.538462
414.037640	42602.144522
416.462256	42749.293706
418.888294	42872.410256
421.313691	42994.811189
423.738448	43152.107226
426.158446	43268.275058
428.579866	43372.638695
430.998590	43441.920746
433.418734	43527.200466
435.836183	43604.780886
438.255052	43649.848485
440.671227	43671.384615
443.082656	43669.638695
445.497561	43688.326340
447.909777	43731.393939
450.321358	43774.615385
452.732305	43812.650350
455.140565	43833.699301
457.548194	43873.902098
459.955190	43936.358974
462.361555	43972.403263
464.765237	44038.300699
467.168289	44097.097902
469.570711	44046.734266
471.972503	44077.254079
474.371617	44056.932401
476.772151	44043.214452
479.172056	43967.361305
481.567239	43943.100233
483.965888	43871.617716
486.359816	43795.871795
488.753119	43778.296037
491.145797	43733.643357
493.537849	43713.247086
495.931319	43738.293706
498.320077	43723.382284
500.706169	43783.976690
503.093681	43733.498834
505.480570	43786.221445
507.864795	43824.081585
510.250438	43930.503497
512.633420	43934.608392
515.013741	44065.351981
517.395481	44148.179487
519.774562	44223.069930
522.155061	44311.370629
524.532904	44439.037296
526.908090	44526.589744
529.282660	44569.655012
531.658647	44609.738928
534.031982	44699.048951
536.406734	44734.827506
538.776800	44760.258741
541.146252	44777.237762
543.517121	44843.993007
545.883309	44835.892774
548.250916	44848.501166
550.615878	44909.636364
552.980226	44991.083916
555.343961	45037.298368
557.709114	45133.519814
560.069595	45214.170163
562.431494	45240.156177
564.790752	45305.048951
567.147372	45331.354312
569.507438	45383.895105
571.860812	45379.529138
574.217631	45436.135198
576.571815	45458.731935
578.925390	45525.818182
581.278358	45529.799534
583.628693	45562.682984
585.980446	45594.263403
588.325522	45635.941725
590.676061	45624.715618
593.019928	45681.727273
595.369256	45685.603730
597.713935	45726.916084
600.055990	45708.144522
602.399462	45798.426573
604.740311	45851.205128
607.080557	45874.843823
609.418183	45883.981352
611.759244	45939.972028
614.095668	45960.321678
616.433508	46044.629371
618.768731	46062.088578
621.101337	46120.191142
623.435361	46096.125874
625.766770	46136.627040
628.097581	46136.655012
630.427794	46204.289044
632.757410	46223.002331
635.082402	46228.468531
637.412836	46224.659674
639.738649	46283.130536
642.061854	46321.477855
644.386476	46433.328671
646.708492	46454.953380
649.029914	46475.776224
651.348733	46479.918415
653.668969	46521.428904
655.988611	46587.020979
658.305652	46600.862471
660.622101	46608.109557
662.935952	46660.403263
665.251219	46656.662005
667.563889	46711.510490
669.877974	46748.065268
672.187459	46846.932401
674.498360	46877.790210
676.806668	46903.312354
679.114388	46887.382284
681.423522	46866.689977
683.728064	46934.030303
686.032020	46942.340326
688.335390	46947.629371
690.640174	46999.806527
692.940371	46991.400932
695.241984	47012.347319
697.543011	47053.566434
699.839457	47095.095571
702.137318	47098.771562
704.434595	47073.948718
706.731289	47065.566434
709.023407	47070.417249
711.318936	47122.685315
713.609891	47140.729604
715.902261	47196.666667
718.192056	47258.384615
720.481270	47292.972028
722.769905	47354.736597
725.055967	47410.545455
727.343444	47445.881119
729.628349	47486.594406
731.912677	47531.356643
734.194436	47595.557110
736.477609	47692.911422
738.760205	47761.736597
741.038245	47829.146853
743.317699	47979.764569
745.596578	48050.596737
747.874882	48137.284382
750.148636	48239.941725
752.423803	48310.111888
754.698397	48368.606061
756.970432	48392.899767
759.243880	48391.892774
761.514770	48437.291375
763.783104	48511.191142
766.052851	48504.510490
768.320043	48519.307692
770.586666	48594.829837
772.852718	48601.538462
775.116219	48603.955711
777.381133	48632.083916
779.645477	48626.473193
781.905292	48624.060606
784.166519	48636.972028
786.427179	48648.023310
788.685293	48713.862471
790.940862	48768.233100
793.199821	48747.081585
795.452282	48747.960373
797.710110	48788.328671
799.963419	48733.477855
802.214188	48697.193473
804.466369	48654.841492
806.716011	48638.664336
808.967065	48621.393939
811.213609	48647.510490
813.461564	48650.510490
815.706985	48671.512821
817.953817	48669.717949
820.200088	48610.883450
822.441854	48600.272727
824.687004	48603.659674
826.925681	48545.631702
829.167740	48505.769231
831.405301	48480.011655
833.644274	48501.797203
835.880720	48480.883450
838.118577	48508.748252
840.353909	48523.955711
842.586718	48608.097902
844.820937	48682.228438
847.052635	48750.235431
849.283778	48857.883450
851.514366	48932.850816
853.744400	49031.827506
855.973880	49126.263403
858.198878	49198.503497
860.427250	49222.160839
862.651144	49207.496503
864.876449	49243.186480
867.097278	49242.883450
869.321479	49317.207459
871.541207	49351.687646
873.762345	49370.981352
875.982933	49430.114219
878.201012	49472.247086
880.420500	49534.995338
882.635522	49515.965035
884.849996	49486.442890
887.063923	49397.668998
889.277303	49332.820513
891.490135	49291.997669
893.702420	49248.776224
895.912204	49196.750583
898.121442	49134.955711
900.330135	49130.016317
902.536328	49149.675991
904.743932	49157.219114
906.949037	49168.920746
909.153599	49152.193473
911.355666	49184.370629
913.559142	49206.286713
915.760124	49251.538462
917.960564	49312.158508
920.162413	49362.939394
922.357871	49358.247086
924.556687	49355.102564
926.751066	49411.692308
928.948802	49442.247086
931.142102	49426.130536
933.336811	49500.051282
935.529033	49560.543124
937.720718	49588.776224
939.911865	49676.827506
942.100529	49747.037296
944.288657	49835.109557
946.474303	49930.808858
948.663303	50035.375291
950.847879	50078.561772
953.031920	50193.881119
955.219311	50311.006993
957.398398	50396.452214
959.580836	50570.298368
961.762740	50709.482517
963.942169	50829.689977
966.119126	50999.000000
968.297491	51125.123543
970.477263	51171.454545
972.650686	51248.062937
974.827455	51293.731935
976.999817	51261.011655
979.173587	51268.692308
981.342953	51251.337995
983.515663	51217.741259
985.685908	51195.596737
987.855623	51161.013986
990.024810	51163.407925
992.189600	51133.331002
994.357732	51158.512821
996.521468	51093.806527
998.686612	51125.195804
1000.849296	51147.151515
1003.011455	51146.139860
1005.171157	51147.470862
1007.330334	51102.146853
1009.490918	51056.508159
1011.649047	50950.370629
1013.806653	50813.023310
1015.963735	50719.930070
1018.120293	50560.715618
1020.272472	50477.426573
1022.426058	50323.489510
1024.579122	50244.405594
1026.729737	50173.720280
1028.881758	50145.503497
1031.029407	50090.505828
1033.180387	50058.442890
1035.326996	49990.361305
1037.473086	49917.452214
1039.618658	49852.848485
1041.765635	49806.622378
1043.906323	49769.713287
1046.050340	49760.764569
1048.191918	49729.580420
1050.332978	49744.468531
1052.475444	49779.090909
1054.611629	49807.312354
1056.751141	49786.596737
1058.886297	49821.911422
1061.024778	49826.708625
1063.158906	49866.564103
1065.292520	49915.948718
1067.427538	49973.717949
1069.558208	50134.780886
1071.690282	50245.279720
1073.819927	50394.578089
1075.949060	50575.743590
1078.077681	50728.310023
1080.205791	50874.913753
1082.331475	51007.706294
1084.456649	51155.375291
1086.583227	51279.706294
1088.705467	51389.575758
1090.829112	51515.426573
1092.948422	51595.818182
1095.072961	51742.324009
1097.191256	51837.076923
1099.310954	51941.463869
1101.428235	52075.662005
1103.545008	52149.550117
1105.661276	52252.065268
1107.775127	52342.095571
1109.890382	52419.850816
1112.001315	52453.160839
1114.115560	52536.892774
1116.225484	52685.512821
1118.336812	52789.941725
1120.447635	52883.498834
1122.554142	52961.559441
1124.663958	53006.279720
1126.769461	53120.564103
1128.876366	53140.671329
1130.977056	53190.585082
1133.082958	53218.988345
1135.184551	53232.097902
1137.287547	53242.307692
1139.390042	53277.137529
1141.486330	53357.331002
1143.587825	53382.358974
1145.685018	53342.909091
1147.781713	53367.804196
1149.877909	53380.370629
1151.973607	53443.748252
1154.068808	53507.384615
1156.161612	53554.286713
1158.255818	53637.710956
1160.343833	53700.088578
1162.437047	53794.114219
1164.524072	53879.755245
1166.614396	53977.459207
1168.700432	54043.557110
1170.789766	54086.939394
1172.872920	54196.212121
1174.957475	54245.694639
1177.043432	54330.188811
1179.125107	54336.410256
1181.208183	54312.969697
1183.288874	54322.668998
1185.369074	54311.860140
1187.448782	54330.109557
1189.527999	54353.198135
1191.604833	54352.904429
1193.679287	54380.967366
1195.757033	54486.468531
1197.830508	54551.743590
1199.905385	54616.829837
1201.975994	54683.454545
1204.048004	54691.599068
1206.117638	54743.864802
1208.188673	54792.722611
1210.259221	54855.074592
1212.325507	54880.801865
1214.393194	54938.076923
1216.458508	55019.813520
1218.525224	55084.263403
1220.587683	55148.491841
1222.653427	55110.079254
1224.714917	55101.041958
1226.777808	55121.960373
1228.838330	55128.708625
1230.898370	55121.655012
1232.957926	55117.219114
1235.015118	55120.067599
1237.071827	55119.048951
1239.126174	55200.988345
1241.183802	55294.585082
1243.239066	55361.976690
1245.290091	55409.153846
1247.342515	55448.785548
1249.394459	55524.955711
1251.444045	55662.512821
1253.493152	55722.111888
1255.541780	55782.888112
1257.589930	55817.617716
1259.637602	55849.727273
1261.681043	55908.897436
1263.727760	55947.512821
1265.772123	56001.687646
1267.816010	56050.363636
1269.857545	56084.834499
1271.896731	56125.123543
1273.939190	56159.990676
1275.977426	56187.997669
1278.017061	56153.249417
1280.056221	56144.869464
1282.091162	56085.533800
1284.127502	56050.613054
1286.161498	56025.650350
1288.196891	55933.076923
1290.228071	55897.223776
1292.260650	55833.533800
1294.292757	55759.743590
1296.322523	55720.090909
1298.353686	55695.550117
1300.380643	55731.680653
1302.408997	55837.836830
1304.433146	56022.995338
1306.460561	56204.004662
1308.483773	56523.930070
1310.508383	56961.526807
1312.530659	57722.554779
1314.554331	58733.356643
1316.575671	59845.132867
1318.596544	60984.421911
1320.616949	62084.780886
1322.633161	63040.277389
1324.650770	63821.310023
1326.666051	64364.888112
1328.684591	64641.925408
1330.698941	64809.093240
1332.710966	64848.100233
1334.726249	64658.428904
1336.737346	64345.086247
1338.749839	63743.864802
1340.758150	62901.869464
1342.769717	61910.442890
1344.775245	60766.074592
1346.784028	59596.368298
1348.788633	58558.533800
1350.796492	57643.067599
1352.803889	57020.925408
1354.805255	56783.505828
1356.808017	56642.337995
1358.810320	56519.202797
1360.812163	56392.538462
1362.813546	56263.965035
1364.812615	56158.531469
1366.811227	56081.421911
1368.809379	55958.547786
1370.807074	55909.407925
1372.800606	55903.797203
1374.795533	55864.722611
1376.790004	55857.634033
1378.784018	55821.745921
1380.775725	55823.587413
1382.766976	55828.372960
1384.755922	55844.699301
1386.746264	55854.510490
1388.736150	55852.655012
1390.723732	55860.291375
1392.710861	55869.400932
1394.695688	55952.405594
1396.681910	55992.634033
1398.665831	56057.575758
1400.649300	56059.109557
1402.632317	56083.349650
1404.613036	56163.587413
1406.595149	56198.909091
1408.574965	56231.324009
1410.554331	56252.855478
1412.529558	56285.673660
1414.508023	56394.475524
1416.484195	56490.575758
1418.459917	56669.960373
1420.435191	56775.093240
1422.408173	56924.135198
1424.380707	57043.097902
1426.352793	57183.167832
1428.324432	57333.088578
1430.291942	57440.662005
1432.264526	57515.149184
1434.229304	57611.107226
1436.199155	57700.820513
1438.164881	57789.251748
1440.132001	57845.233100
1442.096837	57938.370629
1444.057553	57955.058275
1446.023337	58023.671329
1447.983166	58096.142191
1449.944389	58107.440559
1451.907003	58140.594406
1453.865503	58196.153846
1455.823561	58198.065268
1457.781177	58193.379953
1459.738350	58146.722611
1461.693248	58112.123543
1463.649539	58024.995338
1465.603555	57924.020979
1467.557130	57822.200466
1469.508433	57754.368298
1471.461128	57649.871795
1473.411552	57485.484848
1475.361537	57403.188811
1477.311083	57398.065268
1479.258360	57367.174825
1481.203369	57371.417249
1483.149771	57363.972028
1485.095735	57365.624709
1487.041262	57316.636364
1488.984523	57304.890443
1490.927348	57335.337995
1492.867910	57271.296037
1494.809864	57215.524476
1496.749555	57175.708625
1498.688811	57166.829837
1500.627633	57180.347319
1502.564195	57159.482517
1504.502148	57174.916084
1506.437842	57123.620047
1508.373103	57107.009324
1510.306107	57138.226107
1512.238679	57148.743590
1514.170819	57181.193473
1516.102527	57173.410256
1518.031982	57247.240093
1519.962827	57295.009324
1521.893240	57348.156177
1523.819581	57397.860140
1525.747312	57402.289044
1527.672794	57449.839161
1529.597846	57436.282051
1531.522469	57432.247086
1533.446662	57488.622378
1535.368609	57501.662005
1537.291946	57544.065268
1539.213036	57604.361305
1541.131882	57668.620047
1543.052118	57721.573427
1544.970110	57734.081585
1546.887676	57754.412587
1548.803001	57769.636364
1550.719715	57755.983683
1552.632374	57693.393939
1554.548236	57645.869464
1556.461860	57624.351981
1558.373245	57610.634033
1560.286020	57602.086247
1562.194745	57628.976690
1564.104859	57646.727273
1566.014550	57683.580420
1567.923818	57687.568765
1569.830851	57727.473193
1571.735653	57775.013986
1573.641842	57786.540793
1575.545801	57794.801865
1577.449338	57849.165501
1579.352455	57871.053613
1581.253342	57945.034965
1583.155618	57933.717949
1585.055665	57930.118881
1586.957101	57915.757576
1588.854503	57907.526807
1590.751486	57879.993007
1592.648051	57789.627040
1594.546003	57753.298368
1596.438121	57699.067599
1598.333433	57701.445221
1600.228327	57692.046620
1602.120999	57683.680653
1604.013254	57683.449883
1605.903290	57649.300699
1607.792910	57689.060606
1609.682115	57724.974359
1611.570904	57789.114219
1613.457477	57820.976690
1615.345437	57812.090909
1617.229380	57816.191142
1619.114710	57831.671329
1620.999627	57857.179487
1622.882330	57771.664336
1624.766420	57746.571096
1626.646498	57717.648019
1628.527964	57706.452214
1630.407218	57720.354312
1632.287860	57722.447552
1634.162697	57750.554779
1636.042515	57757.599068
1637.918329	57760.268065
1639.793732	57750.526807
1641.670521	57760.109557
1643.541513	57755.727273
1645.415688	57734.079254
1647.285863	57755.020979
1649.159219	57766.764569
1651.030372	57776.941725
1652.899323	57785.510490
1654.769660	57786.480186
1656.636004	57768.291375
1658.503733	57800.974359
1660.369263	57792.270396
1662.236179	57757.578089
1664.099105	57728.741259
1665.963418	57720.536131
1667.825534	57681.736597
1669.687245	57616.843823
1671.550341	57538.254079
1673.411243	57499.923077
1675.269952	57487.277389
1677.128257	57472.694639
1678.987946	57465.261072
1680.841869	57515.235431
1682.698965	57549.442890
1684.555657	57562.167832
1686.408374	57558.885781
1688.264262	57549.675991
1690.116176	57514.128205
1691.967689	57495.748252
1693.818801	57464.265734
1695.669512	57508.568765
1697.519823	57527.083916
1699.367950	57540.396270
1701.217461	57527.300699
1703.061222	57577.165501
1704.909934	57599.836830
1706.752899	57570.125874
1708.599030	57579.207459
1710.441200	57584.871795
1712.286535	57605.778555
1714.126129	57632.620047
1715.967107	57629.580420
1717.809468	57665.186480
1719.647872	57648.680653
1721.487660	57681.850816
1723.325273	57662.277389
1725.162491	57678.333333
1726.997535	57678.209790
1728.833962	57663.170163
1730.668216	57701.419580
1732.502077	57684.447552
1734.335543	57756.706294
1736.165063	57805.895105
1737.997743	57845.624709
1739.826478	57948.857809
1741.658370	57968.331002
1743.486320	58067.965035
1745.313878	58098.139860
1747.141045	58135.771562
1748.967820	58190.009324
1750.794203	58178.228438
1752.616650	58187.083916
1754.442252	58220.652681
1756.263919	58272.289044
1758.086967	58328.638695
1759.907855	58356.102564
1761.728354	58392.498834
1763.550233	58394.685315
1765.366413	58489.456876
1767.185745	58504.769231
1769.001150	58579.680653
1770.819706	58630.055944
1772.634336	58666.111888
1774.448579	58753.974359
1776.262436	58840.125874
1778.075906	58871.298368
1779.887223	58959.648019
1781.699920	58972.305361
1783.512232	59002.662005
1785.320625	59065.188811
1787.130400	59131.920746
1788.936260	59128.934732
1790.745265	59171.016317
1792.550357	59178.496503
1794.356830	59223.174825
1796.162919	59266.503497
1797.965097	59338.701632
1799.770420	59396.834499
1801.571833	59442.191142
1803.374628	59476.223776
1805.173516	59502.976690
1806.973785	59579.641026
1808.773672	59619.731935
1810.571417	59599.997669
1812.368782	59582.503497
1814.165766	59596.340326
1815.962371	59633.310023
1817.756835	59651.428904
1819.552680	59703.426573
1821.342869	59706.263403
1823.137955	59685.041958
1824.927388	59707.634033
1826.719959	59729.433566
1828.510394	59789.223776
1830.298694	59803.202797
1832.090130	59793.512821
1833.875921	59812.808858
1835.663091	59874.456876
1837.448129	59880.731935
1839.236300	59889.627040
1841.020587	59911.967366
1842.802743	59928.403263
1844.586279	59955.867133
1846.367686	59959.389277
1848.150471	59993.955711
1849.929377	60013.216783
1851.709661	60054.680653
1853.487820	60076.944056
1855.267357	60091.643357
1857.044768	60104.114219
1858.820057	60100.158508
1860.596723	60139.079254
1862.371267	60189.076923
1864.147188	60254.314685
1865.917490	60323.002331
1867.690919	60319.165501
1869.462228	60368.132867
1871.233166	60400.815851
1873.005482	60450.023310
1874.772184	60455.487179
1876.542011	60441.974359
1878.307975	60465.736597
1880.077063	60457.692308
1881.842289	60462.827506
1883.607147	60468.734266
1885.373381	60506.578089
1887.135758	60489.515152
1888.897766	60496.655012
1890.659408	60488.867133
1892.420682	60467.594406
1894.181590	60494.477855
1895.942130	60481.489510
1897.700562	60487.871795
1899.458627	60476.242424
1901.214585	60467.139860
1902.971919	60486.701632
1904.728888	60485.815851
1906.483750	60522.974359
1908.236508	60505.794872
1909.988901	60512.438228
1911.742671	60487.100233
1913.494337	60499.699301
1915.243900	60548.883450
1916.994840	60573.857809
1918.745416	60595.020979
1920.492154	60593.841492
1922.240267	60640.433566
1923.986282	60659.501166
1925.733671	60651.093240
1927.478962	60655.617716
1929.222157	60622.787879
1930.966726	60604.069930
1932.709199	60618.065268
1934.451313	60634.916084
1936.193066	60656.142191
1937.934459	60692.790210
1939.673759	60725.636364
1941.412700	60799.580420
1943.151282	60838.356643
1944.887773	60890.118881
1946.623905	60930.771562
1948.361413	60961.606061
1950.095098	61024.727273
1951.830158	61110.160839
1953.563129	61160.799534
1955.295744	61252.081585
1957.028002	61319.662005
1958.759905	61365.433566
1960.489721	61422.904429
1962.217452	61488.888112
1963.946558	61518.997669
1965.675308	61565.932401
1967.401976	61592.044289
1969.128288	61608.771562
1970.855975	61667.277389
1972.578125	61717.841492
1974.303376	61772.020979
1976.024820	61856.200466
1977.749364	61883.997669
1979.471829	61916.069930
1981.190490	61956.953380
1982.912251	62006.172494
1984.630209	62063.132867
1986.349540	62104.046620
1988.065072	62135.067599
1989.785424	62165.927739
1991.501978	62217.696970
1993.214735	62246.139860
1994.930588	62279.466200
1996.644369	62328.111888
1998.357800	62366.631702
2000.069160	62411.592075
2001.781892	62472.060606
2003.490834	62546.559441
2005.202868	62607.869464
2006.909393	62653.829837
2008.619011	62645.710956
2010.326561	62632.407925
2012.033764	62661.937063
2013.738901	62637.405594
2015.443692	62634.468531
2017.149854	62646.533800
2018.852234	62641.946387
2020.555985	62634.706294
2022.257674	62652.561772
2023.959017	62674.787879
2025.660016	62695.585082
2027.358953	62722.461538
2029.059262	62740.624709
2030.755795	62752.885781
2032.453700	62823.403263
2034.149547	62838.289044
2035.848479	62894.020979
2037.541925	62932.149184
2039.236742	62944.041958
2040.931216	62969.009324
2042.621923	62975.759907
2044.315712	62990.347319
2046.005736	62989.310023
2047.697130	62974.142191
2049.386470	62966.172494
2051.077182	62922.715618
2052.764130	62918.778555
2054.450738	62864.256410
2056.138717	62859.454545
2057.822936	62811.692308
2059.508526	62800.023310
2061.193775	62800.538462
2062.876977	62763.536131
2064.561549	62749.372960
2066.240657	62731.813520
2067.924552	62731.920746
2069.602985	62749.603730
2071.284496	62756.102564
2072.962255	62783.592075
2074.639678	62793.244755
2076.318470	62838.214452
2077.995219	62841.575758
2079.669927	62895.284382
2081.346005	62914.906760
2083.020041	62937.088578
2084.693743	62963.039627
2086.367109	62982.123543
2088.038436	62991.358974
2089.709429	63013.741259
2091.380088	63012.223776
2093.050413	63019.484848
2094.720404	63020.797203
2096.388359	63043.184149
2098.055980	63043.013986
2099.721568	63096.193473
2101.388524	63145.941725
2103.053447	63204.449883
2104.718038	63275.848485
2106.380597	63322.421911
2108.044524	63364.559441
2109.706420	63411.466200
2111.367986	63439.734266
2113.029220	63479.902098
2114.688425	63488.114219
2116.347301	63513.969697
2118.005847	63527.391608
2119.664062	63566.412587
2121.318555	63597.354312
2122.976112	63619.734266
2124.633339	63649.244755
2126.286846	63663.522145
2127.941720	63684.011655
2129.592875	63678.522145
2131.247093	63703.391608
2132.897593	63726.410256
2134.549461	63730.144522
2136.195920	63743.629371
2137.847134	63798.543124
2139.494634	63821.603730
2141.143501	63860.396270
2142.790349	63873.846154
2144.436872	63912.076923
2146.083069	63935.976690
2147.725558	63931.284382
2149.371104	63914.377622
2151.012944	63902.755245
2152.657841	63888.328671
2154.299033	63870.053613
2155.939901	63856.205128
2157.580446	63886.675991
2159.218978	63871.657343
2160.858876	63879.797203
2162.495074	63899.473193
2164.132638	63935.610723
2165.769880	63955.440559
2167.405112	63970.643357
2169.040022	64008.226107
2170.674611	64004.261072
2172.308879	64006.979021
2173.939453	64023.149184
2175.573079	64037.319347
2177.203013	64053.186480
2178.834312	64036.482517
2180.463606	64031.018648
2182.092581	64044.433566
2183.721236	64046.715618
2185.349572	64058.925408
2186.975905	64064.918415
2188.601920	64063.855478
2190.225934	64057.275058
2191.851313	64069.585082
2193.474691	64095.638695
2195.099434	64103.682984
2196.720496	64113.620047
2198.341241	64108.111888
2199.963350	64101.109557
2201.583462	64111.228438
2203.201578	64096.787879
2204.819378	64107.337995
2206.436862	64100.037296
2208.054032	64096.652681
2209.670885	64134.841492
2211.287424	64163.666667
2212.901970	64195.333333
2214.514523	64225.172494
2216.128440	64250.606061
2217.740366	64274.149184
2219.353655	64273.939394
2220.964954	64290.682984
2222.574263	64287.743590
2224.184935	64296.787879
2225.793619	64299.708625
2227.401991	64308.762238
2229.008376	64325.792541
2230.616123	64333.300699
2232.221885	64354.275058
2233.827335	64363.701632
2235.430800	64370.890443
2237.035628	64391.233100
2238.638472	64397.088578
2240.239333	64413.100233
2241.841557	64417.207459
2243.441799	64423.937063
2245.043403	64438.545455
2246.641354	64442.013986
2248.240668	64450.839161
2249.838002	64448.146853
2251.435028	64449.564103
2253.033415	64441.944056
2254.628155	64437.244755
2256.220917	64435.764569
2257.815042	64434.491841
2259.410528	64435.617716
2261.002369	64430.722611
2262.593904	64430.876457
2264.186801	64436.125874
2265.774388	64433.995338
2267.366671	64436.331002
2268.953648	64436.976690
2270.543652	64433.531469
2272.128352	64436.344988
2273.717746	64438.867133
2275.301837	64439.016317
2276.887290	64433.498834
2278.470774	64433.102564
2280.057283	64429.396270
2281.640159	64432.743590
2283.222732	64439.413753
2284.805001	64440.911422
2286.383640	64443.374126
2287.965304	64437.111888
2289.543339	64422.819347
2291.124397	64414.153846
2292.701828	64408.418415
2294.277296	64406.305361
2295.855786	64408.483683
2297.430652	64410.163170
2299.005217	64407.716783
2300.579481	64417.414918
2302.153445	64427.595571
2303.727109	64435.086247
2305.300473	64437.862471
2306.870218	64438.470862
2308.439664	64432.048951
2310.012128	64433.256410
2311.579318	64435.116550
2313.149525	64448.000000
2314.716119	64453.503497
2316.284072	64447.932401
2317.850069	64443.771562
2319.415769	64448.568765
2320.981171	64447.659674
2322.544620	64447.368298
2324.109428	64444.897436
2325.670628	64447.002331
2327.234842	64444.393939
2328.793794	64444.300699
2330.355760	64441.207459
2331.915776	64448.214452
2333.475496	64445.790210
2335.033268	64446.435897
2336.590744	64451.121212
2338.147926	64446.482517
2339.703160	64444.361305
2341.258101	64442.354312
2342.812747	64440.174825
2344.367100	64441.571096
2345.921159	64439.160839
2347.474925	64444.256410
2349.026746	64448.300699
2350.576624	64452.785548
2352.129511	64456.717949
2353.677154	64461.804196
2355.227806	64462.883450
2356.774866	64458.291375
2358.323284	64457.237762
2359.871411	64455.543124
2361.415949	64451.109557
2362.961845	64445.752914
2364.505803	64441.822844
2366.051117	64450.930070
2367.592847	64448.044289
2369.135935	64447.247086
2370.677086	64449.209790
2372.217948	64448.822844
2373.758521	64452.377622
2375.298805	64456.146853
2376.838800	64453.627040
2378.375216	64454.393939
2379.914634	64454.703963
2381.450475	64455.620047
2382.987673	64454.678322
2384.521295	64457.298368
2386.057917	64450.974359
2387.592609	64451.811189
2389.125371	64450.125874
2390.657846	64447.540793
2392.188393	64449.447552
2393.721938	64448.463869
2395.250272	64444.114219
2396.779962	64449.550117
2398.309367	64451.920746
2399.838487	64454.678322
2401.367321	64453.032634
2402.890951	64451.806527
2404.419216	64452.773893
2405.942279	64455.878788
2407.469975	64455.191142
2408.990832	64456.372960
2410.516321	64459.778555
2412.038251	64460.706294
2413.561535	64461.125874
2415.082899	64465.083916
2416.602343	64463.109557
2418.123142	64460.226107
2419.642022	64458.072261
2421.160621	64453.202797
2422.677301	64450.892774
2424.195337	64446.109557
2425.713091	64444.918415
2427.227293	64448.263403
2428.741216	64449.613054
2430.254858	64452.820513
2431.769854	64453.778555
2433.281303	64452.545455
2434.794105	64452.820513
2436.304995	64451.041958
2437.815606	64450.794872
2439.324305	64448.552448
2440.835990	64447.902098
2442.344132	64449.575758
2443.851996	64454.258741
2445.359581	64454.144522
2446.863627	64454.296037
2448.370657	64460.191142
2449.875779	64456.710956
2451.380624	64462.228438
2452.883562	64463.193473
2454.386224	64465.561772
2455.888609	64467.212121
2457.389089	64464.121212
2458.890922	64462.941725
2460.390850	64465.734266
2461.890503	64464.902098
2463.389881	64460.993007
2464.887356	64463.463869
2466.382929	64462.251748
2467.881482	64460.899767
2469.376507	64467.370629
2470.872884	64466.804196
2472.365735	64469.568765
2473.859939	64470.258741
2475.353869	64468.822844
2476.844275	64469.440559
2478.337659	64467.431235
2479.829145	64467.531469
2481.318734	64471.121212
2482.808051	64472.020979
2484.295472	64468.193473
2485.785869	64466.620047
2487.272748	64467.410256
2488.760978	64463.151515
2490.245691	64463.696970
2491.730134	64463.799534
2493.215929	64465.449883
2494.699832	64460.286713
2496.185085	64458.368298
2497.665205	64461.585082
2499.148298	64467.466200
2500.629500	64466.000000
2502.110433	64464.340326
2503.589477	64462.296037
2505.068252	64464.706294
2506.546759	64460.981352
2508.024997	64461.729604
2509.502968	64457.340326
2510.977433	64455.778555
2512.454868	64453.883450
2513.928798	64457.508159
2515.404080	64459.088578
2516.879094	64463.524476
2518.350607	64463.965035
2519.823471	64467.617716
2521.294452	64469.512821
2522.766783	64470.997669
2524.234000	64468.986014
2525.704184	64469.389277
2527.172487	64471.158508
2528.640525	64473.491841
2530.108297	64471.813520
2531.575806	64473.198135
2533.043049	64470.032634
2534.506800	64469.627040
2535.971901	64467.370629
2537.435125	64466.906760
2538.899698	64462.958042
2540.360783	64460.230769
2541.823217	64459.916084
2543.285388	64463.347319
2544.744072	64465.902098
2546.207329	64467.762238
2547.665489	64466.004662
2549.124999	64467.729604
2550.579414	64466.312354
2552.038400	64471.097902
2553.495514	64469.461538
2554.950756	64470.543124
2556.405738	64468.818182
2557.858850	64470.510490
2559.313311	64472.552448
2560.765903	64472.272727
2562.218235	64472.102564
2563.668699	64473.130536
2565.122120	64472.867133
2566.570458	64471.664336
2568.021751	64470.065268
2569.471179	64471.405594
2570.917134	64470.258741
2572.366044	64469.251748
2573.811484	64467.480186
2575.258271	64468.282051
2576.703195	64463.326340
2578.147862	64464.321678
2579.593876	64467.720280
2581.036424	64470.955711
2582.480318	64474.069930
2583.920748	64473.405594
2585.362526	64470.878788
2586.802444	64474.668998
2588.243709	64478.951049
2589.681512	64475.668998
2591.122265	64476.974359
2592.557956	64478.787879
2593.996595	64478.426573
2595.433378	64483.613054
2596.868305	64487.377622
2598.306179	64491.156177
2599.738996	64492.132867
2601.173160	64487.993007
2602.605470	64486.356643
2604.039126	64486.030303
2605.470929	64479.459207
2606.902478	64473.473193
2608.333774	64475.785548
2609.763219	64477.531469
2611.192411	64472.370629
2612.619752	64470.034965
2614.048440	64470.400932
2615.476875	64472.379953
2616.901864	64471.755245
2618.328198	64471.060606
2619.752685	64472.440559
2621.178517	64475.060606
2622.600905	64476.724942
2624.024638	64479.925408
2625.446526	64488.058275
2626.868163	64488.545455
2628.287956	64485.997669
2629.709094	64484.976690
2631.129982	64481.037296
2632.547431	64478.708625
2633.967820	64474.818182
2635.384772	64471.375291
2636.801476	64484.337995
2638.217931	64471.396270
2639.634138	64462.030303
2641.050097	64456.687646
2642.464215	64452.916084
2643.878085	64450.114219
2645.290116	64451.839161
2646.703492	64452.386946
2648.113438	64452.391608
2649.526320	64457.195804
2650.935773	64463.566434
2652.344980	64470.988345
2653.752351	64482.648019
2655.162656	64467.083916
2656.571125	64467.715618
2657.977760	64465.055944
2659.384149	64467.456876
2660.788704	64470.620047
2662.194603	64470.743590
2663.598669	64471.195804
2665.002490	64470.093240
2666.406067	64475.074592
2667.807813	64482.804196
2669.210902	64485.202797
2670.610573	64483.480186
2672.011588	64482.587413
2673.409187	64480.601399
2674.809715	64480.745921
2676.206829	64485.207459
2677.605286	64481.722611
2679.001916	64477.447552
2680.398303	64476.391608
2681.794448	64479.006993
2683.188767	64485.193473
2684.584429	64490.207459
2685.976682	64485.643357
2687.370277	64482.354312
2688.762048	64482.277389
2690.155162	64478.377622
2691.546452	64475.118881
2692.935919	64477.170163
2694.325146	64477.580420
2695.714134	64480.550117
2697.104463	64484.965035
2698.489809	64488.834499
2699.878078	64495.706294
2701.264527	64496.181818
2702.650737	64495.517483
2704.036708	64493.827506
2705.419281	64492.174825
2706.803196	64487.324009
2708.186872	64487.671329
2709.570311	64490.296037
2710.950354	64491.319347
2712.331739	64490.594406
2713.711309	64489.629371
2715.092219	64486.682984
2716.471315	64492.799534
2717.848597	64490.307692
2719.227220	64488.773893
2720.604029	64485.452214
2721.980603	64489.510490
2723.356941	64492.268065
2724.731467	64495.160839
2726.107334	64494.755245
2727.479815	64494.386946
2728.855211	64493.114219
2730.225647	64495.412587
2731.597423	64494.358974
2732.968966	64493.708625
2734.338700	64486.997669
2735.709774	64482.818182
2737.079041	64481.186480
2738.448074	64481.666667
2739.815301	64483.878788
2741.182294	64481.766900
2742.549055	64482.214452
2743.915583	64483.692308
2745.280307	64484.431235
2746.644798	64484.526807
2748.009058	64481.610723
2749.373085	64478.165501
2750.736881	64475.827506
2752.097303	64475.072261
2753.460635	64472.519814
2754.819025	64471.946387
2756.180325	64477.976690
2757.538255	64475.620047
2758.899093	64478.107226
2760.258131	64480.680653
2761.613802	64483.221445
2762.972380	64481.386946
2764.327591	64479.076923
2765.682573	64479.340326
2767.035758	64475.585082
2768.391850	64475.396270
2769.744578	64474.440559
2771.097078	64481.214452
2772.449349	64488.100233
2773.802958	64493.524476
2775.153207	64496.944056
2776.501661	64504.293706
2777.853020	64506.762238
2779.201021	64503.258741
2780.550359	64501.692308
2781.897905	64500.911422
2783.245225	64498.419580
2784.592317	64502.389277
2785.937619	64502.247086
2787.282695	64502.093240
2788.627545	64498.365967
2789.972169	64495.934732
2791.313441	64491.806527
2792.656050	64490.235431
2793.998435	64485.762238
2795.340594	64484.417249
2796.679404	64483.326340
2798.021114	64488.925408
2799.359475	64492.265734
2800.699174	64499.335664
2802.037088	64498.065268
2803.373216	64496.076923
2804.709122	64494.745921
2806.046365	64495.592075
2807.381824	64496.188811
2808.717060	64491.857809
2810.050513	64489.123543
2811.385303	64487.627040
2812.716753	64486.680653
2814.051098	64489.508159
2815.380544	64485.144522
2816.711328	64487.305361
2818.041891	64485.310023
2819.370674	64486.829837
2820.700793	64486.053613
2822.029134	64488.438228
2823.357254	64488.559441
2824.683596	64488.228438
2826.011274	64488.722611
2827.335620	64495.447552
2828.661302	64496.365967
2829.985208	64495.081585
2831.308894	64491.806527
2832.633916	64496.855478
2833.955609	64498.575758
2835.277083	64499.708625
2836.598337	64497.524476
2837.919374	64498.263403
2839.238637	64498.533800
2840.559236	64497.405594
2841.878063	64496.888112
2843.196673	64498.771562
2844.513511	64493.275058
2845.830132	64490.587413
2847.146536	64489.792541
2848.461170	64491.480186
2849.777139	64491.293706
2851.089789	64492.526807
2852.403773	64491.776224
2853.717541	64494.188811
2855.031092	64493.533800
2856.342877	64493.251748
2857.652895	64490.785548
2858.964248	64492.303030
2860.272286	64493.864802
2861.581658	64496.335664
2862.890815	64498.146853
2864.199758	64498.256410
2865.506936	64501.032634
2866.812352	64503.473193
2868.119101	64503.594406
2869.424089	64503.675991
2870.728862	64499.034965
2872.031875	64498.848485
2873.337768	64495.836830
2874.638807	64499.116550
2875.941179	64498.125874
2877.241793	64497.347319
2878.543739	64497.974359
2879.845473	64500.561772
2881.143903	64498.533800
2882.443666	64498.573427
2883.741672	64493.813520
2885.039466	64493.004662
2886.335504	64490.974359
2887.632875	64494.834499
2888.928490	64491.787879
2890.223894	64493.923077
2891.519087	64495.512821
2892.810983	64492.270396
2894.105754	64492.407925
2895.397230	64494.822844
2896.690038	64491.375291
2897.982636	64495.342657
2899.271939	64489.571096
2900.562576	64491.431235
2901.851461	64491.219114
2903.141678	64493.955711
2904.428604	64492.116550
2905.716862	64497.263403
2907.003371	64497.972028
2908.289671	64493.307692
2909.575763	64494.818182
2910.860107	64501.466200
2912.147323	64499.335664
2913.429712	64498.428904
2914.713433	64496.349650
2915.995407	64497.431235
2917.277175	64497.002331
2918.557197	64498.365967
2919.840090	64498.743590
2921.121237	64500.156177
2922.399101	64503.743590
2923.679835	64502.867133
2924.957289	64503.617716
2926.234536	64503.624709
2927.510041	64497.862471
2928.788414	64499.715618
2930.061973	64502.011655
2931.338399	64502.613054
2932.613084	64505.053613
2933.886028	64507.275058
2935.160304	64508.272727
2936.432840	64509.787879
2937.705171	64515.685315
2938.974230	64513.657343
2940.246154	64511.468531
2941.516340	64509.993007
2942.786322	64508.594406
2944.056101	64512.132867
2945.324144	64508.638695
2946.590450	64505.564103
2947.856554	64501.261072
2949.123989	64501.461538
2950.389688	64501.237762
2951.655186	64501.843823
2952.920481	64507.242424
2954.182511	64509.685315
2955.445871	64507.606061
2956.709030	64507.268065
2957.970457	64502.783217
2959.233213	64505.389277
2960.494237	64503.104895
2961.753531	64497.790210
2963.012624	64496.135198
2964.271518	64499.000000
2965.530211	64500.680653
2966.788703	64501.710956
2968.045467	64506.221445
2969.302032	64504.414918
2970.556868	64501.738928
2971.813034	64503.032634
2973.065945	64501.386946
2974.320184	64503.687646
2975.574225	64504.969697
2976.826540	64504.286713
2978.078657	64502.885781
2979.329049	64504.153846
2980.582296	64504.993007
2981.830766	64501.393939
2983.082091	64501.146853
2984.330166	64498.053613
2985.578044	64501.689977
2986.825726	64505.540793
2988.073210	64503.673660
2989.318973	64501.235431
2990.564540	64505.748252
2991.811434	64505.829837
2993.055084	64503.571096
2994.300061	64505.403263
2995.541796	64504.027972
2996.786382	64504.536131
2998.029249	64503.030303
2999.268875	64505.128205
3000.511351	64508.310023
3001.750587	64507.948718
3002.991151	64503.829837
3004.229998	64503.310023
3005.468651	64507.216783
3006.705588	64502.811189
3007.943853	64500.902098
3009.180402	64499.510490
3010.416758	64501.356643
3011.652920	64504.608392
3012.887368	64503.727273
3014.121623	64506.916084
3015.355686	64507.279720
3016.588035	64509.503497
3017.818673	64509.713287
3019.052157	64508.864802
3020.283930	64510.652681
3021.513991	64511.277389
3022.743861	64512.622378
3023.972021	64514.242424
3025.201508	64516.237762
3026.429285	64518.097902
3027.656871	64516.846154
3028.885783	64518.279720
3030.109953	64514.892774
3031.336967	64514.128205
3032.560756	64510.610723
3033.785871	64504.398601
3035.009281	64504.067599
3036.232500	64506.526807
3037.454014	64506.349650
3038.678369	64504.470862
3039.897989	64503.680653
3041.118935	64502.729604
3042.339692	64504.088578
3043.558745	64509.216783
3044.779123	64507.305361
3045.996285	64509.342657
3047.214773	64511.988345
3048.431558	64515.107226
3049.648155	64517.170163
3050.864565	64518.941725
3052.077761	64520.340326
3053.293795	64519.344988
3054.506617	64519.125874
3055.722276	64515.449883
3056.933213	64518.146853
3058.145474	64517.459207
3059.357548	64515.883450
3060.569436	64518.195804
3061.779627	64521.645688
3062.989631	64525.474359
3064.199449	64524.743590
3065.407571	64519.919580
3066.615508	64521.135198
3067.821749	64517.094406
3069.029315	64514.046620
3070.235186	64512.171329
3071.440872	64512.165501
3072.646374	64510.733100
3073.850182	64512.967366
3075.055314	64515.075758
3076.258753	64516.354312
3077.460501	64519.364802
3078.662064	64520.883450
3079.863444	64517.139860
3081.064640	64517.974359
3082.264146	64517.972028
3083.463469	64515.958042
3084.664115	64513.484848
3085.863071	64513.962704
3087.058833	64515.820513
3088.257423	64516.083916
3089.452821	64514.885781
3090.649541	64513.526807
3091.843069	64515.177156
3093.039425	64517.909091
3094.234094	64518.811189
3095.425573	64523.396270
3096.621384	64527.272727
3097.812500	64524.578089
3099.004940	64522.522145
3100.194191	64524.965035
3101.386269	64526.452214
3102.576663	64523.519814
3103.763871	64521.020979
3104.952401	64516.372960
3106.142254	64518.547786
3107.328922	64521.752914
3108.515411	64520.468531
3109.701721	64520.156177
3110.889352	64521.258741
3112.073801	64522.689977
3113.256571	64520.627040
3114.442163	64523.037296
3115.626076	64526.186480
3116.808309	64523.314685
3117.990365	64520.613054
3119.172242	64521.013986
3120.353941	64524.221445
3121.533963	64523.962704
3122.712308	64521.331002
3123.893473	64521.011655
3125.071463	64523.895105
3126.249276	64525.780886
3127.426912	64524.909091
3128.602873	64525.421911
3129.778658	64526.223776
3130.955764	64518.545455
3132.131195	64517.102564
3133.304953	64516.769231
3134.477038	64516.888112
3135.650445	64509.972028
3136.823675	64510.125874
3137.995234	64511.778555
3139.168113	64513.976690
3140.337825	64512.011655
3141.508858	64511.132867
3142.678220	64512.100233
3143.845913	64513.627040
3145.016421	64509.512821
3146.182271	64511.731935
3147.352429	64512.510490
3148.517930	64517.655012
3149.683258	64514.062937
3150.848412	64521.083916
3152.013393	64521.186480
3153.179693	64521.356643
3154.341340	64519.494172
3155.504308	64522.475524
3156.667103	64525.212121
3157.829725	64525.470862
3158.990681	64522.396270
3160.151466	64522.818182
3161.312078	64526.393939
3162.471026	64527.580420
3163.629803	64528.545455
3164.788407	64528.536131
3165.946840	64524.832168
3167.105102	64522.449883
3168.261701	64522.333333
3169.416639	64521.811189
3170.572896	64519.177156
3171.727492	64517.076923
3172.881918	64515.060606
3174.034684	64514.142191
3175.187279	64515.571096
3176.339705	64514.559441
3177.491960	64518.799534
3178.644046	64521.088578
3179.792985	64523.813520
3180.944731	64525.340326
3182.094820	64527.407925
3183.243252	64526.843823
3184.391514	64525.911422
3185.539608	64524.011655
3186.687533	64521.916084
3187.833802	64517.370629
3188.979903	64517.578089
3190.124350	64517.890443
3191.268629	64518.524476
3192.412739	64518.822844
3193.558168	64520.925408
3194.700458	64527.445221
3195.842581	64529.552448
3196.984536	64530.785548
3198.126324	64531.934732
3199.267945	64532.806527
3200.406431	64533.170163
3201.546234	64531.904429
3202.687354	64532.829837
3203.825341	64528.650350
3204.961677	64527.128205
3206.097849	64521.864802
3207.235337	64522.417249
3208.371177	64524.526807
3209.508334	64524.193473
3210.640878	64521.871795
3211.777703	64521.860140
3212.909918	64522.769231
3214.043449	64526.745921
3215.176815	64522.123543
3216.307055	64522.375291
3217.440092	64524.680653
3218.570003	64527.081585
3219.701230	64524.333333
3220.829333	64523.307692
3221.960232	64523.072261
3223.089487	64525.146853
3224.217099	64523.379953
3225.341588	64525.275058
3226.470353	64526.925408
3227.595996	64529.822844
3228.721476	64526.878788
3229.845315	64530.188811
3230.971949	64529.324009
3232.093985	64525.701632
3233.217337	64524.102564
3234.340527	64520.939394
3235.463554	64521.799534
3236.584943	64524.097902
3237.706169	64524.939394
3238.825757	64527.727273
3239.945184	64527.000000
3241.062974	64529.102564
3242.183555	64531.757576
3243.301023	64529.610723
3244.418330	64523.393939
3245.535477	64520.254079
3246.650987	64517.123543
3247.767813	64519.279720
3248.881529	64519.312354
3249.998034	64521.326340
3251.112905	64525.937063
3252.224666	64527.850816
3253.336269	64527.435897
3254.449187	64534.629371
3255.561945	64535.314685
3256.671597	64534.104895
3257.782564	64530.515152
3258.893372	64533.205128
3260.002548	64534.885781
3261.110093	64532.097902
3262.218953	64525.533800
3263.327654	64523.568765
3264.433253	64523.442890
3265.540167	64521.034965
3266.645451	64519.806527
3267.752049	64518.638695
3268.855547	64516.100233
3269.960359	64519.885781
3271.065014	64524.986014
3272.166571	64531.983683
3273.267971	64536.456876
3274.370685	64534.449883
3275.473243	64537.067599
3276.572704	64536.030303
3277.674949	64535.013986
3278.774098	64534.058275
3279.871622	64534.363636
3280.968992	64530.006993
3282.069143	64532.184149
3283.166202	64530.118881
3284.263105	64529.722611
3285.359853	64525.881119
3286.452042	64529.643357
3287.548481	64528.678322
3288.643297	64527.606061
3289.737959	64522.722611
3290.830998	64521.062937
3291.923884	64522.808858
3293.015149	64526.645688
3294.107727	64523.240093
3295.198685	64523.727273
3296.288023	64521.860140
3297.377208	64524.566434
3298.467705	64525.016317
3299.555119	64528.641026
3300.642379	64530.263403
3301.730952	64529.272727
3302.819372	64528.193473
3303.903246	64529.256410
3304.991361	64530.638695
3306.076394	64532.652681
3307.159812	64531.018648
3308.244542	64530.923077
3309.327656	64533.944056
3310.412083	64536.764569
3311.493431	64538.717949
3312.576091	64541.249417
3313.657137	64541.195804
3314.738031	64541.699301
3315.817313	64541.944056
3316.896444	64541.298368
3317.976887	64541.748252
3319.054255	64543.934732
3320.132935	64544.762238
3321.210003	64544.174825
3322.286921	64547.065268
3323.362229	64547.480186
3324.437387	64547.906760
3325.513856	64545.333333
3326.587255	64539.449883
3327.660504	64540.032634
3328.735065	64536.023310
3329.808017	64530.645688
3330.879360	64530.890443
3331.952014	64531.095571
3333.021601	64532.442890
3334.092500	64533.209790
3335.161791	64534.433566
3336.232392	64539.226107
3337.301388	64538.337995
3338.368777	64537.853147
3339.434561	64539.715618
3340.504571	64536.158508
3341.571518	64535.853147
3342.635403	64535.347319
3343.702055	64539.128205
3344.767104	64542.636364
3345.830549	64544.776224
3346.893848	64543.473193
3347.957000	64544.888112
3349.020006	64548.412587
3350.082866	64546.086247
3351.144123	64547.860140
3352.202324	64544.470862
3353.264746	64539.620047
3354.324112	64540.498834
3355.383332	64538.265734
3356.443861	64538.706294
3357.499882	64538.324009
3358.558666	64535.482517
3359.612943	64535.841492
3360.669984	64537.631702
3361.725426	64541.111888
3362.782178	64543.916084
3363.837331	64549.032634
3364.890887	64548.326340
3365.942846	64553.407925
3366.997568	64552.391608
3368.049240	64551.538462
3369.100769	64551.531469
3370.153606	64548.135198
3371.203396	64541.086247
3372.254495	64543.776224
3373.302547	64537.400932
3374.353360	64538.678322
3375.401127	64537.461538
3376.448752	64539.282051
3377.496235	64538.261072
3378.542125	64541.212121
3379.589323	64539.174825
3380.633479	64538.533800
3381.680393	64536.666667
3382.725715	64536.953380
3383.767996	64531.251748
3384.810136	64533.251748
3385.853585	64530.433566
3386.896892	64530.412587
3387.938609	64532.794872
3388.980186	64538.522145
3390.021621	64541.079254
3391.061468	64545.738928
3392.099726	64547.470862
3393.139292	64546.144522
3394.178718	64546.764569
3395.216556	64550.342657
3396.252807	64546.720280
3397.288919	64549.657343
3398.326338	64550.850816
3399.360723	64548.076923
3400.396417	64549.331002
3401.431971	64550.869464
3402.464494	64550.228438
3403.499769	64553.186480
3404.532015	64549.291375
3405.564122	64546.435897
3406.594645	64547.533800
3407.626475	64549.335664
3408.658167	64547.442890
3409.686831	64548.372960
3410.715358	64544.428904
3411.745191	64542.568765
3412.774887	64540.662005
3413.801557	64542.370629
3414.829533	64543.023310
3415.854486	64544.757576
3416.882188	64543.048951
3417.906866	64548.769231
3418.932851	64550.496503
3419.957257	64548.794872
3420.981526	64544.391608
3422.004216	64544.358974
3423.026770	64542.643357
3424.050630	64544.494172
3425.071470	64543.587413
3426.092174	64545.664336
3427.114184	64548.135864
3428.133176	64550.722278
3429.152033	64553.143856
3430.172196	64555.120879
3431.189342	64556.373626
