-165.528079	5.872527
-162.858479	4.553846
-160.191814	3.680320
-157.525901	3.235165
-154.862921	3.201598
-152.198510	3.562837
-149.537030	4.302098
-146.874121	9.609790
-144.216318	7.755245
-141.557086	8.934266
-138.898602	7.893706
-136.243043	4.579021
-133.586054	4.551049
-130.934164	2.725874
-128.280844	4.707692
-125.630443	1.272727
-122.978614	1.773427
-120.331874	1.800000
-117.683706	0.882517
-115.036280	5.083916
-112.391769	2.647552
-109.745828	6.104895
-107.104969	4.278322
-104.462681	4.151049
-101.823302	2.689510
-99.182493	1.818182
-96.542425	4.632168
-93.907430	3.991608
-91.271005	5.647552
-88.637483	4.472727
-86.002533	8.935664
-83.372648	8.823776
-80.739171	10.044755
-78.110756	13.409790
-75.483075	12.725874
-72.853965	6.100699
-70.229912	-14.546853
-67.602270	-69.948252
-64.979681	-221.616783
-62.357824	-242.805594
-59.736697	170.620979
-57.116301	914.335664
-54.498792	1562.795804
-51.879855	2019.120280
-49.263803	2285.019580
-46.648480	2350.086713
-44.033885	2217.441958
-41.422171	1890.019580
-38.809029	1382.457343
-36.200921	727.116084
-33.589231	46.043357
-30.982572	-309.735664
-28.374485	-232.741259
-25.767122	-31.163636
-23.164784	6.846154
-20.558868	9.216783
-17.957974	6.678322
-15.355652	0.829371
-12.758347	-0.366434
-10.157467	4.893706
-7.561602	6.040559
-4.964308	7.566434
-2.367734	7.728671
0.223831	6.104895
2.816824	1.683916
5.406956	5.155245
7.998515	8.755245
10.587216	12.125874
13.177343	9.800000
15.762471	7.860140
18.349027	12.481119
20.934869	18.979021
23.517857	17.040559
26.102271	17.148252
28.679557	13.425175
31.260409	10.002797
33.838412	10.020979
36.415705	16.619580
38.994424	17.071329
41.568161	12.991608
44.143326	8.974825
46.715647	7.609790
49.287260	7.962238
51.856033	9.956643
54.426233	10.265734
56.993594	10.851748
59.562382	12.868531
62.128333	13.766434
64.691449	11.286713
67.258121	23.030769
69.815572	51.569231
72.378708	98.790210
74.936884	152.037762
77.498615	212.380420
80.055389	271.229371
82.613589	353.051748
85.166837	455.054545
87.719387	575.749650
90.275487	715.523077
92.826639	859.377622
95.377094	996.935664
97.926851	1121.741259
100.473789	1228.714685
103.020032	1305.893706
105.567700	1341.190210
108.114672	1354.502098
110.656709	1341.890909
113.198052	1338.552448
115.738702	1354.846154
118.280778	1404.391608
120.820042	1486.148252
123.356498	1602.678322
125.892262	1737.876923
128.429452	1909.723077
130.965951	2114.544056
133.499644	2384.583217
136.030533	2755.268531
138.560735	3258.786014
141.092361	3943.864336
143.621186	4834.048951
146.147212	5930.909091
148.672552	7162.520280
151.199317	8389.609790
153.723286	9465.220979
156.246570	10230.323077
158.769169	10583.160839
161.288975	10452.988811
163.808098	9891.503497
166.326538	8974.359441
168.846402	7844.745455
171.359265	6652.239161
173.875659	5525.822378
176.391371	4579.278322
178.902193	3833.173427
181.414440	3273.097902
183.923905	2865.436364
186.432690	2554.373427
188.940798	2315.793007
191.450330	2124.917483
193.954981	1966.881119
196.458956	1836.521678
198.964355	1730.625175
201.464879	1653.159441
203.968926	1647.076923
206.466003	1756.611189
208.966603	1919.144056
211.464431	2055.583217
213.961586	2136.226573
216.458068	2137.998601
218.949687	2081.601399
221.444826	1952.746853
223.937198	1752.325874
226.428900	1510.960839
228.917839	1253.310490
231.408201	1036.710490
233.895802	914.356643
236.380643	899.551049
238.868999	914.872727
241.350415	910.944056
243.835345	902.304895
246.315430	890.086713
248.799027	880.285315
251.277781	865.269930
253.757958	851.977622
256.235384	840.151049
258.712146	835.356643
261.188244	834.546853
263.661595	844.579021
266.134283	862.152448
268.606310	873.046154
271.077676	882.654545
273.546297	890.525874
276.014260	893.606993
278.483644	884.317483
280.948206	868.804196
283.416272	851.669930
285.879518	831.871329
288.342106	797.173427
290.804038	756.205594
293.265313	761.542657
295.723854	951.377622
298.183817	1290.679720
300.641047	1662.703497
303.097623	1976.086713
305.553545	2184.916084
308.006737	2279.696503
310.461352	2260.893706
312.911165	2128.437762
315.364474	1880.923077
317.812984	1540.848951
320.260844	1184.450350
322.710126	921.046154
325.154614	854.051748
327.600524	879.913287
330.045784	902.128671
332.488326	911.208392
334.930220	927.351049
337.371467	961.300699
339.809998	999.107692
342.249951	1051.800000
344.687190	1121.974825
347.121717	1197.295105
349.559732	1251.693706
351.992970	1277.043357
354.427629	1273.802797
356.857516	1238.486713
359.290888	1190.769231
361.719490	1133.576224
364.147450	1082.990210
366.576832	1040.085315
369.001448	1005.043357
371.427486	1005.072727
373.852883	1034.184615
376.277640	1072.359441
378.697639	1109.777622
381.119058	1147.204196
383.537782	1183.271329
385.957926	1231.563636
388.375375	1306.281119
390.794244	1377.973427
393.210420	1453.948252
395.621848	1500.064336
398.036753	1523.061538
400.448969	1773.780420
402.860550	3041.598601
405.271497	6264.409790
407.679758	11251.404196
410.087386	16703.446154
412.494382	21372.591608
414.900747	24559.458741
417.304429	25944.655944
419.707481	25397.765035
422.109903	22983.622378
424.511695	18934.341259
426.910809	13815.600000
429.311343	8658.405594
431.711248	4796.448951
434.106431	2965.177622
436.505080	2547.078322
438.899009	2506.234965
441.292311	2406.152448
443.684989	2245.067133
446.077041	2078.400000
448.470511	1962.201399
450.859269	1927.422378
453.245361	1955.606993
455.632873	1980.948252
458.019762	1994.107692
460.403987	1982.472727
462.789630	1937.860140
465.172612	1859.738462
467.552933	1747.398601
469.934673	1604.948252
472.313754	1443.401399
474.694254	1293.555245
477.072096	1208.718881
479.447282	1178.434965
481.821852	1170.490909
484.197839	1153.549650
486.571174	1131.674126
488.945926	1114.011189
491.315993	1097.675524
493.685444	1083.292308
496.056313	1069.545455
498.422501	1057.847552
500.790108	1042.973427
503.155070	1032.552448
505.519418	1022.246154
507.883153	1007.198601
510.248306	997.302098
512.608787	988.341259
514.970686	975.274126
517.329944	970.767832
519.686564	966.549650
522.046630	961.282517
524.400004	953.972028
526.756823	946.888112
529.111007	943.321678
531.464582	945.023776
533.817550	942.503497
536.167885	948.222378
538.519638	952.560839
540.864714	948.148252
543.215254	949.257343
545.559120	948.900699
547.908448	945.202797
550.253127	939.848951
552.595182	931.257343
554.938654	925.022378
557.279503	920.181818
559.619750	916.632168
561.957376	909.125874
564.298437	911.260140
566.634860	905.198601
568.972700	895.710490
571.307923	890.693706
573.640530	891.372028
575.974553	888.201399
578.305962	887.391608
580.636773	886.546853
582.966987	885.534266
585.296602	884.240559
587.621594	884.079720
589.952028	882.520280
592.277841	882.356643
594.601046	880.689510
596.925668	877.885315
599.247684	877.386014
601.569106	883.756643
603.887926	882.282517
606.208161	878.123077
608.527803	874.275524
610.844844	869.381818
613.161293	866.227972
615.475144	860.198601
617.790411	857.423776
620.103081	855.327273
622.417166	853.983217
624.726651	858.130070
627.037552	864.330070
629.345860	870.637762
631.653580	871.013986
633.962714	874.875524
636.267256	889.683916
638.571212	911.956643
640.874582	937.700699
643.179366	960.548252
645.479563	976.832168
647.781176	988.130070
650.082203	982.261538
652.378649	975.476923
654.676510	959.679720
656.973787	936.128671
659.270481	908.173427
661.562599	887.013986
663.858128	876.232168
666.149083	867.261538
668.441453	863.696503
670.731248	862.401399
673.020462	855.517483
675.309097	860.002797
677.595159	854.257343
679.882636	852.888112
682.167541	854.851748
684.451869	857.285315
686.733628	862.317483
689.016801	867.539860
691.299397	869.570629
693.577437	874.367832
695.856892	878.516084
698.135770	881.034965
700.414074	877.851748
702.687828	884.111888
704.962995	885.047552
707.237589	885.932867
709.509624	884.916084
711.783072	886.118881
714.053962	890.815385
716.322296	894.611189
718.592043	892.806993
720.859236	897.563636
723.125858	901.191608
725.391910	902.455944
727.655411	905.678322
729.920325	915.142657
732.184669	920.671329
734.444484	926.162238
736.705711	928.669930
738.966371	940.521678
741.224485	951.416783
743.480054	964.026573
745.739014	981.923077
747.991475	1027.552448
750.249302	1139.655944
752.502611	1297.879720
754.753380	1469.317483
757.005561	1605.565035
759.255203	1690.005594
761.506258	1721.293706
763.752801	1691.353846
766.000756	1607.282517
768.246177	1470.647552
770.493009	1311.286713
772.739280	1148.461538
774.981046	1023.697902
777.226196	967.170629
779.464873	955.001399
781.706932	958.759441
783.944493	955.833566
786.183466	956.188811
788.419912	954.240559
790.657769	955.608392
792.893101	953.721678
795.125910	950.121678
797.360130	949.096503
799.591827	944.679720
801.822970	942.660140
804.053558	941.895105
806.283592	946.167832
808.513072	946.907692
810.738070	936.355245
812.966443	928.612587
815.190336	922.511888
817.415641	922.885315
819.636470	912.781818
821.860671	908.674126
824.080399	905.208392
826.301537	905.334266
828.522125	912.130070
830.740204	918.114685
832.959692	927.478322
835.174714	931.664336
837.389188	930.886713
839.603115	936.800000
841.816495	940.986014
844.029327	940.707692
846.241613	936.812587
848.451396	936.802797
850.660634	929.876923
852.869327	926.794406
855.075520	924.373427
857.283124	923.051748
859.488229	923.065734
861.692791	921.629371
863.894858	921.720280
866.098334	924.251748
868.299316	921.054545
870.499756	920.955245
872.701605	919.669930
874.897063	916.100699
877.095880	912.990210
879.290258	916.222378
881.487994	911.583217
883.681294	910.601399
885.876003	905.187413
888.068226	901.703497
890.259910	899.281119
892.451057	896.443357
894.639721	891.180420
896.827849	893.714685
899.013496	893.083916
901.202495	896.316084
903.387071	897.104895
905.571112	899.092308
907.758503	892.888112
909.937590	893.620979
912.120028	893.383217
914.301932	897.987413
916.481361	899.809790
918.658318	900.539860
920.836683	904.753846
923.016455	911.402797
925.189878	913.532867
927.366647	910.836364
929.539009	904.616783
931.712779	895.704895
933.882145	886.776224
936.054855	884.082517
938.225100	884.580420
940.394815	883.355245
942.564003	882.088112
944.728793	884.367832
946.896924	886.216783
949.060660	890.239161
951.225804	892.233566
953.388488	894.046154
955.550647	893.899301
957.710349	892.883916
959.869526	897.332867
962.030110	895.397203
964.188239	892.816783
966.345845	888.344056
968.502927	888.339860
970.659485	886.637762
972.811664	887.363636
974.965250	900.883916
977.118314	904.513287
979.268929	911.490909
981.420951	913.339860
983.568599	919.187413
985.719579	923.573427
987.866188	920.460140
990.012278	925.620979
992.157850	930.339860
994.304827	929.187413
996.445515	928.219580
998.589533	934.806993
1000.731110	945.100699
1002.872171	944.755245
1005.014636	950.489510
1007.150821	952.790210
1009.290333	956.268531
1011.425490	962.527273
1013.563971	970.075524
1015.698098	981.520280
1017.831712	987.170629
1019.966731	989.664336
1022.097400	1032.439161
1024.229474	1129.253147
1026.359119	1265.692308
1028.488252	1401.103497
1030.616873	1507.372028
1032.744983	1568.022378
1034.870667	1579.994406
1036.995841	1543.419580
1039.122419	1459.310490
1041.244659	1334.314685
1043.368304	1191.503497
1045.487614	1053.749650
1047.612153	967.984615
1049.730448	932.623776
1051.850147	932.693706
1053.967427	933.332867
1056.084200	932.337063
1058.200468	930.455944
1060.314319	923.949650
1062.429575	919.339860
1064.540507	913.083916
1066.654752	907.008392
1068.764676	910.710490
1070.876004	905.558042
1072.986827	902.432168
1075.093334	901.476923
1077.203150	898.808392
1079.308653	902.958042
1081.415558	905.099301
1083.516248	902.300699
1085.622150	901.261538
1087.723743	909.902098
1089.826739	913.109091
1091.929234	909.805594
1094.025522	912.440559
1096.127017	913.513287
1098.224210	926.352448
1100.320905	951.942657
1102.417101	994.707692
1104.512800	1057.895105
1106.608000	1107.611189
1108.700804	1156.240559
1110.795011	1185.616783
1112.883025	1195.121678
1114.976239	1173.055944
1117.063264	1132.707692
1119.153588	1079.612587
1121.239624	1015.685315
1123.328959	963.016783
1125.412112	921.749650
1127.496667	900.395804
1129.582624	894.377622
1131.664299	890.304895
1133.747376	899.576224
1135.828066	897.427972
1137.908266	897.409790
1139.987974	895.395804
1142.067191	900.167832
1144.144026	897.988811
1146.218479	893.478322
1148.296225	896.423776
1150.369701	895.672727
1152.444577	892.822378
1154.515186	893.620979
1156.587196	895.250350
1158.656831	894.102098
1160.727865	893.034965
1162.798413	894.239161
1164.864699	895.320280
1166.932386	900.144056
1168.997701	903.661538
1171.064416	907.850350
1173.126875	914.986014
1175.192619	924.254545
1177.254109	938.352448
1179.317000	944.289510
1181.377523	948.788811
1183.437562	948.921678
1185.497118	946.970629
1187.554310	939.921678
1189.611020	932.941259
1191.665366	925.247552
1193.722994	918.248951
1195.778259	908.622378
1197.829283	896.836364
1199.881707	900.278322
1201.933651	901.850350
1203.983237	897.116084
1206.032344	896.416783
1208.080973	893.141259
1210.129122	890.542657
1212.176794	888.013986
1214.220235	888.137063
1216.266952	885.521678
1218.311315	885.103497
1220.355202	880.566434
1222.396737	880.027972
1224.435923	886.706294
1226.478382	882.851748
1228.516618	884.352448
1230.556253	885.233566
1232.595413	879.179021
1234.630354	880.496503
1236.666694	875.167832
1238.700690	872.074126
1240.736083	870.594406
1242.767264	872.239161
1244.799842	867.146853
1246.831949	867.427972
1248.861715	864.104895
1250.892878	856.237762
1252.919835	853.899301
1254.948189	856.146853
1256.972338	853.302098
1258.999753	857.000000
1261.022965	854.765035
1263.047575	855.434965
1265.069851	861.440559
1267.093524	861.581818
1269.114863	859.450350
1271.135736	861.198601
1273.156141	857.822378
1275.172353	855.337063
1277.189962	853.514685
1279.205243	856.883916
1281.223783	858.738462
1283.238134	864.809790
1285.250158	856.661538
1287.265441	857.142657
1289.276538	862.749650
1291.289032	860.566434
1293.297343	862.639161
1295.308909	862.278322
1297.314437	861.563636
1299.323220	858.779021
1301.327825	851.678322
1303.335684	851.558042
1305.343081	848.429371
1307.344447	847.006993
1309.347209	839.667133
1311.349512	843.660140
1313.351355	844.514685
1315.352738	848.402797
1317.351808	849.366434
1319.350419	846.335664
1321.348572	842.980420
1323.346266	840.559441
1325.339798	835.405594
1327.334725	830.572028
1329.329196	829.174825
1331.323210	828.976224
1333.314917	836.011189
1335.306168	838.843357
1337.295114	837.953846
1339.285456	839.418182
1341.275342	834.581818
1343.262924	830.093706
1345.250053	827.191608
1347.234880	831.299301
1349.221102	827.741259
1351.205023	830.401399
1353.188492	830.401399
1355.171509	832.188811
1357.152228	837.665734
1359.134341	833.506294
1361.114158	827.772028
1363.093523	822.639161
1365.068750	819.406993
1367.047215	820.682517
1369.023387	819.169231
1370.999110	828.434965
1372.974383	832.745455
1374.947365	839.043357
1376.919899	834.965035
1378.891985	834.920280
1380.863624	837.004196
1382.831134	834.518881
1384.803718	831.507692
1386.768496	829.151049
1388.738347	832.641958
1390.704074	837.932867
1392.671193	834.127273
1394.636029	839.090909
1396.596745	842.200000
1398.562529	844.437762
1400.522358	841.285315
1402.483581	838.555245
1404.446195	836.650350
1406.404695	832.921678
1408.362753	825.770629
1410.320369	823.627972
1412.277542	822.044755
1414.232440	820.089510
1416.188731	813.004196
1418.142747	812.460140
1420.096322	814.436364
1422.047625	815.977622
1424.000321	816.099301
1425.950744	819.379021
1427.900729	820.211189
1429.850275	816.993007
1431.797552	812.468531
1433.742561	816.281119
1435.688963	809.058741
1437.634927	807.418182
1439.580454	805.653147
1441.523715	809.900699
1443.466541	810.688112
1445.407103	810.997203
1447.349056	812.409790
1449.288747	817.931469
1451.228004	818.693706
1453.166825	822.869930
1455.103387	828.279720
1457.041340	831.450350
1458.977034	818.546853
1460.912295	819.622378
1462.845299	817.151049
1464.777872	813.774825
1466.710012	808.935664
1468.641720	804.723077
1470.571174	803.289510
1472.502019	802.103497
1474.432432	802.290909
1476.358773	807.794406
1478.286504	809.868531
1480.211986	808.758042
1482.137038	803.275524
1484.061661	807.593007
1485.985854	805.833566
1487.907801	803.219580
1489.831138	801.853147
1491.752228	803.753846
1493.671074	810.285315
1495.591310	805.401399
1497.509303	809.345455
1499.426869	812.973427
1501.342193	815.737063
1503.258907	818.155245
1505.171566	819.246154
1507.087429	820.381818
1509.001052	819.434965
1510.912437	817.226573
1512.825212	816.388811
1514.733937	818.702098
1516.644051	821.258741
1518.553742	819.018182
1520.463010	824.613986
1522.370044	826.356643
1524.274845	829.149650
1526.181035	833.871329
1528.084993	834.867133
1529.988530	837.567832
1531.891647	830.586014
1533.792534	832.156643
1535.694810	834.829371
1537.594858	831.275524
1539.496293	834.714685
1541.393695	831.022378
1543.290678	828.580420
1545.187243	827.541259
1547.085196	829.015385
1548.977313	829.793007
1550.872625	832.086713
1552.767519	828.784615
1554.660191	823.029371
1556.552446	823.422378
1558.442482	823.689510
1560.332102	812.848951
1562.221307	814.606993
1564.110097	807.902098
1565.996669	803.730070
1567.884629	806.777622
1569.768572	809.057343
1571.653902	814.853147
1573.538819	817.121678
1575.421522	813.920280
1577.305612	814.969231
1579.185690	812.400000
1581.067156	815.703497
1582.946411	804.787413
1584.827052	809.323077
1586.701889	803.227972
1588.581707	803.255944
1590.457521	806.483916
1592.332924	804.367832
1594.209713	802.128671
1596.080706	796.423776
1597.954880	795.963636
1599.825055	795.462937
1601.698411	792.704895
1603.569564	792.162238
1605.438516	783.520280
1607.308852	786.138462
1609.175196	785.746853
1611.042925	788.938462
1612.908455	785.991608
1614.775371	783.500699
1616.638298	777.910490
1618.502610	771.616783
1620.364726	771.039161
1622.226437	769.275524
1624.089534	763.766434
1625.950435	764.194406
1627.809144	765.165035
1629.667449	777.639161
1631.527138	782.770629
1633.381061	781.289510
1635.238157	787.243357
1637.094849	786.903497
1638.947566	781.426573
1640.803454	773.881119
1642.655368	774.358042
1644.506881	769.000000
1646.357993	761.862937
1648.208705	760.674126
1650.059015	757.211189
1651.907142	756.997203
1653.756653	751.932867
1655.600414	749.816783
1657.449126	752.293706
1659.292091	748.535664
1661.138223	745.836364
1662.980392	743.472727
1664.825727	743.558042
1666.665321	736.907692
1668.506299	734.825175
1670.348660	733.029371
1672.187065	734.012587
1674.026853	735.560839
1675.864465	744.657343
1677.701683	744.198601
1679.536727	747.288112
1681.373154	753.313287
1683.207409	754.980420
1685.041269	752.965035
1686.874735	749.653147
1688.704256	741.391608
1690.536935	737.205594
1692.365670	731.672727
1694.197562	731.075524
1696.025512	730.408392
1697.853071	736.363636
1699.680237	731.348252
1701.507012	734.918881
1703.333395	734.811189
1705.155842	734.184615
1706.981444	735.805594
1708.803111	739.292308
1710.626160	736.753846
1712.447047	735.786014
1714.267546	734.309091
1716.089425	734.591608
1717.905606	738.511888
1719.724938	738.702098
1721.540342	734.131469
1723.358898	733.751049
1725.173528	732.662937
1726.987771	733.200000
1728.801628	736.862937
1730.615098	740.261538
1732.426415	733.875524
1734.239112	732.625175
1736.051424	735.193007
1737.859817	735.632168
1739.669592	734.995804
1741.475452	732.344056
1743.284457	734.379021
1745.089549	732.549650
1746.896022	735.690909
1748.702111	733.251748
1750.504289	732.422378
1752.309612	731.397203
1754.111026	726.749650
1755.913820	727.400000
1757.712708	728.794406
1759.512977	722.290909
1761.312864	722.514685
1763.110609	720.558042
1764.907974	718.709091
1766.704959	717.483916
1768.501563	718.847552
1770.296028	718.097902
1772.091872	722.833566
1773.882061	726.605594
1775.677147	729.813986
1777.466581	729.609790
1779.259151	726.464336
1781.049586	722.495105
1782.837887	721.344056
1784.629323	714.995804
1786.415113	715.876923
1788.202283	716.997203
1789.987321	714.962238
1791.775493	716.834965
1793.559779	720.900699
1795.341935	722.425175
1797.125471	726.844755
1798.906878	728.600000
1800.689664	725.169231
1802.468569	722.648951
1804.248853	718.027972
1806.027012	713.398601
1807.806549	716.556643
1809.583961	716.041958
1811.359249	716.553846
1813.135915	714.352448
1814.910459	716.674126
1816.686381	719.958042
1818.456682	723.697902
1820.230111	724.011189
1822.001420	724.446154
1823.772358	722.468531
1825.544674	719.956643
1827.311376	715.732867
1829.081203	714.278322
1830.847167	711.253147
1832.616255	710.008392
1834.381481	708.737063
1836.146339	705.647552
1837.912574	701.924476
1839.674950	702.765035
1841.436959	702.756643
1843.198600	706.573427
1844.959875	700.465734
1846.720782	698.605594
1848.481323	695.374825
1850.239754	694.468531
1851.997819	691.542657
1853.753777	694.765035
1855.511111	693.458741
1857.268080	688.471329
1859.022942	688.784615
1860.775700	690.979021
1862.528093	688.665734
1864.281863	685.776224
1866.033529	683.565035
1867.783093	683.257343
1869.534032	684.590210
1871.284609	687.323077
1873.031346	683.201399
1874.779460	687.388811
1876.525474	687.324476
1878.272863	689.951049
1880.018155	692.772028
1881.761349	690.183217
1883.505918	686.745455
1885.248391	683.416783
1886.990505	684.123077
1888.732258	679.640559
1890.473651	677.469930
1892.212951	674.826573
1893.951892	669.005594
1895.690474	672.644755
1897.426965	672.110490
1899.163098	669.365035
1900.900605	670.209790
1902.634290	671.594406
1904.369350	674.053147
1906.102321	679.731469
1907.834936	683.517483
1909.567195	688.360839
1911.299097	688.535664
1913.028913	690.573427
1914.756644	692.917483
1916.485750	700.323077
1918.214500	699.146853
1919.941168	694.588811
1921.667481	693.794406
1923.395167	692.710490
1925.117317	691.169231
1926.842568	690.348252
1928.564012	687.965035
1930.288557	687.409790
1932.011021	680.446154
1933.729683	679.794406
1935.451443	683.128671
1937.169401	684.595804
1938.888732	681.353846
1940.604264	674.083916
1942.324616	674.219580
1944.041170	674.958042
1945.753927	678.744056
1947.469780	685.313287
1949.183561	688.727273
1950.896992	692.041958
1952.608352	694.924476
1954.321084	696.043357
1956.030026	694.857343
1957.742060	690.153846
1959.448585	687.637762
1961.158203	681.965035
1962.865754	677.152448
1964.572956	674.446154
1966.278093	679.513287
1967.982884	678.141259
1969.689046	672.320280
1971.391426	671.984615
1973.095177	670.142657
1974.796866	669.334266
1976.498210	671.278322
1978.199208	676.377622
1979.898145	682.903497
1981.598454	683.074126
1983.294987	678.018182
1984.992893	677.632168
1986.688739	680.772028
1988.387671	675.553846
1990.081117	678.448951
1991.775934	675.448951
1993.470409	669.359441
1995.161115	668.942657
1996.854905	667.548252
1998.544928	667.979021
2000.236322	665.215385
2001.925663	665.618182
2003.616374	656.981818
2005.303322	654.965035
2006.989931	654.116084
2008.677909	651.544056
2010.362128	657.395804
2012.047718	651.871329
2013.732968	649.146853
2015.416169	651.570629
2017.100741	650.121678
2018.779849	648.465734
2020.463744	649.530070
2022.142177	650.472727
2023.823688	645.760839
2025.501447	646.356643
2027.178870	642.876923
2028.857662	639.265734
2030.534412	640.240559
2032.209120	639.521678
2033.885197	640.861538
2035.559233	642.576224
2037.232935	641.692308
2038.906301	640.490909
2040.577628	640.139860
2042.248621	635.071329
2043.919280	634.941259
2045.589605	630.605594
2047.259596	630.163636
2048.927551	629.124476
2050.595173	629.304895
2052.260760	635.717483
2053.927716	643.331469
2055.592639	646.900699
2057.257230	649.309091
2058.919789	652.240559
2060.583716	649.945455
2062.245612	648.290909
2063.907178	644.374825
2065.568412	638.213986
2067.227618	637.966434
2068.886493	637.994406
2070.545039	640.749650
2072.203254	646.563636
2073.857747	650.625175
2075.515304	649.365035
2077.172531	649.478322
2078.826038	654.636364
2080.480912	650.331469
2082.132067	651.504895
2083.786285	646.981818
2085.436785	645.331469
2087.088653	648.776224
2088.735112	649.337063
2090.386326	650.767832
2092.033826	647.250350
2093.682693	646.756643
2095.329541	644.569231
2096.976064	646.648951
2098.622261	648.194406
2100.264750	642.130070
2101.910297	641.934266
2103.552137	636.899301
2105.197034	637.559441
2106.838225	640.137063
2108.479094	637.927273
2110.119638	633.213986
2111.758170	630.479720
2113.398068	630.278322
2115.034266	629.075524
2116.671830	629.085315
2118.309072	628.162238
2119.944304	624.643357
2121.579214	621.927273
2123.213803	619.952448
2124.848071	621.173427
2126.478645	620.511888
2128.112271	620.318881
2129.742205	617.857343
2131.373504	620.918881
2133.002798	619.265734
2134.631773	616.801399
2136.260428	613.324476
2137.888764	612.704895
2139.515098	612.622378
2141.141113	611.634965
2142.765126	613.351049
2144.390505	617.834965
2146.013883	619.569231
2147.638626	617.311888
2149.259688	615.692308
2150.880433	612.934266
2152.502543	610.598601
2154.122655	608.813986
2155.740770	605.415385
2157.358570	602.918881
2158.976055	600.608392
2160.593224	599.846154
2162.210078	601.027972
2163.826616	601.735664
2165.441162	598.928671
2167.053715	598.002797
2168.667632	600.598601
2170.279558	602.215385
2171.892847	607.050350
2173.504146	609.700699
2175.113455	608.516084
2176.724128	607.237762
2178.332812	605.531469
2179.941183	606.744056
2181.547568	605.163636
2183.155315	600.429371
2184.761077	601.142657
2186.366527	603.469930
2187.969992	602.997203
2189.574820	602.974825
2191.177664	604.144056
2192.778525	602.187413
2194.380749	603.770629
2195.980991	606.141259
2197.582595	611.514685
2199.180546	612.672727
2200.779860	617.276923
2202.377194	620.092308
2203.974220	618.984615
2205.572608	615.990210
2207.167347	612.570629
2208.760109	608.896503
2210.354234	604.562238
2211.949720	599.187413
2213.541561	598.086713
2215.133096	591.804196
2216.725993	589.286713
2218.313580	586.236364
2219.905863	586.855944
2221.492840	582.531469
2223.082844	574.569231
2224.667544	573.167832
2226.256938	574.225175
2227.841030	567.795804
2229.426482	565.451748
2231.009966	566.924476
2232.596475	566.732867
2234.179351	564.741259
2235.761924	565.819580
2237.344193	566.330070
2238.922832	566.058741
2240.504496	564.079720
2242.082531	566.323077
2243.663589	572.400000
2245.241020	573.907692
2246.816488	570.967832
2248.394978	573.250350
2249.969844	573.422378
2251.544409	571.116084
2253.118673	570.584615
2254.692638	567.976224
2256.266301	563.679720
2257.839665	560.871329
2259.409410	557.720280
2260.978856	560.447552
2262.551320	557.692308
2264.118510	551.454545
2265.688718	553.011189
2267.255311	552.622378
2268.823264	551.153846
2270.389261	552.591608
2271.954961	555.206993
2273.520363	561.562238
2275.083812	565.606993
2276.648620	568.327273
2278.209820	574.317483
2279.774034	581.365035
2281.332986	573.658741
2282.894952	570.104895
2284.454968	571.225175
2286.014689	569.864336
2287.572460	563.374825
2289.129936	558.918881
2290.687118	554.425175
2292.242352	557.121678
2293.797293	554.397203
2295.351939	553.065734
2296.906292	555.871329
2298.460351	557.355245
2300.014117	549.885315
2301.565938	548.299301
2303.115817	548.598601
2304.668703	547.338462
2306.216346	543.346853
2307.766998	542.703497
2309.314058	544.566434
2310.862476	543.991608
2312.410603	541.836364
2313.955141	540.520280
2315.501037	539.134266
2317.044995	539.372028
2318.590309	536.518881
2320.132040	536.408392
2321.675127	534.292308
2323.216278	534.386014
2324.757140	534.215385
2326.297713	536.937063
2327.837997	541.132867
2329.377992	538.174825
2330.914409	531.727273
2332.453827	533.586014
2333.989667	529.813986
2335.526865	531.967832
2337.060487	533.001399
2338.597109	534.509091
2340.131801	529.779021
2341.664563	535.625175
2343.197038	535.086713
2344.727585	537.365035
2346.261130	538.460140
2347.789464	536.517483
2349.319154	531.018182
2350.848559	535.013986
2352.377679	526.744056
2353.906513	526.212587
2355.430143	524.546853
2356.958408	527.110490
2358.481471	527.036364
2360.009167	534.783217
2361.530024	532.082517
2363.055513	534.802797
2364.577443	537.339860
2366.100727	536.429371
2367.622091	532.924476
2369.141535	533.019580
2370.662334	532.180420
2372.181214	535.868531
2373.699813	538.078322
2375.216494	539.089510
2376.734529	538.942657
2378.252283	537.075524
2379.766485	531.725874
2381.280408	531.250350
2382.794050	528.499301
2384.309047	523.153846
2385.820495	518.594406
2387.333298	519.604196
2388.844187	520.034965
2390.354798	525.553846
2391.863497	525.183217
2393.375182	521.781818
2394.883324	519.983217
2396.391188	517.851748
2397.898774	515.604196
2399.402819	511.766434
2400.909849	510.886713
2402.414971	506.662937
2403.919816	502.538462
2405.422754	500.411189
2406.925416	498.022378
2408.427801	502.692308
2409.928281	499.976224
2411.430114	498.321678
2412.930042	496.780420
2414.429695	497.005594
2415.929073	501.360839
2417.426548	498.106294
2418.922121	498.383217
2420.420674	495.671329
2421.915699	496.208392
2423.412076	495.271329
2424.904927	494.813986
2426.399131	494.707692
2427.893061	493.538462
2429.383467	493.481119
2430.876851	492.780420
2432.368337	496.223776
2433.857926	499.313287
2435.347243	493.317483
2436.834664	491.441958
2438.325061	491.489510
2439.811940	496.398601
2441.300170	494.200000
2442.784883	497.806993
2444.269327	497.204196
2445.755121	495.476923
2447.239024	494.862937
2448.724277	493.667133
2450.204397	497.836364
2451.687490	497.639161
2453.168692	496.569231
2454.649625	495.865734
2456.128669	500.805594
2457.607444	503.337063
2459.085951	498.282517
2460.564190	499.219580
2462.042160	495.043357
2463.516625	494.359441
2464.994060	491.805594
2466.467991	490.227972
2467.943272	492.367832
2469.418286	496.665734
2470.889799	494.695105
2472.362663	494.416783
2473.833644	497.137063
2475.305975	493.851748
2476.773192	487.777622
2478.243376	490.005594
2479.711679	487.144056
2481.179717	486.861538
2482.647490	483.854545
2484.114998	483.633566
2485.582241	486.190210
2487.045992	487.247552
2488.511093	488.882517
2489.974317	494.419580
2491.438890	496.384615
2492.899975	497.858741
2494.362409	495.545455
2495.824580	498.086713
2497.283265	493.194406
2498.746521	492.878322
2500.204682	492.994406
2501.664191	488.344056
2503.118606	487.413986
2504.577592	482.391608
2506.034706	482.735664
2507.489948	479.630769
2508.944930	477.208392
2510.398043	479.135664
2511.852504	481.279720
2513.305095	480.987413
2514.757427	480.904895
2516.207892	481.293706
2517.661312	484.890909
2519.109650	482.166434
2520.560943	481.980420
2522.010371	481.313287
2523.456326	474.002797
2524.905236	471.019580
2526.350676	469.893706
2527.797463	473.281119
2529.242387	476.165035
2530.687054	472.369231
2532.133068	470.937063
2533.575616	469.911888
2535.019511	471.709091
2536.459941	468.942657
2537.901718	469.050350
2539.341636	470.855944
2540.782901	465.472727
2542.220704	464.146853
2543.661457	463.611189
2545.097148	467.344056
2546.535788	466.553846
2547.972570	464.183217
2549.407497	465.337063
2550.845371	467.836364
2552.278188	467.320280
2553.712352	466.071329
2555.144662	464.987413
2556.578318	461.972028
2558.010121	460.612587
2559.441670	460.742657
2560.872967	463.588811
2562.302411	466.876923
2563.731603	464.418182
2565.158945	464.268531
2566.587632	466.602797
2568.016068	472.717483
2569.441056	470.910490
2570.867391	469.847552
2572.291877	464.948252
2573.717709	458.753846
2575.140097	459.117483
2576.563831	454.661538
2577.985718	454.886713
2579.407356	455.432168
2580.827148	448.036364
2582.248286	443.669930
2583.669174	444.690909
2585.086623	452.206993
2586.507013	451.174825
2587.923965	451.634965
2589.340668	450.710490
2590.757123	447.032168
2592.173330	449.822378
2593.589289	445.046154
2595.003407	443.909091
2596.417277	445.788811
2597.829309	442.983217
2599.242684	440.018182
2600.652630	445.116084
2602.065512	447.948252
2603.474965	444.934266
2604.884172	445.209790
2606.291543	445.604196
2607.701848	443.068531
2609.110318	442.097902
2610.516952	441.048951
2611.923341	439.432168
2613.327896	445.433566
2614.733795	449.111888
2616.137861	448.163636
2617.541682	453.282517
2618.945259	452.962238
2620.347005	447.920280
2621.750094	449.993007
2623.149765	452.387413
2624.550780	452.071329
2625.948379	447.409790
2627.348907	448.200000
2628.746021	445.798601
2630.144478	443.145455
2631.541108	446.911888
2632.937495	445.000000
2634.333640	447.988811
2635.727959	443.669930
2637.123621	439.290909
2638.515874	440.613986
2639.909469	442.744056
2641.301240	440.388811
2642.694354	433.201399
2644.085644	433.032168
2645.475111	427.765035
2646.864338	423.661538
2648.253326	430.121678
2649.643655	433.765035
2651.029001	436.818182
2652.417270	432.415385
2653.803719	430.223776
2655.189929	429.128671
2656.575900	430.937063
2657.958473	432.655944
2659.342388	429.885315
2660.726065	432.355245
2662.109503	432.279720
2663.489546	433.714685
2664.870931	433.854545
2666.250501	434.890909
2667.631411	435.615385
2669.010507	433.401399
2670.387789	428.930070
2671.766412	426.959441
2673.143222	424.160839
2674.519795	425.875524
2675.896133	423.752448
2677.270660	430.559441
2678.646527	431.446154
2680.019007	428.546853
2681.394403	426.120280
2682.764839	428.513287
2684.136616	430.379021
2685.508158	433.330070
2686.877892	431.580420
2688.248967	428.411189
2689.618233	427.230769
2690.987266	427.590210
2692.354493	425.289510
2693.721486	427.061538
2695.088247	424.865734
2696.454776	424.039161
2697.819499	423.988811
2699.183990	421.872727
2700.548250	417.892308
2701.912277	421.208392
2703.276073	416.467133
2704.636495	411.623776
2705.999827	412.257343
2707.358217	407.222378
2708.719517	403.328671
2710.077447	403.813986
2711.438285	409.243357
2712.797324	411.952448
2714.152994	411.886713
2715.511572	410.053147
2716.866783	409.096503
2718.221765	407.801399
2719.574950	408.036364
2720.931042	409.899301
2722.283770	413.179021
2723.636270	414.223776
2724.988541	409.939860
2726.342150	410.658741
2727.692399	412.302098
2729.040853	411.265734
2730.392212	410.861538
2731.740213	405.967832
2733.089551	403.625175
2734.437097	400.401399
2735.784417	402.295105
2737.131510	400.946853
2738.476812	401.737063
2739.821887	398.590210
2741.166737	390.151049
2742.511361	383.472727
2743.852633	384.141259
2745.195243	388.201399
2746.537627	392.535664
2747.879786	391.255944
2749.218596	397.148252
2750.560306	400.737063
2751.898667	401.390210
2753.238366	401.534266
2754.576280	401.121678
2755.912409	396.317483
2757.248314	388.639161
2758.585557	383.302098
2759.921016	386.567832
2761.256252	385.594406
2762.589705	389.611189
2763.924495	388.341259
2765.255945	387.710490
2766.590290	385.776224
2767.919737	383.804196
2769.250520	383.507692
2770.581083	385.681119
2771.909866	387.216783
2773.239985	385.779021
2774.568326	385.246154
2775.896446	384.630769
2777.222788	385.759441
2778.550467	389.404196
2779.874812	387.383217
2781.200494	381.623776
2782.524400	376.342657
2783.848086	372.632168
2785.173109	373.530070
2786.494801	373.565035
2787.816275	370.327273
2789.137530	367.376224
2790.458566	367.963636
2791.777829	373.015385
2793.098428	376.963636
2794.417256	376.044755
2795.735865	379.179021
2797.052703	377.055944
2798.369324	378.472727
2799.685728	378.924476
2801.000362	376.983217
2802.316332	374.454545
2803.628981	374.388811
2804.942965	374.587413
2806.256733	371.324476
2807.570284	370.813986
2808.882069	365.461538
2810.192087	360.425175
2811.503440	363.507692
2812.811478	362.674126
2814.120850	366.027972
2815.430008	366.071329
2816.738950	366.686713
2818.046128	371.923077
2819.351544	375.395804
2820.658293	374.020979
2821.963281	372.987413
2823.268054	374.320280
2824.571067	376.506294
2825.876960	378.717483
2827.177999	378.331469
2828.480372	376.328671
2829.780985	375.117483
2831.082932	372.011189
2832.384665	368.833566
2833.683095	366.293706
2834.982858	360.686713
2836.280864	356.320280
2837.578658	357.731469
2838.874696	356.573427
2840.172067	361.061538
2841.467682	363.334266
2842.763086	362.801399
2844.058279	362.741259
2845.350175	361.376224
2846.644947	363.613986
2847.936422	361.029371
2849.229230	359.934266
2850.521828	355.932867
2851.811132	355.938462
2853.101768	357.068531
2854.390653	358.240559
2855.680870	362.969231
2856.967796	361.781818
2858.256054	356.591608
2859.542563	354.634965
2860.828863	354.967832
2862.114956	357.695105
2863.399300	354.808392
2864.686515	353.776224
2865.968904	350.121678
2867.252625	351.018182
2868.534600	350.787413
2869.816367	352.032168
2871.096390	354.590210
2872.379282	350.341259
2873.660429	347.755245
2874.938294	349.765035
2876.219028	350.848951
2877.496481	349.169231
2878.773728	349.662937
2880.049233	350.376224
2881.327606	346.688112
2882.601165	351.134266
2883.877591	352.802797
2885.152276	354.194406
2886.425220	352.419580
2887.699496	351.686713
2888.972032	352.818182
2890.244363	353.521678
2891.513422	351.475524
2892.785346	349.411189
2894.055532	347.583217
2895.325514	343.900699
2896.595293	339.482517
2897.863336	338.930070
2899.129642	333.226573
2900.395747	330.195804
2901.663181	328.054545
2902.928880	331.316084
2904.194378	337.538462
2905.459673	343.188811
2906.721703	343.454545
2907.985063	341.430769
2909.248222	338.314685
2910.509649	336.848951
2911.772405	336.984615
2913.033429	335.135664
2914.292723	332.402797
2915.551817	336.530070
2916.810710	340.032168
2918.069403	343.296503
2919.327896	346.758042
2920.584660	346.530070
2921.841224	342.482517
2923.096061	338.737063
2924.352226	340.391608
2925.605137	337.342657
2926.859377	340.457343
2928.113417	334.846154
2929.365732	332.255944
2930.617849	333.942657
2931.868241	330.454545
2933.121488	331.213986
2934.369958	327.418182
2935.621283	326.822378
2936.869358	331.409790
2938.117237	330.797203
2939.364918	333.130070
2940.612402	331.602797
2941.858165	331.546853
2943.103732	325.289510
2944.350626	326.455944
2945.594276	324.137063
2946.839254	318.517483
2948.080988	316.664336
2949.325574	311.900699
2950.568441	313.958042
2951.808067	311.636364
2953.050543	308.819580
2954.289779	306.406993
2955.530343	306.408392
2956.769190	310.226573
2958.007843	312.412587
2959.244780	321.551049
2960.483045	323.924476
2961.719594	328.248951
2962.955950	330.797203
2964.192112	329.441958
2965.426560	328.099301
2966.660816	322.401399
2967.894878	321.089510
2969.127227	312.907692
2970.357866	310.323077
2971.591350	306.980420
2972.823122	301.612587
2974.053184	309.388811
2975.283053	310.075524
2976.511213	317.102098
2977.740700	318.093706
2978.968477	318.044755
2980.196063	320.383217
2981.424975	321.281119
2982.649146	319.609790
2983.876159	312.563636
2985.099948	312.018182
2986.325064	306.464336
2987.548473	304.658741
2988.771692	306.654545
2989.993206	306.665734
2991.217561	311.479720
2992.437181	311.127273
2993.658127	313.409790
2994.878884	312.233566
2996.097937	307.402797
2997.318315	301.794406
2998.535477	298.516084
2999.753965	302.793007
3000.970750	299.444755
3002.187348	299.574825
3003.403757	300.934266
3004.616953	304.135664
3005.832988	305.738462
3007.045810	309.383217
3008.261469	310.752448
3009.472405	308.193007
3010.684666	306.662937
3011.896741	306.587413
3013.108628	304.184615
3014.318819	305.111888
3015.528823	305.214685
3016.738641	307.531469
3017.946763	308.775524
3019.154700	303.937063
3020.360941	301.199301
3021.568507	301.952448
3022.774378	297.441259
3023.980065	297.793007
3025.185566	298.237063
3026.389374	299.939860
3027.594506	296.737762
3028.797945	298.937063
3029.999693	297.270629
3031.201256	302.496503
3032.402636	302.598601
3033.603832	297.818182
3034.803338	297.530070
3036.002661	296.075524
3037.203307	295.868531
3038.402263	294.896503
3039.598025	294.267133
3040.796616	296.358042
3041.992013	293.766434
3043.188733	289.264336
3044.382261	283.113287
3045.578617	287.334266
3046.773286	281.304895
3047.964765	279.271329
3049.160576	279.485315
3050.351692	281.026573
3051.544132	283.787413
3052.733384	281.972028
3053.925461	284.411189
3055.115855	289.261538
3056.303063	287.854545
3057.491593	289.788811
3058.681446	288.848951
3059.868115	290.065734
3061.054603	288.139860
3062.240913	289.447552
3063.428544	287.925874
3064.612993	289.751049
3065.795763	286.853147
3066.981355	284.857343
3068.165268	279.987413
3069.347502	280.696503
3070.529557	277.951049
3071.711434	281.874126
3072.893133	280.444755
3074.073155	281.331469
3075.251500	282.048951
3076.432665	285.672727
3077.610655	283.714685
3078.788468	284.247552
3079.966104	279.285315
3081.142066	279.008392
3082.317850	276.977622
3083.494956	277.113287
3084.670387	275.728671
3085.844145	277.602797
3087.016230	276.895105
3088.189637	277.861538
3089.362867	275.883916
3090.534426	276.751049
3091.707305	271.686713
3092.877017	270.096503
3094.048050	269.093706
3095.217413	270.980420
3096.385105	271.623776
3097.555613	268.839161
3098.721463	270.404196
3099.891621	274.875524
3101.057123	275.460140
3102.222450	276.068531
3103.387604	271.036364
3104.552585	271.234965
3105.718885	270.204196
3106.880533	269.784615
3108.043500	269.732867
3109.206295	267.647552
3110.368917	265.317483
3111.529873	265.281119
3112.690658	267.002797
3113.851270	265.613986
3115.010218	262.939860
3116.168995	255.432168
3117.327599	252.000000
3118.486032	251.425175
3119.644294	246.173427
3120.800893	247.076923
3121.955831	247.212587
3123.112088	248.429371
3124.266684	253.718881
3125.421110	258.413986
3126.573876	262.781818
3127.726471	264.577622
3128.878897	263.362238
3130.031153	262.100699
3131.183238	262.246154
3132.332177	260.987413
3133.483924	261.232168
3134.634012	263.584615
3135.782444	264.913287
3136.930706	269.085315
3138.078800	269.300699
3139.226725	268.085315
3140.372994	270.513287
3141.519095	265.334266
3142.663542	261.041958
3143.807821	257.927273
3144.951932	253.766434
3146.097360	249.176224
3147.239650	248.471329
3148.381773	248.565035
3149.523728	253.899301
3150.665516	259.625175
3151.807137	258.465734
3152.945623	257.970629
3154.085426	258.367832
3155.226546	255.832168
3156.364533	254.786014
3157.500870	253.008392
3158.637041	252.752448
3159.774529	247.790210
3160.910369	246.212587
3162.047526	250.100699
3163.180070	251.225175
3164.316896	249.534266
3165.449110	244.998601
3166.582641	241.917483
3167.716008	239.226573
3168.846247	238.928671
3169.979284	238.987413
3171.109195	241.145455
3172.240422	239.085315
3173.368525	235.468531
3174.499424	233.023776
3175.628679	234.942657
3176.756291	232.072727
3177.880780	229.762238
3179.009545	229.230769
3180.135188	230.352448
3181.260669	229.180420
3182.384507	228.169231
3183.511141	229.081119
3184.633177	229.117483
3185.756529	228.156643
3186.879719	229.441958
3188.002746	230.854545
3189.124135	235.121678
3190.245361	235.444755
3191.364950	235.490909
3192.484377	237.674126
3193.602166	239.486713
3194.722747	238.993007
3195.840215	235.103497
3196.957522	236.454545
3198.074669	238.613986
3199.190179	240.137063
3200.307005	245.813986
3201.420721	243.195804
3202.537226	244.032168
3203.652097	241.086713
3204.763858	237.959441
3205.875461	239.867133
3206.988379	237.275524
3208.101137	235.412587
3209.210789	233.376224
3210.321756	230.033566
3211.432564	231.864336
3212.541740	228.462937
3213.649285	230.446154
3214.758145	229.251748
3215.866847	233.124476
3216.972446	233.317483
3218.079359	233.229371
3219.184643	235.783217
3220.291241	231.993007
3221.394739	234.695105
3222.499552	232.713287
3223.604206	231.776224
3224.705763	231.998601
3225.807163	227.981818
3226.909877	228.559441
3228.012435	231.190210
3229.111896	233.103497
3230.214141	231.439161
3231.313290	229.932867
3232.410815	227.661538
3233.508184	227.239161
3234.608335	229.819580
3235.705394	229.569231
3236.802297	233.986014
3237.899045	228.380420
3238.991235	228.848951
3240.087673	230.069930
3241.182489	230.931469
3242.277151	231.377622
3243.370191	230.352448
3244.463076	225.681119
3245.554341	219.489510
3246.646919	220.772028
3247.737877	220.620979
3248.827215	220.798601
3249.916400	221.233566
3251.006898	219.290909
3252.094311	224.048951
3253.181571	228.848951
3254.270144	229.518881
3255.358564	230.906294
3256.442438	230.497902
3257.530553	226.948252
3258.615586	224.483916
3259.699004	225.556643
3260.783734	226.532867
3261.866848	223.460140
3262.951275	225.773427
3264.032623	224.723077
3265.115283	223.573427
3266.196329	219.111888
3267.277224	217.223776
3268.356505	217.973427
3269.435636	219.565035
3270.516079	222.944056
3271.593447	222.566434
3272.672127	227.676923
3273.749195	232.804196
3274.826114	233.709091
3275.901421	237.248951
3276.976579	235.141259
3278.053048	231.633566
3279.126447	225.695105
3280.199696	225.516084
3281.274257	224.225175
3282.347209	218.166434
3283.418552	216.260140
3284.491206	211.451748
3285.560794	216.672727
3286.631692	217.893706
3287.700983	219.850350
3288.771585	224.648951
3289.840580	225.253147
3290.907969	223.920280
3291.973753	221.853147
3293.043763	225.551049
3294.110710	224.488112
3295.174595	217.047552
3296.241247	216.871329
3297.306296	217.467133
3298.369741	217.737063
3299.433040	218.460140
3300.496192	218.257343
3301.559198	221.069930
3302.622058	218.318881
3303.683316	219.581818
3304.741517	221.412587
3305.803938	221.558042
3306.863304	222.723077
3307.922524	216.931469
3308.983053	219.226573
3310.039074	219.307692
3311.097858	217.602797
3312.152135	219.353846
3313.209176	219.511888
3314.264618	221.632168
3315.321370	217.650350
3316.376523	215.412587
3317.430079	213.109091
3318.482039	211.553846
3319.536760	212.784615
3320.588432	207.772028
3321.639961	210.422378
3322.692798	207.895105
3323.742588	210.422378
3324.793687	212.914685
3325.841740	212.752448
3326.892552	210.027972
3327.940320	208.920280
3328.987944	207.679720
3330.035427	206.006993
3331.081317	210.834965
3332.128515	209.309091
3333.172671	210.697902
3334.219585	213.044755
3335.264907	207.910490
3336.307188	207.780420
3337.349329	203.994406
3338.392777	201.841958
3339.436084	201.815385
3340.477802	205.293706
3341.519378	204.606993
3342.560813	202.567832
3343.600660	205.078322
3344.638918	207.062937
3345.678484	210.490909
3346.717910	213.029371
3347.755748	208.239161
3348.791999	207.283916
3349.828111	204.462937
3350.865530	205.886713
3351.899916	204.976224
3352.935609	203.728671
3353.971163	202.844755
3355.003686	201.681119
3356.038962	199.509091
3357.071207	201.951049
3358.103314	203.973427
3359.133837	205.377622
3360.165667	202.727273
3361.197359	200.422378
3362.226023	198.223776
3363.254550	195.337063
3364.284383	195.415385
3365.314079	197.372028
3366.340749	199.008392
3367.368725	200.812587
3368.393678	202.883916
3369.421380	203.806993
3370.446059	207.325874
3371.472044	205.608392
3372.496449	203.197203
3373.520718	202.096503
3374.543408	198.725874
3375.565962	197.563636
3376.589822	197.317483
3377.610662	196.230769
3378.631366	194.422178
3379.653377	192.905844
3380.672369	191.967433
3381.691225	191.892607
3382.711388	192.967033
3383.728534	195.476374
