-165.528079	11.600000
-162.858479	-18.200000
-160.191814	-5.000000
-157.525901	10.200000
-154.862921	-23.200000
-152.198510	13.400000
-149.537030	20.200000
-146.874121	7.400000
-144.216318	-15.400000
-141.557086	6.800000
-138.898602	19.200000
-136.243043	11.200000
-133.586054	18.600000
-130.934164	-8.400000
-128.280844	1.400000
-125.630443	4.800000
-122.978614	1.600000
-120.331874	16.000000
-117.683706	11.200000
-115.036280	-2.000000
-112.391769	2.400000
-109.745828	2.200000
-107.104969	-2.400000
-104.462681	13.000000
-101.823302	19.200000
-99.182493	-3.200000
-96.542425	11.400000
-93.907430	-9.400000
-91.271005	11.600000
-88.637483	-23.600000
-86.002533	4.000000
-83.372648	22.000000
-80.739171	-4.600000
-78.110756	12.400000
-75.483075	29.000000
-72.853965	30.200000
-70.229912	3.800000
-67.602270	5.200000
-64.979681	22.000000
-62.357824	16.400000
-59.736697	22.800000
-57.116301	113.400000
-54.498792	365.200000
-51.879855	1155.600000
-49.263803	3137.200000
-46.648480	5173.200000
-44.033885	3139.000000
-41.422171	568.200000
-38.809029	74.800000
-36.200921	37.600000
-33.589231	39.200000
-30.982572	16.800000
-28.374485	23.800000
-25.767122	37.800000
-23.164784	-2.600000
-20.558868	10.600000
-17.957974	27.800000
-15.355652	-33.400000
-12.758347	6.600000
-10.157467	10.000000
-7.561602	29.800000
-4.964308	-16.400000
-2.367734	15.600000
0.223831	37.600000
2.816824	34.800000
5.406956	-5.800000
7.998515	-4.200000
10.587216	-18.200000
13.177343	-12.200000
15.762471	46.000000
18.349027	38.800000
20.934869	4.800000
23.517857	3.400000
26.102271	-0.600000
28.679557	3.000000
31.260409	9.600000
33.838412	3.800000
36.415705	-5.000000
38.994424	13.200000
41.568161	12.200000
44.143326	18.000000
46.715647	-7.200000
49.287260	26.000000
51.856033	4.400000
54.426233	4.800000
56.993594	-0.400000
59.562382	29.600000
62.128333	11.200000
64.691449	41.800000
67.258121	29.600000
69.815572	42.000000
72.378708	90.400000
74.936884	113.400000
77.498615	204.400000
80.055389	363.400000
82.613589	450.800000
85.166837	473.800000
87.719387	458.800000
90.275487	589.600000
92.826639	747.000000
95.377094	1030.800000
97.926851	1217.800000
100.473789	1332.600000
103.020032	1381.000000
105.567700	1373.000000
108.114672	1331.800000
110.656709	1319.200000
113.198052	1281.800000
115.738702	1334.000000
118.280778	1428.600000
120.820042	1542.200000
123.356498	1649.400000
125.892262	1798.800000
128.429452	1965.600000
130.965951	2176.600000
133.499644	2423.800000
136.030533	2780.200000
138.560735	3161.600000
141.092361	3810.200000
143.621186	4551.600000
146.147212	5608.400000
148.672552	6779.000000
151.199317	8154.000000
153.723286	9550.800000
156.246570	10628.400000
158.769169	11155.200000
161.288975	10942.800000
163.808098	10059.400000
166.326538	9022.600000
168.846402	7636.600000
171.359265	6329.800000
173.875659	5312.400000
176.391371	4453.600000
178.902193	3816.400000
181.414440	3366.200000
183.923905	2901.200000
186.432690	2606.400000
188.940798	2335.600000
191.450330	2131.400000
193.954981	1987.200000
196.458956	1865.600000
198.964355	1794.400000
201.464879	1719.600000
203.968926	1693.800000
206.466003	1634.400000
208.966603	1653.800000
211.464431	1860.600000
213.961586	2150.600000
216.458068	2576.800000
218.949687	2637.600000
221.444826	2053.000000
223.937198	1496.000000
226.428900	1242.400000
228.917839	1082.000000
231.408201	1085.000000
233.895802	1011.600000
236.380643	969.800000
238.868999	962.200000
241.350415	932.800000
243.835345	906.800000
246.315430	889.800000
248.799027	885.000000
251.277781	838.000000
253.757958	871.200000
256.235384	896.400000
258.712146	843.200000
261.188244	856.800000
263.661595	848.400000
266.134283	872.000000
268.606310	860.800000
271.077676	920.200000
273.546297	887.200000
276.014260	956.400000
278.483644	868.600000
280.948206	873.200000
283.416272	844.800000
285.879518	889.000000
288.342106	863.000000
290.804038	881.800000
293.265313	872.600000
295.723854	940.400000
298.183817	1009.600000
300.641047	1134.000000
303.097623	1584.000000
305.553545	2478.000000
308.006737	3296.000000
310.461352	2990.200000
312.911165	1959.800000
315.364474	1328.800000
317.812984	1107.000000
320.260844	1048.000000
322.710126	1026.200000
325.154614	979.400000
327.600524	899.800000
330.045784	918.800000
332.488326	925.800000
334.930220	902.800000
337.371467	915.000000
339.809998	993.600000
342.249951	999.200000
344.687190	1149.800000
347.121717	1263.000000
349.559732	1201.000000
351.992970	1196.800000
354.427629	1333.400000
356.857516	1410.200000
359.290888	1230.000000
361.719490	1077.800000
364.147450	1023.400000
366.576832	982.800000
369.001448	990.800000
371.427486	1038.200000
373.852883	1061.400000
376.277640	1114.000000
378.697639	1119.600000
381.119058	1175.200000
383.537782	1205.400000
385.957926	1267.800000
388.375375	1373.000000
390.794244	1497.600000
393.210420	1641.400000
395.621848	1873.400000
398.036753	2176.800000
400.448969	2680.400000
402.860550	3370.200000
405.271497	4676.400000
407.679758	6892.800000
410.087386	11221.400000
412.494382	18873.200000
414.900747	29300.600000
417.304429	36194.400000
419.707481	32909.000000
422.109903	22510.600000
424.511695	13642.600000
426.910809	8750.600000
429.311343	6246.200000
431.711248	4778.200000
434.106431	3858.000000
436.505080	3319.800000
438.899009	2852.000000
441.292311	2584.600000
443.684989	2327.200000
446.077041	2151.200000
448.470511	1993.800000
450.859269	1911.200000
453.245361	1775.600000
455.632873	1778.400000
458.019762	1931.400000
460.403987	2176.400000
462.789630	2240.200000
465.172612	2016.000000
467.552933	1618.000000
469.934673	1445.000000
472.313754	1296.800000
474.694254	1312.400000
477.072096	1228.800000
479.447282	1194.000000
481.821852	1175.800000
484.197839	1206.800000
486.571174	1126.400000
488.945926	1153.200000
491.315993	1122.400000
493.685444	1096.600000
496.056313	1120.400000
498.422501	1085.600000
500.790108	1098.200000
503.155070	1041.600000
505.519418	998.200000
507.883153	1008.600000
510.248306	1006.400000
512.608787	973.200000
514.970686	955.200000
517.329944	967.400000
519.686564	978.600000
522.046630	977.600000
524.400004	966.600000
526.756823	978.400000
529.111007	944.800000
531.464582	944.000000
533.817550	989.200000
536.167885	921.600000
538.519638	968.200000
540.864714	963.400000
543.215254	945.000000
545.559120	961.800000
547.908448	978.200000
550.253127	956.800000
552.595182	954.600000
554.938654	948.000000
557.279503	926.000000
559.619750	924.800000
561.957376	881.400000
564.298437	936.600000
566.634860	901.600000
568.972700	937.000000
571.307923	922.800000
573.640530	892.800000
575.974553	885.000000
578.305962	915.400000
580.636773	891.400000
582.966987	899.000000
585.296602	899.400000
587.621594	886.800000
589.952028	886.400000
592.277841	847.400000
594.601046	867.200000
596.925668	886.000000
599.247684	851.800000
601.569106	908.200000
603.887926	882.600000
606.208161	878.200000
608.527803	885.400000
610.844844	931.400000
613.161293	873.200000
615.475144	871.400000
617.790411	830.600000
620.103081	866.400000
622.417166	856.400000
624.726651	857.200000
627.037552	895.800000
629.345860	901.800000
631.653580	897.600000
633.962714	874.800000
636.267256	922.600000
638.571212	953.800000
640.874582	948.000000
643.179366	940.800000
645.479563	993.800000
647.781176	1059.600000
650.082203	1038.200000
652.378649	1007.000000
654.676510	1002.800000
656.973787	936.400000
659.270481	884.600000
661.562599	909.600000
663.858128	871.600000
666.149083	897.200000
668.441453	841.000000
670.731248	874.000000
673.020462	887.600000
675.309097	871.000000
677.595159	840.800000
679.882636	853.400000
682.167541	862.200000
684.451869	881.400000
686.733628	853.800000
689.016801	867.800000
691.299397	903.000000
693.577437	859.000000
695.856892	881.800000
698.135770	881.200000
700.414074	898.800000
702.687828	880.800000
704.962995	894.600000
707.237589	879.800000
709.509624	866.200000
711.783072	900.800000
714.053962	929.000000
716.322296	919.000000
718.592043	870.000000
720.859236	918.400000
723.125858	918.600000
725.391910	946.000000
727.655411	927.400000
729.920325	919.400000
732.184669	900.200000
734.444484	957.400000
736.705711	973.000000
738.966371	978.800000
741.224485	957.000000
743.480054	1010.800000
745.739014	997.000000
747.991475	1035.000000
750.249302	1085.200000
752.502611	1175.400000
754.753380	1300.400000
757.005561	1546.600000
759.255203	1841.600000
761.506258	2100.600000
763.752801	1933.400000
766.000756	1589.600000
768.246177	1347.400000
770.493009	1206.600000
772.739280	1083.800000
774.981046	1053.600000
777.226196	1031.200000
779.464873	1000.400000
781.706932	1028.000000
783.944493	959.600000
786.183466	971.800000
788.419912	943.000000
790.657769	974.600000
792.893101	958.200000
795.125910	968.000000
797.360130	932.400000
799.591827	958.600000
801.822970	960.800000
804.053558	966.800000
806.283592	968.600000
808.513072	941.200000
810.738070	984.200000
812.966443	938.200000
815.190336	937.200000
817.415641	931.800000
819.636470	904.800000
821.860671	905.200000
824.080399	911.000000
826.301537	918.800000
828.522125	901.400000
830.740204	909.000000
832.959692	963.200000
835.174714	932.400000
837.389188	962.600000
839.603115	943.600000
841.816495	946.800000
844.029327	931.200000
846.241613	927.400000
848.451396	951.400000
850.660634	966.800000
852.869327	947.400000
855.075520	966.800000
857.283124	919.800000
859.488229	939.800000
861.692791	918.200000
863.894858	924.000000
866.098334	939.000000
868.299316	951.000000
870.499756	933.800000
872.701605	956.400000
874.897063	934.600000
877.095880	977.800000
879.290258	943.400000
881.487994	922.000000
883.681294	903.200000
885.876003	948.800000
888.068226	925.000000
890.259910	917.600000
892.451057	911.600000
894.639721	934.600000
896.827849	892.800000
899.013496	901.200000
901.202495	912.200000
903.387071	914.200000
905.571112	951.200000
907.758503	921.600000
909.937590	900.000000
912.120028	878.600000
914.301932	870.600000
916.481361	912.800000
918.658318	924.400000
920.836683	933.800000
923.016455	939.800000
925.189878	917.200000
927.366647	858.800000
929.539009	920.200000
931.712779	916.800000
933.882145	906.200000
936.054855	895.200000
938.225100	916.800000
940.394815	920.600000
942.564003	923.200000
944.728793	943.800000
946.896924	944.400000
949.060660	931.400000
951.225804	905.400000
953.388488	925.400000
955.550647	933.000000
957.710349	888.400000
959.869526	928.200000
962.030110	924.800000
964.188239	926.800000
966.345845	904.400000
968.502927	906.800000
970.659485	895.200000
972.811664	898.800000
974.965250	933.600000
977.118314	942.400000
979.268929	869.000000
981.420951	927.400000
983.568599	932.000000
985.719579	929.600000
987.866188	883.400000
990.012278	931.200000
992.157850	962.800000
994.304827	925.000000
996.445515	984.800000
998.589533	990.000000
1000.731110	928.400000
1002.872171	938.000000
1005.014636	966.800000
1007.150821	950.800000
1009.290333	953.600000
1011.425490	970.800000
1013.563971	968.400000
1015.698098	992.400000
1017.831712	995.800000
1019.966731	1025.600000
1022.097400	1057.800000
1024.229474	1102.400000
1026.359119	1132.800000
1028.488252	1289.000000
1030.616873	1455.000000
1032.744983	1756.600000
1034.870667	1848.200000
1036.995841	1729.600000
1039.122419	1404.200000
1041.244659	1203.200000
1043.368304	1085.400000
1045.487614	1042.000000
1047.612153	1043.200000
1049.730448	970.800000
1051.850147	930.200000
1053.967427	975.200000
1056.084200	957.000000
1058.200468	938.000000
1060.314319	963.400000
1062.429575	930.400000
1064.540507	926.800000
1066.654752	932.800000
1068.764676	940.000000
1070.876004	934.200000
1072.986827	897.400000
1075.093334	954.000000
1077.203150	912.800000
1079.308653	935.400000
1081.415558	903.800000
1083.516248	926.200000
1085.622150	920.200000
1087.723743	920.200000
1089.826739	933.600000
1091.929234	909.400000
1094.025522	941.800000
1096.127017	907.800000
1098.224210	934.800000
1100.320905	960.800000
1102.417101	983.600000
1104.512800	1047.000000
1106.608000	1106.000000
1108.700804	1189.800000
1110.795011	1275.400000
1112.883025	1290.600000
1114.976239	1208.600000
1117.063264	1118.600000
1119.153588	1058.800000
1121.239624	981.600000
1123.328959	951.200000
1125.412112	931.200000
1127.496667	952.400000
1129.582624	905.400000
1131.664299	893.400000
1133.747376	936.000000
1135.828066	900.800000
1137.908266	877.600000
1139.987974	909.800000
1142.067191	895.400000
1144.144026	921.600000
1146.218479	897.000000
1148.296225	891.600000
1150.369701	891.800000
1152.444577	908.600000
1154.515186	898.600000
1156.587196	892.600000
1158.656831	925.000000
1160.727865	915.800000
1162.798413	897.200000
1164.864699	866.800000
1166.932386	921.000000
1168.997701	908.000000
1171.064416	926.800000
1173.126875	911.800000
1175.192619	929.000000
1177.254109	968.800000
1179.317000	968.000000
1181.377523	992.800000
1183.437562	956.600000
1185.497118	935.200000
1187.554310	942.600000
1189.611020	939.800000
1191.665366	954.800000
1193.722994	918.400000
1195.778259	939.800000
1197.829283	917.400000
1199.881707	888.600000
1201.933651	914.200000
1203.983237	889.200000
1206.032344	900.200000
1208.080973	926.600000
1210.129122	871.200000
1212.176794	920.400000
1214.220235	937.800000
1216.266952	911.600000
1218.311315	863.400000
1220.355202	930.600000
1222.396737	874.200000
1224.435923	856.600000
1226.478382	849.200000
1228.516618	913.400000
1230.556253	857.400000
1232.595413	912.600000
1234.630354	871.800000
1236.666694	882.400000
1238.700690	879.600000
1240.736083	868.400000
1242.767264	874.400000
1244.799842	852.200000
1246.831949	879.800000
1248.861715	884.200000
1250.892878	875.000000
1252.919835	840.800000
1254.948189	866.600000
1256.972338	887.000000
1258.999753	848.600000
1261.022965	848.800000
1263.047575	862.000000
1265.069851	853.200000
1267.093524	873.200000
1269.114863	859.600000
1271.135736	850.000000
1273.156141	872.000000
1275.172353	869.400000
1277.189962	894.600000
1279.205243	817.800000
1281.223783	844.200000
1283.238134	889.600000
1285.250158	876.600000
1287.265441	881.400000
1289.276538	891.800000
1291.289032	900.400000
1293.297343	885.400000
1295.308909	859.400000
1297.314437	880.200000
1299.323220	890.200000
1301.327825	901.600000
1303.335684	849.600000
1305.343081	883.400000
1307.344447	892.000000
1309.347209	891.800000
1311.349512	845.400000
1313.351355	875.600000
1315.352738	859.800000
1317.351808	836.400000
1319.350419	849.600000
1321.348572	873.800000
1323.346266	863.200000
1325.339798	847.600000
1327.334725	833.600000
1329.329196	881.600000
1331.323210	844.200000
1333.314917	851.800000
1335.306168	835.200000
1337.295114	865.600000
1339.285456	833.400000
1341.275342	861.000000
1343.262924	841.000000
1345.250053	818.600000
1347.234880	808.400000
1349.221102	844.000000
1351.205023	852.600000
1353.188492	862.600000
1355.171509	840.200000
1357.152228	824.000000
1359.134341	805.800000
1361.114158	846.600000
1363.093523	847.800000
1365.068750	848.000000
1367.047215	802.600000
1369.023387	841.600000
1370.999110	857.600000
1372.974383	842.000000
1374.947365	854.400000
1376.919899	860.600000
1378.891985	871.000000
1380.863624	857.400000
1382.831134	824.200000
1384.803718	843.800000
1386.768496	823.600000
1388.738347	835.200000
1390.704074	848.400000
1392.671193	835.400000
1394.636029	853.800000
1396.596745	879.000000
1398.562529	817.200000
1400.522358	845.400000
1402.483581	831.400000
1404.446195	864.800000
1406.404695	826.000000
1408.362753	862.600000
1410.320369	825.400000
1412.277542	817.800000
1414.232440	872.200000
1416.188731	831.400000
1418.142747	843.800000
1420.096322	851.000000
1422.047625	858.400000
1424.000321	841.000000
1425.950744	825.400000
1427.900729	862.400000
1429.850275	827.200000
1431.797552	830.200000
1433.742561	824.800000
1435.688963	821.000000
1437.634927	830.000000
1439.580454	801.800000
1441.523715	788.800000
1443.466541	894.800000
1445.407103	810.200000
1447.349056	820.400000
1449.288747	814.000000
1451.228004	814.400000
1453.166825	818.000000
1455.103387	837.000000
1457.041340	849.800000
1458.977034	840.400000
1460.912295	831.000000
1462.845299	846.400000
1464.777872	849.600000
1466.710012	830.800000
1468.641720	832.600000
1470.571174	898.000000
1472.502019	850.000000
1474.432432	822.000000
1476.358773	814.600000
1478.286504	826.600000
1480.211986	881.200000
1482.137038	849.400000
1484.061661	827.600000
1485.985854	843.600000
1487.907801	818.200000
1489.831138	834.400000
1491.752228	816.600000
1493.671074	833.800000
1495.591310	821.800000
1497.509303	860.600000
1499.426869	818.800000
1501.342193	861.200000
1503.258907	834.200000
1505.171566	821.800000
1507.087429	826.200000
1509.001052	842.200000
1510.912437	858.000000
1512.825212	836.000000
1514.733937	809.400000
1516.644051	835.800000
1518.553742	807.200000
1520.463010	869.400000
1522.370044	826.600000
1524.274845	827.600000
1526.181035	826.000000
1528.084993	870.800000
1529.988530	850.200000
1531.891647	836.000000
1533.792534	876.000000
1535.694810	868.400000
1537.594858	818.400000
1539.496293	857.200000
1541.393695	835.200000
1543.290678	841.800000
1545.187243	829.400000
1547.085196	849.800000
1548.977313	810.400000
1550.872625	840.000000
1552.767519	828.400000
1554.660191	829.400000
1556.552446	849.800000
1558.442482	837.800000
1560.332102	809.400000
1562.221307	824.400000
1564.110097	780.600000
1565.996669	826.800000
1567.884629	849.600000
1569.768572	848.600000
1571.653902	828.400000
1573.538819	848.800000
1575.421522	841.800000
1577.305612	825.400000
1579.185690	817.800000
1581.067156	842.400000
1582.946411	803.000000
1584.827052	859.000000
1586.701889	812.800000
1588.581707	821.400000
1590.457521	812.000000
1592.332924	815.800000
1594.209713	814.000000
1596.080706	793.800000
1597.954880	812.800000
1599.825055	793.000000
1601.698411	794.200000
1603.569564	772.600000
1605.438516	824.200000
1607.308852	809.800000
1609.175196	790.600000
1611.042925	791.600000
1612.908455	800.200000
1614.775371	830.000000
1616.638298	805.000000
1618.502610	799.000000
1620.364726	794.400000
1622.226437	775.000000
1624.089534	783.400000
1625.950435	780.400000
1627.809144	812.200000
1629.667449	789.200000
1631.527138	809.200000
1633.381061	815.400000
1635.238157	776.000000
1637.094849	810.600000
1638.947566	772.800000
1640.803454	777.000000
1642.655368	769.400000
1644.506881	797.400000
1646.357993	753.400000
1648.208705	791.200000
1650.059015	781.800000
1651.907142	776.200000
1653.756653	732.600000
1655.600414	778.600000
1657.449126	770.800000
1659.292091	783.200000
1661.138223	771.000000
1662.980392	792.000000
1664.825727	746.600000
1666.665321	726.800000
1668.506299	790.200000
1670.348660	769.000000
1672.187065	776.600000
1674.026853	754.400000
1675.864465	751.800000
1677.701683	792.200000
1679.536727	746.800000
1681.373154	774.200000
1683.207409	759.800000
1685.041269	774.600000
1686.874735	759.000000
1688.704256	770.200000
1690.536935	758.600000
1692.365670	734.800000
1694.197562	738.800000
1696.025512	759.200000
1697.853071	743.600000
1699.680237	771.800000
1701.507012	730.600000
1703.333395	759.600000
1705.155842	741.200000
1706.981444	741.800000
1708.803111	754.400000
1710.626160	745.200000
1712.447047	740.000000
1714.267546	757.000000
1716.089425	753.400000
1717.905606	755.600000
1719.724938	734.200000
1721.540342	736.800000
1723.358898	746.200000
1725.173528	737.000000
1726.987771	726.600000
1728.801628	720.000000
1730.615098	702.600000
1732.426415	767.800000
1734.239112	738.400000
1736.051424	756.200000
1737.859817	747.000000
1739.669592	757.400000
1741.475452	722.000000
1743.284457	732.400000
1745.089549	742.800000
1746.896022	733.600000
1748.702111	729.400000
1750.504289	754.800000
1752.309612	726.000000
1754.111026	705.400000
1755.913820	731.200000
1757.712708	734.800000
1759.512977	749.800000
1761.312864	785.000000
1763.110609	736.800000
1764.907974	749.600000
1766.704959	704.000000
1768.501563	742.200000
1770.296028	697.800000
1772.091872	763.600000
1773.882061	698.600000
1775.677147	781.600000
1777.466581	706.600000
1779.259151	735.400000
1781.049586	724.000000
1782.837887	732.600000
1784.629323	687.200000
1786.415113	740.800000
1788.202283	716.800000
1789.987321	745.600000
1791.775493	730.600000
1793.559779	738.000000
1795.341935	705.400000
1797.125471	724.800000
1798.906878	708.200000
1800.689664	747.800000
1802.468569	724.200000
1804.248853	725.400000
1806.027012	746.800000
1807.806549	755.800000
1809.583961	729.200000
1811.359249	750.800000
1813.135915	757.400000
1814.910459	719.400000
1816.686381	723.600000
1818.456682	700.800000
1820.230111	701.000000
1822.001420	731.600000
1823.772358	738.000000
1825.544674	728.000000
1827.311376	736.400000
1829.081203	722.000000
1830.847167	715.200000
1832.616255	729.600000
1834.381481	682.800000
1836.146339	710.200000
1837.912574	706.400000
1839.674950	704.800000
1841.436959	682.400000
1843.198600	709.600000
1844.959875	716.000000
1846.720782	705.600000
1848.481323	703.600000
1850.239754	711.600000
1851.997819	678.600000
1853.753777	700.200000
1855.511111	677.400000
1857.268080	700.600000
1859.022942	688.200000
1860.775700	695.200000
1862.528093	684.600000
1864.281863	686.200000
1866.033529	682.200000
1867.783093	688.000000
1869.534032	662.600000
1871.284609	716.800000
1873.031346	689.800000
1874.779460	698.600000
1876.525474	682.200000
1878.272863	699.600000
1880.018155	676.000000
1881.761349	691.600000
1883.505918	681.000000
1885.248391	705.200000
1886.990505	683.800000
1888.732258	720.400000
1890.473651	672.400000
1892.212951	669.800000
1893.951892	671.200000
1895.690474	738.000000
1897.426965	696.200000
1899.163098	688.400000
1900.900605	680.600000
1902.634290	705.200000
1904.369350	720.800000
1906.102321	699.000000
1907.834936	698.600000
1909.567195	706.200000
1911.299097	700.800000
1913.028913	702.800000
1914.756644	691.600000
1916.485750	687.000000
1918.214500	696.000000
1919.941168	671.400000
1921.667481	702.000000
1923.395167	684.000000
1925.117317	687.600000
1926.842568	690.200000
1928.564012	681.800000
1930.288557	679.600000
1932.011021	692.600000
1933.729683	696.000000
1935.451443	704.200000
1937.169401	693.800000
1938.888732	696.400000
1940.604264	695.000000
1942.324616	684.000000
1944.041170	703.200000
1945.753927	692.400000
1947.469780	686.200000
1949.183561	668.400000
1950.896992	705.400000
1952.608352	684.000000
1954.321084	704.200000
1956.030026	688.600000
1957.742060	719.000000
1959.448585	691.600000
1961.158203	693.600000
1962.865754	706.000000
1964.572956	721.400000
1966.278093	666.000000
1967.982884	732.400000
1969.689046	661.400000
1971.391426	688.600000
1973.095177	704.400000
1974.796866	683.200000
1976.498210	672.600000
1978.199208	719.200000
1979.898145	694.400000
1981.598454	706.800000
1983.294987	670.800000
1984.992893	706.200000
1986.688739	672.600000
1988.387671	704.200000
1990.081117	668.000000
1991.775934	670.200000
1993.470409	660.600000
1995.161115	710.200000
1996.854905	666.400000
1998.544928	691.000000
2000.236322	676.000000
2001.925663	649.000000
2003.616374	639.400000
2005.303322	695.600000
2006.989931	661.400000
2008.677909	686.600000
2010.362128	680.200000
2012.047718	664.600000
2013.732968	659.400000
2015.416169	639.600000
2017.100741	659.000000
2018.779849	675.400000
2020.463744	667.000000
2022.142177	662.600000
2023.823688	640.800000
2025.501447	659.000000
2027.178870	652.400000
2028.857662	631.600000
2030.534412	619.400000
2032.209120	640.200000
2033.885197	636.400000
2035.559233	609.200000
2037.232935	635.200000
2038.906301	649.400000
2040.577628	664.200000
2042.248621	658.800000
2043.919280	613.400000
2045.589605	686.000000
2047.259596	650.000000
2048.927551	635.200000
2050.595173	642.600000
2052.260760	635.800000
2053.927716	648.200000
2055.592639	666.000000
2057.257230	659.600000
2058.919789	650.400000
2060.583716	654.400000
2062.245612	640.400000
2063.907178	664.400000
2065.568412	665.600000
2067.227618	652.200000
2068.886493	673.800000
2070.545039	656.200000
2072.203254	649.800000
2073.857747	615.200000
2075.515304	644.200000
2077.172531	699.200000
2078.826038	632.400000
2080.480912	677.400000
2082.132067	657.400000
2083.786285	650.200000
2085.436785	664.600000
2087.088653	654.800000
2088.735112	649.800000
2090.386326	645.200000
2092.033826	675.800000
2093.682693	650.800000
2095.329541	616.600000
2096.976064	646.600000
2098.622261	623.200000
2100.264750	653.400000
2101.910297	654.800000
2103.552137	650.000000
2105.197034	647.800000
2106.838225	646.800000
2108.479094	627.200000
2110.119638	659.200000
2111.758170	650.800000
2113.398068	642.400000
2115.034266	647.600000
2116.671830	624.200000
2118.309072	622.600000
2119.944304	656.800000
2121.579214	658.000000
2123.213803	622.400000
2124.848071	629.600000
2126.478645	613.200000
2128.112271	572.600000
2129.742205	630.800000
2131.373504	597.800000
2133.002798	633.000000
2134.631773	626.400000
2136.260428	623.000000
2137.888764	635.800000
2139.515098	624.200000
2141.141113	632.000000
2142.765126	603.400000
2144.390505	654.800000
2146.013883	616.800000
2147.638626	634.000000
2149.259688	632.200000
2150.880433	604.000000
2152.502543	633.200000
2154.122655	594.200000
2155.740770	560.600000
2157.358570	609.400000
2158.976055	595.600000
2160.593224	630.000000
2162.210078	608.200000
2163.826616	597.400000
2165.441162	635.800000
2167.053715	618.200000
2168.667632	585.000000
2170.279558	594.000000
2171.892847	593.000000
2173.504146	607.200000
2175.113455	601.600000
2176.724128	585.000000
2178.332812	598.200000
2179.941183	644.200000
2181.547568	549.400000
2183.155315	621.400000
2184.761077	631.600000
2186.366527	626.000000
2187.969992	575.800000
2189.574820	608.000000
2191.177664	594.400000
2192.778525	615.800000
2194.380749	619.600000
2195.980991	613.000000
2197.582595	618.600000
2199.180546	602.200000
2200.779860	592.800000
2202.377194	640.000000
2203.974220	636.200000
2205.572608	655.400000
2207.167347	605.000000
2208.760109	617.000000
2210.354234	601.800000
2211.949720	617.600000
2213.541561	610.000000
2215.133096	632.600000
2216.725993	581.400000
2218.313580	611.200000
2219.905863	598.400000
2221.492840	600.200000
2223.082844	588.200000
2224.667544	587.600000
2226.256938	575.800000
2227.841030	591.600000
2229.426482	577.000000
2231.009966	552.600000
2232.596475	559.000000
2234.179351	565.000000
2235.761924	581.200000
2237.344193	586.600000
2238.922832	587.000000
2240.504496	563.800000
2242.082531	606.400000
2243.663589	562.800000
2245.241020	567.700000
2246.816488	572.600000
2248.394978	592.400000
2249.969844	553.600000
2251.544409	525.200000
2253.118673	572.800000
2254.692638	552.000000
2256.266301	581.600000
2257.839665	565.200000
2259.409410	576.400000
2260.978856	573.000000
2262.551320	583.400000
2264.118510	523.600000
2265.688718	579.200000
2267.255311	566.800000
2268.823264	581.600000
2270.389261	572.800000
2271.954961	550.800000
2273.520363	583.000000
2275.083812	547.000000
2276.648620	553.200000
2278.209820	591.400000
2279.774034	591.000000
2281.332986	565.400000
2282.894952	590.200000
2284.454968	572.200000
2286.014689	576.800000
2287.572460	560.000000
2289.129936	518.200000
2290.687118	552.400000
2292.242352	549.000000
2293.797293	559.200000
2295.351939	552.000000
2296.906292	546.200000
2298.460351	550.600000
2300.014117	538.200000
2301.565938	543.600000
2303.115817	515.600000
2304.668703	555.400000
2306.216346	565.200000
2307.766998	566.800000
2309.314058	562.200000
2310.862476	547.000000
2312.410603	552.400000
2313.955141	562.200000
2315.501037	557.800000
2317.044995	527.800000
2318.590309	564.800000
2320.132040	545.600000
2321.675127	537.000000
2323.216278	549.800000
2324.757140	508.000000
2326.297713	521.200000
2327.837997	575.800000
2329.377992	537.400000
2330.914409	542.400000
2332.453827	540.400000
2333.989667	569.000000
2335.526865	534.000000
2337.060487	515.800000
2338.597109	543.400000
2340.131801	577.200000
2341.664563	522.200000
2343.197038	552.400000
2344.727585	534.000000
2346.261130	582.800000
2347.789464	509.400000
2349.319154	566.400000
2350.848559	566.400000
2352.377679	526.600000
2353.906513	537.600000
2355.430143	519.200000
2356.958408	527.600000
2358.481471	535.600000
2360.009167	523.200000
2361.530024	547.200000
2363.055513	518.400000
2364.577443	556.400000
2366.100727	508.800000
2367.622091	535.200000
2369.141535	511.400000
2370.662334	523.000000
2372.181214	558.600000
2373.699813	554.400000
2375.216494	518.600000
2376.734529	567.400000
2378.252283	535.400000
2379.766485	536.200000
2381.280408	509.200000
2382.794050	522.800000
2384.309047	523.400000
2385.820495	542.800000
2387.333298	546.600000
2388.844187	526.400000
2390.354798	528.400000
2391.863497	518.400000
2393.375182	521.000000
2394.883324	551.200000
2396.391188	524.600000
2397.898774	524.000000
2399.402819	512.600000
2400.909849	526.400000
2402.414971	532.400000
2403.919816	547.400000
2405.422754	489.600000
2406.925416	504.200000
2408.427801	512.200000
2409.928281	534.800000
2411.430114	527.600000
2412.930042	494.400000
2414.429695	513.600000
2415.929073	504.600000
2417.426548	516.200000
2418.922121	527.600000
2420.420674	492.400000
2421.915699	521.000000
2423.412076	495.000000
2424.904927	486.200000
2426.399131	529.600000
2427.893061	519.600000
2429.383467	499.200000
2430.876851	521.400000
2432.368337	504.800000
2433.857926	521.800000
2435.347243	494.200000
2436.834664	516.000000
2438.325061	501.800000
2439.811940	529.400000
2441.300170	490.600000
2442.784883	479.600000
2444.269327	488.800000
2445.755121	544.200000
2447.239024	510.600000
2448.724277	513.800000
2450.204397	487.200000
2451.687490	516.800000
2453.168692	502.400000
2454.649625	506.400000
2456.128669	524.400000
2457.607444	520.200000
2459.085951	519.600000
2460.564190	511.800000
2462.042160	508.800000
2463.516625	501.400000
2464.994060	453.400000
2466.467991	496.200000
2467.943272	501.000000
2469.418286	521.600000
2470.889799	484.200000
2472.362663	516.000000
2473.833644	485.600000
2475.305975	508.600000
2476.773192	504.000000
2478.243376	488.400000
2479.711679	491.200000
2481.179717	497.800000
2482.647490	491.600000
2484.114998	467.800000
2485.582241	488.800000
2487.045992	510.400000
2488.511093	501.400000
2489.974317	517.000000
2491.438890	458.200000
2492.899975	500.600000
2494.362409	454.000000
2495.824580	523.400000
2497.283265	509.800000
2498.746521	492.600000
2500.204682	507.800000
2501.664191	504.600000
2503.118606	499.400000
2504.577592	532.600000
2506.034706	479.800000
2507.489948	469.600000
2508.944930	465.400000
2510.398043	500.000000
2511.852504	472.400000
2513.305095	491.800000
2514.757427	495.400000
2516.207892	505.400000
2517.661312	491.600000
2519.109650	456.400000
2520.560943	484.600000
2522.010371	477.800000
2523.456326	472.400000
2524.905236	471.200000
2526.350676	471.600000
2527.797463	507.200000
2529.242387	447.000000
2530.687054	489.000000
2532.133068	502.200000
2533.575616	466.800000
2535.019511	469.400000
2536.459941	473.200000
2537.901718	466.600000
2539.341636	463.000000
2540.782901	473.000000
2542.220704	518.600000
2543.661457	459.400000
2545.097148	489.600000
2546.535788	462.400000
2547.972570	457.800000
2549.407497	494.400000
2550.845371	499.400000
2552.278188	437.400000
2553.712352	473.000000
2555.144662	453.800000
2556.578318	485.000000
2558.010121	460.000000
2559.441670	486.000000
2560.872967	451.200000
2562.302411	459.400000
2563.731603	461.600000
2565.158945	473.800000
2566.587632	462.600000
2568.016068	447.800000
2569.441056	462.000000
2570.867391	452.000000
2572.291877	453.200000
2573.717709	485.200000
2575.140097	458.600000
2576.563831	459.800000
2577.985718	476.800000
2579.407356	451.200000
2580.827148	458.200000
2582.248286	471.400000
2583.669174	426.600000
2585.086623	479.800000
2586.507013	451.000000
2587.923965	457.200000
2589.340668	441.600000
2590.757123	459.800000
2592.173330	440.400000
2593.589289	466.600000
2595.003407	469.800000
2596.417277	461.800000
2597.829309	428.600000
2599.242684	467.000000
2600.652630	464.000000
2602.065512	448.200000
2603.474965	463.200000
2604.884172	441.200000
2606.291543	462.800000
2607.701848	465.400000
2609.110318	461.000000
2610.516952	464.600000
2611.923341	449.400000
2613.327896	480.600000
2614.733795	433.200000
2616.137861	471.200000
2617.541682	452.200000
2618.945259	442.200000
2620.347005	439.600000
2621.750094	451.200000
2623.149765	420.600000
2624.550780	434.200000
2625.948379	465.000000
2627.348907	474.600000
2628.746021	445.800000
2630.144478	473.600000
2631.541108	461.600000
2632.937495	441.600000
2634.333640	452.000000
2635.727959	454.000000
2637.123621	450.000000
2638.515874	469.000000
2639.909469	419.200000
2641.301240	464.200000
2642.694354	406.200000
2644.085644	450.000000
2645.475111	434.000000
2646.864338	463.000000
2648.253326	435.800000
2649.643655	439.000000
2651.029001	439.800000
2652.417270	471.400000
2653.803719	447.400000
2655.189929	449.000000
2656.575900	472.000000
2657.958473	450.000000
2659.342388	451.000000
2660.726065	417.000000
2662.109503	453.600000
2663.489546	437.400000
2664.870931	413.000000
2666.250501	450.400000
2667.631411	423.800000
2669.010507	433.800000
2670.387789	398.200000
2671.766412	442.600000
2673.143222	454.200000
2674.519795	432.800000
2675.896133	447.200000
2677.270660	401.600000
2678.646527	458.000000
2680.019007	404.600000
2681.394403	456.600000
2682.764839	440.000000
2684.136616	426.600000
2685.508158	410.400000
2686.877892	419.200000
2688.248967	443.000000
2689.618233	439.800000
2690.987266	430.200000
2692.354493	428.600000
2693.721486	412.000000
2695.088247	415.800000
2696.454776	428.000000
2697.819499	420.200000
2699.183990	410.000000
2700.548250	428.000000
2701.912277	428.000000
2703.276073	389.400000
2704.636495	405.400000
2705.999827	408.400000
2707.358217	405.800000
2708.719517	415.800000
2710.077447	411.000000
2711.438285	404.800000
2712.797324	431.600000
2714.152994	413.000000
2715.511572	414.600000
2716.866783	409.800000
2718.221765	412.000000
2719.574950	408.800000
2720.931042	413.800000
2722.283770	391.800000
2723.636270	421.000000
2724.988541	403.400000
2726.342150	454.600000
2727.692399	402.000000
2729.040853	422.200000
2730.392212	416.600000
2731.740213	378.600000
2733.089551	400.400000
2734.437097	427.400000
2735.784417	424.600000
2737.131510	427.200000
2738.476812	373.000000
2739.821887	421.400000
2741.166737	374.400000
2742.511361	401.800000
2743.852633	395.800000
2745.195243	403.400000
2746.537627	400.000000
2747.879786	449.000000
2749.218596	396.400000
2750.560306	437.200000
2751.898667	390.000000
2753.238366	397.000000
2754.576280	410.600000
2755.912409	420.400000
2757.248314	374.000000
2758.585557	365.600000
2759.921016	409.000000
2761.256252	379.000000
2762.589705	392.800000
2763.924495	398.800000
2765.255945	385.800000
2766.590290	403.200000
2767.919737	382.600000
2769.250520	425.200000
2770.581083	377.000000
2771.909866	374.400000
2773.239985	389.400000
2774.568326	397.800000
2775.896446	399.200000
2777.222788	394.000000
2778.550467	387.600000
2779.874812	384.400000
2781.200494	376.000000
2782.524400	408.600000
2783.848086	358.000000
2785.173109	393.200000
2786.494801	358.000000
2787.816275	355.800000
2789.137530	396.800000
2790.458566	401.000000
2791.777829	383.000000
2793.098428	403.800000
2794.417256	378.600000
2795.735865	383.200000
2797.052703	375.200000
2798.369324	410.600000
2799.685728	358.400000
2801.000362	360.200000
2802.316332	398.400000
2803.628981	375.600000
2804.942965	389.800000
2806.256733	376.200000
2807.570284	333.200000
2808.882069	375.200000
2810.192087	368.200000
2811.503440	368.600000
2812.811478	370.600000
2814.120850	384.000000
2815.430008	378.400000
2816.738950	377.400000
2818.046128	384.600000
2819.351544	370.600000
2820.658293	360.200000
2821.963281	375.000000
2823.268054	376.200000
2824.571067	400.200000
2825.876960	372.000000
2827.177999	362.400000
2828.480372	387.000000
2829.780985	357.800000
2831.082932	368.800000
2832.384665	408.000000
2833.683095	368.600000
2834.982858	370.600000
2836.280864	355.800000
2837.578658	329.800000
2838.874696	343.400000
2840.172067	365.400000
2841.467682	362.800000
2842.763086	365.800000
2844.058279	370.000000
2845.350175	371.200000
2846.644947	337.200000
2847.936422	331.400000
2849.229230	353.400000
2850.521828	369.200000
2851.811132	349.400000
2853.101768	363.200000
2854.390653	361.600000
2855.680870	390.600000
2856.967796	341.000000
2858.256054	381.800000
2859.542563	337.000000
2860.828863	376.600000
2862.114956	367.800000
2863.399300	350.200000
2864.686515	372.400000
2865.968904	335.600000
2867.252625	356.200000
2868.534600	359.600000
2869.816367	361.600000
2871.096390	343.600000
2872.379282	352.400000
2873.660429	385.200000
2874.938294	348.400000
2876.219028	355.800000
2877.496481	357.200000
2878.773728	337.200000
2880.049233	340.600000
2881.327606	363.000000
2882.601165	365.800000
2883.877591	377.600000
2885.152276	336.800000
2886.425220	351.800000
2887.699496	351.800000
2888.972032	384.800000
2890.244363	366.200000
2891.513422	364.800000
2892.785346	339.600000
2894.055532	325.400000
2895.325514	344.600000
2896.595293	363.600000
2897.863336	326.600000
2899.129642	356.200000
2900.395747	334.200000
2901.663181	345.600000
2902.928880	323.800000
2904.194378	340.200000
2905.459673	321.000000
2906.721703	355.200000
2907.985063	330.200000
2909.248222	344.600000
2910.509649	307.200000
2911.772405	321.400000
2913.033429	321.200000
2914.292723	340.800000
2915.551817	346.400000
2916.810710	340.800000
2918.069403	339.800000
2919.327896	319.800000
2920.584660	335.800000
2921.841224	342.000000
2923.096061	360.000000
2924.352226	326.000000
2925.605137	345.400000
2926.859377	336.000000
2928.113417	340.800000
2929.365732	338.600000
2930.617849	320.600000
2931.868241	323.600000
2933.121488	309.200000
2934.369958	327.400000
2935.621283	327.000000
2936.869358	364.400000
2938.117237	323.400000
2939.364918	331.200000
2940.612402	352.800000
2941.858165	361.600000
2943.103732	335.200000
2944.350626	310.800000
2945.594276	314.000000
2946.839254	325.800000
2948.080988	331.600000
2949.325574	345.000000
2950.568441	324.800000
2951.808067	302.600000
2953.050543	330.800000
2954.289779	325.200000
2955.530343	293.000000
2956.769190	326.400000
2958.007843	313.600000
2959.244780	359.200000
2960.483045	333.200000
2961.719594	338.000000
2962.955950	320.800000
2964.192112	313.600000
2965.426560	328.600000
2966.660816	338.600000
2967.894878	340.600000
2969.127227	325.000000
2970.357866	317.000000
2971.591350	307.600000
2972.823122	341.800000
2974.053184	313.800000
2975.283053	307.800000
2976.511213	317.000000
2977.740700	329.200000
2978.968477	322.200000
2980.196063	320.000000
2981.424975	348.000000
2982.649146	333.000000
2983.876159	309.200000
2985.099948	305.000000
2986.325064	288.200000
2987.548473	273.800000
2988.771692	308.000000
2989.993206	315.000000
2991.217561	311.200000
2992.437181	312.000000
2993.658127	312.600000
2994.878884	324.000000
2996.097937	323.600000
2997.318315	306.200000
2998.535477	310.600000
2999.753965	307.000000
3000.970750	298.400000
3002.187348	313.200000
3003.403757	322.000000
3004.616953	287.600000
3005.832988	327.600000
3007.045810	305.200000
3008.261469	302.400000
3009.472405	277.800000
3010.684666	292.800000
3011.896741	303.600000
3013.108628	293.200000
3014.318819	292.400000
3015.528823	317.000000
3016.738641	322.600000
3017.946763	290.600000
3019.154700	275.800000
3020.360941	315.600000
3021.568507	310.200000
3022.774378	304.200000
3023.980065	298.200000
3025.185566	299.000000
3026.389374	299.600000
3027.594506	308.200000
3028.797945	292.000000
3029.999693	307.400000
3031.201256	289.000000
3032.402636	303.200000
3033.603832	279.400000
3034.803338	303.600000
3036.002661	296.000000
3037.203307	297.600000
3038.402263	288.200000
3039.598025	273.000000
3040.796616	300.200000
3041.992013	307.400000
3043.188733	295.600000
3044.382261	290.200000
3045.578617	303.000000
3046.773286	273.400000
3047.964765	277.400000
3049.160576	305.000000
3050.351692	272.000000
3051.544132	276.000000
3052.733384	296.600000
3053.925461	303.200000
3055.115855	299.200000
3056.303063	290.200000
3057.491593	291.800000
3058.681446	276.400000
3059.868115	287.400000
3061.054603	303.000000
3062.240913	290.200000
3063.428544	293.800000
3064.612993	284.000000
3065.795763	299.000000
3066.981355	275.600000
3068.165268	271.600000
3069.347502	264.400000
3070.529557	271.200000
3071.711434	244.600000
3072.893133	284.200000
3074.073155	273.800000
3075.251500	297.200000
3076.432665	267.600000
3077.610655	301.000000
3078.788468	258.600000
3079.966104	298.400000
3081.142066	270.200000
3082.317850	271.600000
3083.494956	258.800000
3084.670387	262.000000
3085.844145	287.800000
3087.016230	288.000000
3088.189637	249.600000
3089.362867	282.000000
3090.534426	273.200000
3091.707305	295.600000
3092.877017	276.400000
3094.048050	274.000000
3095.217413	280.800000
3096.385105	294.000000
3097.555613	238.400000
3098.721463	281.800000
3099.891621	256.800000
3101.057123	272.600000
3102.222450	256.800000
3103.387604	287.200000
3104.552585	257.600000
3105.718885	254.000000
3106.880533	265.000000
3108.043500	273.800000
3109.206295	270.600000
3110.368917	285.400000
3111.529873	240.400000
3112.690658	262.400000
3113.851270	254.600000
3115.010218	258.200000
3116.168995	237.000000
3117.327599	267.200000
3118.486032	238.600000
3119.644294	247.200000
3120.800893	246.600000
3121.955831	246.000000
3123.112088	249.800000
3124.266684	256.600000
3125.421110	242.200000
3126.573876	276.600000
3127.726471	247.600000
3128.878897	276.400000
3130.031153	282.000000
3131.183238	250.800000
3132.332177	252.800000
3133.483924	248.200000
3134.634012	254.000000
3135.782444	264.400000
3136.930706	271.600000
3138.078800	293.000000
3139.226725	259.800000
3140.372994	241.400000
3141.519095	271.200000
3142.663542	287.800000
3143.807821	248.600000
3144.951932	236.200000
3146.097360	248.400000
3147.239650	252.200000
3148.381773	243.200000
3149.523728	241.600000
3150.665516	264.800000
3151.807137	264.800000
3152.945623	254.800000
3154.085426	241.000000
3155.226546	265.200000
3156.364533	237.600000
3157.500870	227.000000
3158.637041	241.400000
3159.774529	263.400000
3160.910369	254.400000
3162.047526	246.000000
3163.180070	271.800000
3164.316896	254.000000
3165.449110	245.000000
3166.582641	249.600000
3167.716008	249.600000
3168.846247	230.200000
3169.979284	251.800000
3171.109195	253.200000
3172.240422	251.600000
3173.368525	225.200000
3174.499424	254.000000
3175.628679	240.400000
3176.756291	210.400000
3177.880780	216.200000
3179.009545	228.200000
3180.135188	248.200000
3181.260669	239.200000
3182.384507	219.000000
3183.511141	234.200000
3184.633177	235.200000
3185.756529	248.600000
3186.879719	234.800000
3188.002746	249.200000
3189.124135	241.400000
3190.245361	248.600000
3191.364950	232.000000
3192.484377	275.600000
3193.602166	245.000000
3194.722747	231.800000
3195.840215	208.600000
3196.957522	233.000000
3198.074669	248.800000
3199.190179	239.200000
3200.307005	208.200000
3201.420721	226.000000
3202.537226	270.000000
3203.652097	238.200000
3204.763858	224.800000
3205.875461	259.400000
3206.988379	254.600000
3208.101137	240.400000
3209.210789	223.800000
3210.321756	256.400000
3211.432564	249.600000
3212.541740	231.600000
3213.649285	233.800000
3214.758145	231.800000
3215.866847	223.800000
3216.972446	253.800000
3218.079359	220.600000
3219.184643	243.000000
3220.291241	250.400000
3221.394739	241.200000
3222.499552	221.600000
3223.604206	244.600000
3224.705763	209.400000
3225.807163	228.800000
3226.909877	241.400000
3228.012435	238.800000
3229.111896	244.600000
3230.214141	218.600000
3231.313290	217.000000
3232.410815	206.800000
3233.508184	218.600000
3234.608335	217.800000
3235.705394	220.600000
3236.802297	221.400000
3237.899045	207.600000
3238.991235	238.200000
3240.087673	231.200000
3241.182489	234.800000
3242.277151	214.600000
3243.370191	238.400000
3244.463076	234.000000
3245.554341	209.000000
3246.646919	219.200000
3247.737877	250.200000
3248.827215	212.400000
3249.916400	217.600000
3251.006898	224.200000
3252.094311	234.200000
3253.181571	232.400000
3254.270144	244.800000
3255.358564	228.000000
3256.442438	235.400000
3257.530553	211.800000
3258.615586	238.000000
3259.699004	221.600000
3260.783734	239.200000
3261.866848	240.000000
3262.951275	214.800000
3264.032623	216.000000
3265.115283	227.600000
3266.196329	229.000000
3267.277224	217.600000
3268.356505	220.200000
3269.435636	215.600000
3270.516079	207.400000
3271.593447	217.400000
3272.672127	231.200000
3273.749195	226.400000
3274.826114	234.200000
3275.901421	237.000000
3276.976579	217.400000
3278.053048	237.800000
3279.126447	212.000000
3280.199696	246.200000
3281.274257	234.000000
3282.347209	238.400000
3283.418552	210.000000
3284.491206	230.200000
3285.560794	205.800000
3286.631692	218.400000
3287.700983	207.800000
3288.771585	234.800000
3289.840580	211.200000
3290.907969	228.000000
3291.973753	211.600000
3293.043763	211.800000
3294.110710	221.200000
3295.174595	239.600000
3296.241247	233.000000
3297.306296	221.800000
3298.369741	213.800000
3299.433040	222.200000
3300.496192	199.600000
3301.559198	235.600000
3302.622058	223.600000
3303.683316	228.000000
3304.741517	220.800000
3305.803938	215.200000
3306.863304	208.000000
3307.922524	231.000000
3308.983053	220.800000
3310.039074	221.600000
3311.097858	209.000000
3312.152135	234.200000
3313.209176	187.000000
3314.264618	242.600000
3315.321370	227.800000
3316.376523	237.800000
3317.430079	194.600000
3318.482039	206.400000
3319.536760	192.600000
3320.588432	211.400000
3321.639961	220.400000
3322.692798	247.200000
3323.742588	214.000000
3324.793687	204.600000
3325.841740	209.600000
3326.892552	214.000000
3327.940320	215.800000
3328.987944	210.800000
3330.035427	193.000000
3331.081317	238.200000
3332.128515	205.400000
3333.172671	222.800000
3334.219585	206.200000
3335.264907	211.000000
3336.307188	219.600000
3337.349329	207.600000
3338.392777	207.800000
3339.436084	216.800000
3340.477802	215.800000
3341.519378	186.200000
3342.560813	215.800000
3343.600660	229.200000
3344.638918	186.600000
3345.678484	222.200000
3346.717910	199.200000
3347.755748	208.200000
3348.791999	203.000000
3349.828111	194.400000
3350.865530	211.800000
3351.899916	194.800000
3352.935609	187.600000
3353.971163	190.000000
3355.003686	201.600000
3356.038962	183.800000
3357.071207	180.600000
3358.103314	206.400000
3359.133837	207.400000
3360.165667	225.800000
3361.197359	184.600000
3362.226023	212.800000
3363.254550	172.800000
3364.284383	202.800000
3365.314079	221.200000
3366.340749	219.000000
3367.368725	231.800000
3368.393678	186.400000
3369.421380	200.200000
3370.446059	195.200000
3371.472044	202.200000
3372.496449	200.800000
3373.520718	221.000000
3374.543408	179.800000
3375.565962	203.800000
3376.589822	183.000000
3377.610662	204.600000
3378.631366	226.600000
3379.653377	230.000000
3380.672369	203.600000
3381.691225	175.800000
3382.711388	202.400000
3383.728534	188.000000
