-118.106446	-0.331000
-115.436846	-0.202000
-112.770181	-0.337000
-110.104268	0.182000
-107.441287	0.937000
-104.776877	0.729000
-102.115397	1.103000
-99.452487	0.901000
-96.794685	0.874000
-94.135452	0.384000
-91.476968	-0.502000
-88.821409	-0.464000
-86.164421	-0.440000
-83.512530	-0.125000
-80.859210	0.831000
-78.208810	-0.230000
-75.556980	-0.948000
-72.910241	1.005000
-70.262072	-0.233000
-67.614647	0.623000
-64.970135	1.041000
-62.324195	1.551000
-59.683336	0.988000
-57.041048	2.394000
-54.401668	0.257000
-51.760860	-0.618000
-49.120792	0.211000
-46.485796	-0.303000
-43.849371	0.373000
-41.215850	-0.327000
-38.580900	-2.193000
-35.951015	0.794000
-33.317538	0.433000
-30.689123	-0.437000
-28.061441	0.748000
-25.432332	-0.008000
-22.808279	0.433000
-20.180637	1.783000
-17.558048	1.205000
-14.936191	-0.261000
-12.315064	1.753000
-9.694667	2.728000
-7.077158	6.214000
-4.458221	21.391000
-1.842170	44.951000
0.773153	46.190000
3.387749	23.716000
5.999462	1.521000
8.612604	0.389000
11.220712	1.737000
13.832402	-0.955000
16.439061	1.441000
19.047148	-0.268000
21.654511	1.444000
24.256849	-0.032000
26.862765	0.465000
29.463659	0.190000
32.065981	0.066000
34.663286	-0.572000
37.264166	0.656000
39.860032	0.113000
42.457325	0.701000
45.053899	1.390000
47.645464	0.746000
50.238457	1.051000
52.828589	0.089000
55.420149	0.525000
58.008849	1.789000
60.598976	0.431000
63.184105	1.231000
65.770660	1.679000
68.356502	2.066000
70.939490	1.690000
73.523905	0.215000
76.101190	0.197000
78.682042	0.686000
81.260045	-0.177000
83.837338	1.310000
86.416057	1.578000
88.989795	0.527000
91.564959	-0.451000
94.137280	1.455000
96.708893	1.411000
99.277666	1.162000
101.847866	0.810000
104.415228	1.958000
106.984015	0.090000
109.549966	0.238000
112.113082	1.115000
114.679754	1.343000
117.237205	0.000000
119.800341	2.093000
122.358518	2.598000
124.920248	2.924000
127.477023	5.587000
130.035223	9.229000
132.588471	12.097000
135.141020	18.625000
137.697120	26.662000
140.248273	34.048000
142.798727	43.690000
145.348485	48.449000
147.895423	54.851000
150.441665	58.924000
152.989333	60.658000
155.536306	58.762000
158.078342	62.709000
160.619685	61.554000
163.160335	63.140000
165.702411	62.075000
168.241676	62.031000
170.778131	63.414000
173.313896	63.326000
175.851086	62.393000
178.387584	61.867000
180.921277	62.377000
183.452167	60.476000
185.982368	63.534000
188.513994	61.183000
191.042819	64.515000
193.568845	61.769000
196.094186	61.364000
198.620951	63.959000
201.144919	64.102000
203.668203	61.301000
206.190802	61.699000
208.710608	63.265000
211.229731	60.448000
213.748171	60.499000
216.268035	62.171000
218.780898	62.520000
221.297292	61.109000
223.813004	61.733000
226.323827	61.261000
228.836074	61.893000
231.345538	60.397000
233.854324	60.849000
236.362432	62.694000
238.871963	61.507000
241.376615	63.090000
243.880590	61.458000
246.385989	63.424000
248.886513	60.439000
251.390560	62.546000
253.887637	62.120000
256.388236	62.512000
258.886064	63.529000
261.383219	62.379000
263.879701	63.013000
266.371320	63.202000
268.866459	60.636000
271.358832	63.469000
273.850534	60.536000
276.339473	62.279000
278.829835	60.500000
281.317436	61.632000
283.802277	60.466000
286.290632	62.441000
288.772048	61.018000
291.256978	61.606000
293.737063	60.986000
296.220660	62.546000
298.699414	61.510000
301.179592	60.986000
303.657017	61.769000
306.133779	60.897000
308.609878	61.082000
311.083228	59.698000
313.555916	60.579000
316.027943	61.702000
318.499309	61.955000
320.967931	63.180000
323.435893	62.725000
325.905278	61.043000
328.369840	61.930000
330.837905	62.268000
333.301151	62.669000
335.763740	62.747000
338.225671	61.591000
340.686946	63.408000
343.145487	60.916000
345.605450	62.953000
348.062680	62.193000
350.519256	63.897000
352.975178	60.790000
355.428371	63.159000
357.882985	61.675000
360.332798	62.892000
362.786108	60.842000
365.234618	61.114000
367.682478	61.546000
370.131759	61.907000
372.576247	60.109000
375.022157	59.998000
377.467418	58.561000
379.909960	59.611000
382.351854	60.108000
384.793100	62.174000
387.231631	62.534000
389.671584	60.124000
392.108823	59.163000
394.543350	60.542000
396.981365	60.247000
399.414603	61.069000
401.849263	60.069000
404.279149	60.904000
406.712521	60.443000
409.141123	60.555000
411.569084	59.594000
413.998465	61.559000
416.423081	59.031000
418.849119	60.754000
421.274516	60.616000
423.699273	59.918000
426.119272	61.259000
428.540692	59.885000
430.959415	62.032000
433.379559	62.881000
435.797008	58.598000
438.215877	60.158000
440.632053	61.395000
443.043482	62.683000
445.458387	62.315000
447.870602	59.755000
450.282183	62.427000
452.693130	61.735000
455.101391	62.417000
457.509019	61.760000
459.916016	61.612000
462.322380	60.941000
464.726062	62.830000
467.129114	60.461000
469.531536	60.336000
471.933329	61.909000
474.332443	61.433000
476.732977	61.406000
479.132882	61.787000
481.528064	61.412000
483.926713	60.878000
486.320642	60.637000
488.713945	61.891000
491.106622	60.169000
493.498674	60.912000
495.892145	60.706000
498.280903	61.153000
500.666995	60.737000
503.054507	60.098000
505.441395	60.019000
507.825620	59.720000
510.211264	61.490000
512.594245	58.837000
514.974566	60.971000
517.356306	60.222000
519.735387	59.224000
522.115887	62.075000
524.493729	60.226000
526.868916	61.836000
529.243485	60.155000
531.619473	61.254000
533.992807	60.754000
536.367559	61.204000
538.737626	61.597000
541.107077	61.517000
543.477946	59.202000
545.844135	61.255000
548.211742	60.594000
550.576703	60.556000
552.941051	58.840000
555.304787	60.290000
557.669940	61.021000
560.030420	60.137000
562.392319	62.983000
564.751578	62.220000
567.108198	60.512000
569.468263	60.316000
571.821638	61.358000
574.178457	62.024000
576.532640	61.217000
578.886216	60.928000
581.239183	61.489000
583.589519	58.266000
585.941271	61.185000
588.286347	60.485000
590.636887	58.864000
592.980754	60.817000
595.330081	60.929000
597.674761	59.436000
600.016815	60.458000
602.360287	60.110000
604.701136	60.746000
607.041383	58.972000
609.379009	60.052000
611.720070	60.435000
614.056494	60.204000
616.394334	57.623000
618.729556	60.154000
621.062163	59.645000
623.396186	60.077000
625.727596	58.804000
628.058407	59.678000
630.388620	59.258000
632.718235	59.846000
635.043228	58.817000
637.373662	61.602000
639.699474	58.768000
642.022680	60.921000
644.347301	59.536000
646.669318	59.949000
648.990740	59.506000
651.309559	61.702000
653.629794	59.019000
655.949436	58.691000
658.266477	61.714000
660.582926	61.647000
662.896778	60.787000
665.212044	60.391000
667.524714	59.243000
669.838799	59.448000
672.148284	60.125000
674.459185	60.801000
676.767493	59.292000
679.075213	60.640000
681.384348	60.339000
683.688890	60.065000
685.992845	58.581000
688.296215	60.121000
690.600999	57.506000
692.901197	59.879000
695.202809	60.664000
697.503837	60.608000
699.800282	59.835000
702.098143	59.083000
704.395420	59.644000
706.692114	59.370000
708.984232	60.614000
711.279761	60.195000
713.570717	59.812000
715.863087	59.666000
718.152881	58.906000
720.442096	59.114000
722.730730	59.732000
725.016793	58.775000
727.304269	59.264000
729.589175	57.672000
731.873502	59.708000
734.155261	60.320000
736.438434	58.355000
738.721030	59.251000
740.999071	58.149000
743.278525	59.031000
745.557404	60.011000
747.835707	60.095000
750.109461	58.902000
752.384629	60.476000
754.659223	58.876000
756.931258	59.988000
759.204705	61.501000
761.475595	59.938000
763.743929	61.256000
766.013676	57.749000
768.280869	59.053000
770.547491	61.187000
772.813544	60.534000
775.077044	61.486000
777.341958	58.850000
779.606302	60.777000
781.866117	59.943000
784.127345	60.829000
786.388005	59.897000
788.646118	60.696000
790.901687	60.307000
793.160647	60.341000
795.413108	60.360000
797.670936	59.665000
799.924244	61.159000
802.175013	61.018000
804.427194	61.323000
806.676837	61.755000
808.927891	59.805000
811.174434	60.529000
813.422389	61.208000
815.667810	61.715000
817.914642	60.425000
820.160913	61.494000
822.402680	60.883000
824.647829	60.570000
826.886506	61.413000
829.128566	60.484000
831.366127	61.405000
833.605099	61.240000
835.841545	58.218000
838.079402	60.030000
840.314735	60.664000
842.547543	61.533000
844.781763	60.336000
847.013461	60.391000
849.244604	60.410000
851.475192	60.605000
853.705226	59.854000
855.934705	60.113000
858.159703	60.343000
860.388076	59.733000
862.611970	60.083000
864.837274	60.789000
867.058103	60.146000
869.282304	61.271000
871.502032	62.118000
873.723171	59.234000
875.943759	61.867000
878.161837	62.106000
880.381326	60.697000
882.596348	60.740000
884.810822	60.666000
887.024749	60.510000
889.238128	60.150000
891.450960	60.184000
893.663246	60.538000
895.873029	59.350000
898.082267	60.187000
900.290960	61.006000
902.497154	61.623000
904.704757	60.260000
906.909863	60.816000
909.114425	62.334000
911.316491	59.156000
913.519967	59.295000
915.720949	59.541000
917.921390	60.987000
920.123239	59.587000
922.318696	58.297000
924.517513	60.170000
926.711891	61.427000
928.909627	60.787000
931.102927	58.798000
933.297636	61.940000
935.489859	59.300000
937.681544	61.288000
939.872691	60.193000
942.061355	61.272000
944.249482	60.585000
946.435129	59.931000
948.624128	60.847000
950.808704	60.595000
952.992745	63.140000
955.180136	61.332000
957.359223	61.102000
959.541661	61.062000
961.723565	61.736000
963.902995	61.665000
966.079952	60.618000
968.258316	61.182000
970.438088	60.623000
972.611511	63.099000
974.788280	62.413000
976.960643	61.436000
979.134412	61.553000
981.303778	62.979000
983.476489	61.998000
985.646733	61.506000
987.816449	62.936000
989.985636	62.658000
992.150426	63.102000
994.318557	61.668000
996.482294	62.222000
998.647437	61.716000
1000.810122	61.800000
1002.972280	62.385000
1005.131982	60.800000
1007.291160	62.874000
1009.451744	61.571000
1011.609873	61.153000
1013.767478	61.375000
1015.924560	61.524000
1018.081119	59.015000
1020.233298	63.027000
1022.386883	59.560000
1024.539947	61.371000
1026.690563	62.345000
1028.842584	61.212000
1030.990232	60.125000
1033.141212	61.649000
1035.287821	60.792000
1037.433912	60.186000
1039.579483	60.657000
1041.726460	61.290000
1043.867149	62.735000
1046.011166	58.550000
1048.152743	61.031000
1050.293804	60.531000
1052.436269	60.465000
1054.572455	60.632000
1056.711967	61.003000
1058.847123	60.845000
1060.985604	60.820000
1063.119731	59.575000
1065.253345	61.947000
1067.388364	60.874000
1069.519033	60.241000
1071.651107	61.046000
1073.780752	59.859000
1075.909885	61.682000
1078.038506	61.981000
1080.166616	60.686000
1082.292300	61.303000
1084.417474	62.483000
1086.544052	62.003000
1088.666293	61.668000
1090.789937	63.248000
1092.909248	61.625000
1095.033787	63.084000
1097.152081	62.750000
1099.271780	61.866000
1101.389060	63.889000
1103.505834	62.307000
1105.622101	62.034000
1107.735953	61.723000
1109.851208	61.506000
1111.962141	62.699000
1114.076385	62.434000
1116.186309	63.473000
1118.297637	62.687000
1120.408460	63.514000
1122.514968	62.739000
1124.624784	63.914000
1126.730286	63.099000
1128.837191	63.580000
1130.937881	63.428000
1133.043783	63.150000
1135.145376	62.451000
1137.248372	63.838000
1139.350867	64.440000
1141.447155	63.609000
1143.548651	62.452000
1145.645844	63.044000
1147.742538	63.319000
1149.838734	63.870000
1151.934433	64.524000
1154.029634	63.971000
1156.122438	63.267000
1158.216644	63.708000
1160.304659	63.639000
1162.397872	64.966000
1164.484897	65.632000
1166.575221	63.501000
1168.661258	63.026000
1170.750592	64.716000
1172.833745	64.083000
1174.918301	63.378000
1177.004257	63.780000
1179.085932	63.844000
1181.169009	63.003000
1183.249700	63.481000
1185.329899	65.380000
1187.409607	65.559000
1189.488824	64.842000
1191.565659	65.917000
1193.640113	66.904000
1195.717859	65.347000
1197.791334	64.866000
1199.866210	63.641000
1201.936819	63.865000
1204.008830	66.521000
1206.078464	64.278000
1208.149499	66.620000
1210.220046	66.900000
1212.286332	65.809000
1214.354019	64.192000
1216.419334	65.391000
1218.486049	67.402000
1220.548508	66.795000
1222.614252	67.610000
1224.675743	66.100000
1226.738633	66.617000
1228.799156	66.464000
1230.859195	67.110000
1232.918752	67.645000
1234.975943	67.065000
1237.032653	68.032000
1239.087000	67.599000
1241.144627	68.286000
1243.199892	69.243000
1245.250916	68.378000
1247.303340	66.660000
1249.355284	67.764000
1251.404870	69.283000
1253.453977	68.576000
1255.502606	70.097000
1257.550756	71.082000
1259.598428	68.648000
1261.641869	71.016000
1263.688585	69.849000
1265.732948	69.260000
1267.776835	71.901000
1269.818371	71.937000
1271.857557	69.590000
1273.900015	70.849000
1275.938251	72.160000
1277.977886	71.901000
1280.017046	72.967000
1282.051987	74.035000
1284.088328	71.992000
1286.122323	74.698000
1288.157717	74.325000
1290.188897	75.698000
1292.221476	78.778000
1294.253582	78.752000
1296.283348	81.475000
1298.314512	83.295000
1300.341468	83.453000
1302.369822	87.680000
1304.393972	89.468000
1306.421386	95.784000
1308.444598	102.125000
1310.469208	109.389000
1312.491484	117.789000
1314.515157	132.337000
1316.536497	152.418000
1318.557369	187.803000
1320.577775	243.407000
1322.593986	360.580000
1324.611596	613.468000
1326.626877	1274.956000
1328.645416	2901.065000
1330.659767	5325.362000
1332.671792	5841.924000
1334.687074	3780.959000
1336.698171	1445.420000
1338.710665	571.336000
1340.718976	317.463000
1342.730543	207.390000
1344.736070	155.921000
1346.744853	127.522000
1348.749458	113.171000
1350.757317	104.584000
1352.764714	95.483000
1354.766080	91.122000
1356.768843	85.675000
1358.771145	83.111000
1360.772988	80.959000
1362.774371	79.859000
1364.773441	78.430000
1366.772052	77.623000
1368.770205	76.153000
1370.767900	75.294000
1372.761431	72.515000
1374.756359	73.205000
1376.750830	73.838000
1378.744844	73.243000
1380.736551	71.248000
1382.727802	72.305000
1384.716748	69.056000
1386.707089	71.479000
1388.696975	69.369000
1390.684558	71.610000
1392.671686	69.563000
1394.656514	71.076000
1396.642735	71.027000
1398.626657	69.804000
1400.610126	69.671000
1402.593143	71.307000
1404.573861	69.365000
1406.555975	71.171000
1408.535791	69.939000
1410.515157	71.721000
1412.490383	70.538000
1414.468849	71.913000
1416.445020	69.500000
1418.420743	70.629000
1420.396016	71.164000
1422.368998	71.777000
1424.341532	70.455000
1426.313619	70.286000
1428.285257	70.797000
1430.252767	71.898000
1432.225352	70.598000
1434.190130	71.645000
1436.159981	71.612000
1438.125707	71.576000
1440.092826	73.197000
1442.057662	72.166000
1444.018379	73.223000
1445.984163	71.595000
1447.943992	71.357000
1449.905214	70.641000
1451.867829	71.116000
1453.826329	72.583000
1455.784387	71.901000
1457.742002	71.675000
1459.699176	70.657000
1461.654074	73.028000
1463.610364	71.377000
1465.564380	72.084000
1467.517956	71.812000
1469.469259	72.479000
1471.421954	70.926000
1473.372378	69.236000
1475.322363	70.858000
1477.271908	71.153000
1479.219185	70.570000
1481.164195	68.783000
1483.110596	71.370000
1485.056561	69.891000
1487.002087	70.975000
1488.945349	70.855000
1490.888174	70.385000
1492.828736	70.247000
1494.770689	71.753000
1496.710381	70.927000
1498.649637	71.340000
1500.588458	70.488000
1502.525020	71.608000
1504.462973	72.728000
1506.398668	72.544000
1508.333929	71.302000
1510.266933	71.018000
1512.199505	70.497000
1514.131645	71.858000
1516.063353	69.343000
1517.992807	72.811000
1519.923652	72.948000
1521.854066	71.140000
1523.780406	72.760000
1525.708138	71.317000
1527.633619	73.928000
1529.558671	71.918000
1531.483294	73.484000
1533.407488	73.354000
1535.329435	72.969000
1537.252771	73.704000
1539.173862	71.387000
1541.092708	74.089000
1543.012944	73.280000
1544.930936	72.211000
1546.848502	73.201000
1548.763826	71.760000
1550.680540	72.717000
1552.593199	73.420000
1554.509062	72.330000
1556.422685	71.662000
1558.334071	73.236000
1560.246845	71.786000
1562.155570	70.673000
1564.065685	72.039000
1565.975376	71.894000
1567.884643	71.849000
1569.791677	72.399000
1571.696478	71.536000
1573.602668	71.394000
1575.506626	71.222000
1577.410164	72.650000
1579.313280	69.644000
1581.214168	72.904000
1583.116443	71.356000
1585.016491	73.361000
1586.917926	70.320000
1588.815328	70.087000
1590.712311	70.406000
1592.608876	71.405000
1594.506829	72.941000
1596.398947	72.527000
1598.294258	70.871000
1600.189152	71.985000
1602.081824	72.100000
1603.974080	70.764000
1605.864115	72.055000
1607.753736	71.381000
1609.642940	70.414000
1611.531730	72.095000
1613.418303	71.268000
1615.306262	73.824000
1617.190205	73.029000
1619.075536	71.725000
1620.960452	72.484000
1622.843155	71.451000
1624.727245	70.228000
1626.607324	73.380000
1628.488789	71.424000
1630.368044	71.220000
1632.248685	72.001000
1634.123522	72.948000
1636.003341	71.990000
1637.879154	72.690000
1639.754557	71.986000
1641.631347	71.649000
1643.502339	72.059000
1645.376513	73.056000
1647.246689	71.724000
1649.120045	74.026000
1650.991198	73.132000
1652.860149	71.899000
1654.730486	73.459000
1656.596829	72.723000
1658.464558	71.700000
1660.330089	73.348000
1662.197004	73.086000
1664.059931	71.861000
1665.924243	71.703000
1667.786359	70.783000
1669.648071	72.343000
1671.511167	71.079000
1673.372069	71.763000
1675.230777	71.423000
1677.089082	70.046000
1678.948772	71.054000
1680.802695	71.742000
1682.659790	72.306000
1684.516483	72.755000
1686.369200	71.937000
1688.225087	70.541000
1690.077001	71.520000
1691.928514	72.588000
1693.779626	73.514000
1695.630338	71.747000
1697.480649	71.552000
1699.328776	71.313000
1701.178286	72.054000
1703.022048	69.173000
1704.870759	71.734000
1706.713725	71.945000
1708.559856	74.266000
1710.402026	71.568000
1712.247360	72.915000
1714.086954	71.488000
1715.927932	72.587000
1717.770293	73.167000
1719.608698	70.656000
1721.448486	73.547000
1723.286099	71.421000
1725.123316	71.073000
1726.958360	72.914000
1728.794787	71.931000
1730.629042	73.506000
1732.462902	71.813000
1734.296369	71.408000
1736.125889	72.643000
1737.958568	72.627000
1739.787303	72.133000
1741.619196	71.826000
1743.447146	72.537000
1745.274704	71.164000
1747.101870	73.225000
1748.928645	73.892000
1750.755029	73.004000
1752.577476	74.769000
1754.403077	72.744000
1756.224744	73.356000
1758.047793	74.040000
1759.868681	72.195000
1761.689179	73.762000
1763.511059	74.199000
1765.327239	73.911000
1767.146571	74.916000
1768.961976	73.790000
1770.780531	74.576000
1772.595161	75.521000
1774.409405	75.750000
1776.223261	73.589000
1778.036731	75.277000
1779.848048	75.171000
1781.660746	74.618000
1783.473057	74.038000
1785.281451	74.936000
1787.091226	75.611000
1788.897085	74.204000
1790.706090	77.022000
1792.511182	75.581000
1794.317655	75.340000
1796.123744	77.265000
1797.925923	75.435000
1799.731245	76.636000
1801.532659	73.720000
1803.335453	77.560000
1805.134341	76.024000
1806.934610	77.177000
1808.734497	76.935000
1810.532243	77.824000
1812.329607	76.543000
1814.126592	78.191000
1815.923196	77.123000
1817.717661	78.529000
1819.513505	75.955000
1821.303695	76.714000
1823.098781	76.315000
1824.888214	77.812000
1826.680784	76.799000
1828.471219	77.383000
1830.259520	78.160000
1832.050956	77.847000
1833.836746	79.022000
1835.623916	79.796000
1837.408954	79.216000
1839.197126	79.303000
1840.981412	78.291000
1842.763569	78.034000
1844.547104	79.462000
1846.328511	79.270000
1848.111297	78.849000
1849.890203	79.519000
1851.670487	79.384000
1853.448645	78.531000
1855.228182	80.099000
1857.005594	79.169000
1858.780882	79.598000
1860.557549	80.630000
1862.332092	80.662000
1864.108014	80.926000
1865.878316	79.845000
1867.651744	81.441000
1869.423053	81.522000
1871.193992	81.107000
1872.966307	82.915000
1874.733010	80.895000
1876.502837	82.159000
1878.268801	81.298000
1880.037889	83.303000
1881.803115	81.867000
1883.567972	81.645000
1885.334207	83.202000
1887.096583	82.113000
1888.858592	82.178000
1890.620233	81.768000
1892.381508	80.539000
1894.142415	82.310000
1895.902956	82.814000
1897.661387	82.363000
1899.419453	81.214000
1901.175410	82.933000
1902.932745	82.647000
1904.689713	83.627000
1906.444576	82.922000
1908.197333	83.250000
1909.949727	82.439000
1911.703496	82.356000
1913.455162	83.968000
1915.204726	82.232000
1916.955666	82.434000
1918.706242	83.014000
1920.452979	84.285000
1922.201093	84.081000
1923.947107	83.940000
1925.694497	84.374000
1927.439788	83.186000
1929.182982	84.172000
1930.927552	84.313000
1932.670025	84.766000
1934.412138	85.059000
1936.153891	85.130000
1937.895285	84.657000
1939.634585	84.891000
1941.373525	85.225000
1943.112108	86.903000
1944.848598	85.222000
1946.584731	85.964500
1948.322238	86.707000
1950.055923	86.112000
1951.790983	87.847000
1953.523955	87.325000
1955.256570	86.357000
1956.988828	88.586000
1958.720730	87.148000
1960.450546	88.141000
1962.178278	88.695000
1963.907383	86.131000
1965.636134	88.514000
1967.362801	89.088000
1969.089114	87.906000
1970.816800	88.442000
1972.538950	88.408000
1974.264201	89.551000
1975.985646	90.074000
1977.710190	89.358000
1979.432655	88.852000
1981.151316	90.998000
1982.873076	90.962000
1984.591034	91.646000
1986.310365	91.215000
1988.025897	90.918000
1989.746250	91.423000
1991.462803	92.368000
1993.175561	92.444000
1994.891414	94.083000
1996.605194	92.224000
1998.318625	92.864000
2000.029985	94.760000
2001.742718	92.859000
2003.451659	93.510000
2005.163694	93.657000
2006.870219	93.660000
2008.579837	92.960000
2010.287387	94.903000
2011.994590	94.541000
2013.699727	95.259000
2015.404517	95.092000
2017.110679	96.340000
2018.813059	96.008000
2020.516811	96.337000
2022.218499	96.884000
2023.919843	97.026000
2025.620841	96.202000
2027.319779	96.460000
2029.020087	94.789000
2030.716621	97.187000
2032.414526	96.208000
2034.110372	97.547000
2035.809304	97.058000
2037.502750	98.282000
2039.197568	97.083000
2040.892042	98.441000
2042.582748	97.741000
2044.276538	99.836000
2045.966561	99.210000
2047.657955	99.411000
2049.347296	98.813000
2051.038007	99.794000
2052.724956	99.917000
2054.411564	99.258000
2056.099543	100.837000
2057.783762	97.788000
2059.469351	97.850000
2061.154601	100.853000
2062.837803	100.303000
2064.522374	99.747000
2066.201483	98.243000
2067.885377	99.602000
2069.563811	99.602000
2071.245321	98.293000
2072.923081	97.625000
2074.600503	99.169000
2076.279296	99.674000
2077.956045	97.888000
2079.630753	101.533000
2081.306830	101.152000
2082.980867	100.379000
2084.654568	101.327000
2086.327934	99.233000
2087.999262	101.087000
2089.670255	100.952000
2091.340914	100.280000
2093.011238	102.335000
2094.681229	101.316000
2096.349184	102.586000
2098.016806	101.321000
2099.682393	101.671000
2101.349350	103.100000
2103.014272	102.542000
2104.678863	104.070000
2106.341422	103.205000
2108.005349	105.597000
2109.667246	103.755000
2111.328811	106.394000
2112.990045	105.605000
2114.649251	105.290000
2116.308126	106.120000
2117.966672	105.625000
2119.624888	106.677000
2121.279380	106.503000
2122.936937	104.927000
2124.594165	105.905000
2126.247671	107.325000
2127.902545	106.534000
2129.553701	108.912000
2131.207918	107.099000
2132.858419	109.678000
2134.510286	106.315000
2136.156745	106.523000
2137.807959	108.339000
2139.455459	108.103000
2141.104326	110.388000
2142.751175	109.561000
2144.397697	110.750000
2146.043894	109.785000
2147.686383	110.720000
2149.331930	111.846000
2150.973770	110.642000
2152.618667	109.498000
2154.259859	111.351000
2155.900727	109.293000
2157.541271	111.034000
2159.179803	112.200000
2160.819702	112.751000
2162.455900	111.882000
2164.093464	110.188000
2165.730705	111.503000
2167.365937	111.925000
2169.000848	111.988000
2170.635437	112.258000
2172.269704	113.142000
2173.900279	113.658000
2175.533904	113.822000
2177.163838	111.934000
2178.795137	112.968000
2180.424432	114.604000
2182.053406	113.265000
2183.682062	114.282000
2185.310398	114.474000
2186.936731	113.468000
2188.562746	115.416000
2190.186760	112.220000
2191.812138	113.639000
2193.435517	112.455000
2195.060259	112.297000
2196.681321	112.905000
2198.302066	112.436000
2199.924176	114.045000
2201.544288	115.256000
2203.162403	114.794000
2204.780203	112.784000
2206.397688	113.202000
2208.014857	115.575000
2209.631711	115.255000
2211.248250	114.038000
2212.862795	117.851000
2214.475348	116.546000
2216.089265	114.827000
2217.701191	118.215000
2219.314480	114.979000
2220.925779	117.060000
2222.535088	115.386000
2224.145761	117.236000
2225.754445	117.557000
2227.362817	116.455000
2228.969201	117.360000
2230.576949	117.015000
2232.182710	117.861000
2233.788160	117.173000
2235.391625	117.507000
2236.996454	118.077000
2238.599298	119.745000
2240.200159	119.819000
2241.802383	119.157000
2243.402624	120.645000
2245.004228	118.680000
2246.602180	120.408000
2248.201494	121.027000
2249.798828	121.771000
2251.395853	121.186000
2252.994241	121.254000
2254.588980	122.962000
2256.181742	121.995000
2257.775867	119.834000
2259.371353	120.627000
2260.963195	122.772000
2262.554730	121.957000
2264.147626	122.627000
2265.735213	123.846000
2267.327497	122.703000
2268.914473	123.129000
2270.504478	124.577000
2272.089178	122.468000
2273.678572	124.271000
2275.262663	122.486000
2276.848116	124.395000
2278.431599	122.802000
2280.018109	122.052000
2281.600985	122.185000
2283.183557	123.599000
2284.765826	121.953000
2286.344466	124.689000
2287.926129	123.841000
2289.504164	124.506000
2291.085222	125.081000
2292.662654	124.402000
2294.238121	123.723000
2295.816611	124.058000
2297.391477	125.799000
2298.966042	123.431000
2300.540307	124.582000
2302.114271	124.963000
2303.687935	124.276000
2305.261298	124.736000
2306.831043	124.939000
2308.400489	124.207000
2309.972954	126.383000
2311.540143	125.464000
2313.110351	126.775000
2314.676944	127.613000
2316.244897	126.348000
2317.810894	127.134000
2319.376594	127.071000
2320.941997	130.297000
2322.505445	126.376000
2324.070253	129.014000
2325.631453	131.436000
2327.195667	129.761000
2328.754620	130.399000
2330.316586	131.032000
2331.876602	131.420000
2333.436322	132.175000
2334.994093	133.856000
2336.551569	132.849000
2338.108751	133.569000
2339.663986	134.789000
2341.218926	131.962000
2342.773573	132.030000
2344.327926	133.587000
2345.881985	134.946000
2347.435750	134.442000
2348.987572	135.211000
2350.537450	134.196000
2352.090336	135.214000
2353.637980	135.918000
2355.188631	133.202000
2356.735692	135.632000
2358.284110	135.450000
2359.832236	135.335000
2361.376774	135.374000
2362.922671	136.319000
2364.466628	136.389000
2366.011943	134.883000
2367.553673	136.657000
2369.096760	137.526000
2370.637912	137.816000
2372.178774	138.052000
2373.719347	138.572000
2375.259631	139.649000
2376.799625	139.714000
2378.336042	139.352000
2379.875460	138.457000
2381.411301	142.742000
2382.948498	139.389000
2384.482120	140.208000
2386.018743	142.157000
2387.553434	140.993000
2389.086196	139.777000
2390.618671	142.608000
2392.149219	141.961000
2393.682764	144.395000
2395.211098	143.239000
2396.740788	143.711000
2398.270193	144.383000
2399.799312	144.015000
2401.328147	147.089000
2402.851776	144.871000
2404.380042	148.136000
2405.903104	147.101000
2407.430800	148.083000
2408.951657	148.627000
2410.477147	150.217000
2411.999076	149.248000
2413.522361	151.933000
2415.043725	150.780000
2416.563169	151.152000
2418.083968	152.161000
2419.602848	151.286000
2421.121446	152.384000
2422.638127	150.902000
2424.156162	151.077000
2425.673916	153.023000
2427.188119	155.892000
2428.702041	155.544000
2430.215683	156.138000
2431.730680	156.321000
2433.242128	155.944000
2434.754931	157.997000
2436.265821	158.784000
2437.776431	158.800000
2439.285130	159.700000
2440.796816	159.561000
2442.304957	160.793000
2443.812821	159.589000
2445.320407	161.731000
2446.824452	162.939000
2448.331483	162.139000
2449.836605	164.923000
2451.341450	164.456000
2452.844388	166.889000
2454.347049	165.244000
2455.849434	168.476000
2457.349914	168.675000
2458.851747	166.834000
2460.351676	167.534000
2461.851329	167.946000
2463.350706	170.107000
2464.848181	170.990000
2466.343755	170.380000
2467.842308	172.864000
2469.337332	171.965000
2470.833710	174.183000
2472.326561	170.693000
2473.820764	173.018000
2475.314694	172.953000
2476.805101	175.858000
2478.298484	175.758000
2479.789970	175.313000
2481.279559	174.372000
2482.768876	173.725000
2484.256298	176.209000
2485.746695	175.425000
2487.233573	177.015000
2488.721803	178.281000
2490.206517	176.390000
2491.690960	176.681000
2493.176755	178.332000
2494.660657	174.376000
2496.145911	177.833000
2497.626031	176.213000
2499.109123	178.420000
2500.590325	178.610000
2502.071258	176.971000
2503.550302	177.128000
2505.029077	175.617000
2506.507584	174.908000
2507.985823	176.032000
2509.463793	176.276000
2510.938259	174.504000
2512.415693	172.791000
2513.889624	174.924000
2515.364906	174.202000
2516.839920	173.766000
2518.311433	173.342000
2519.784296	172.724000
2521.255277	173.279000
2522.727608	172.161000
2524.194826	173.323000
2525.665009	170.839000
2527.133312	170.949000
2528.601350	173.208000
2530.069123	170.396000
2531.536631	172.432000
2533.003874	171.150000
2534.467625	170.592000
2535.932726	172.743000
2537.395950	170.633000
2538.860524	172.418000
2540.321608	171.364000
2541.784042	172.452000
2543.246213	170.748000
2544.704898	173.598000
2546.168155	172.440000
2547.626315	173.493000
2549.085824	173.439000
2550.540240	172.997000
2551.999225	174.240000
2553.456339	173.756000
2554.911582	173.959000
2556.366564	172.474000
2557.819676	174.004000
2559.274137	175.849000
2560.726729	171.805000
2562.179061	174.758000
2563.629525	175.629000
2565.082945	174.953000
2566.531283	175.452000
2567.982577	175.926000
2569.432004	175.999000
2570.877959	176.117000
2572.326870	177.147000
2573.772309	177.774000
2575.219097	180.332000
2576.664021	178.411000
2578.108688	179.762000
2579.554702	179.128000
2580.997249	179.911000
2582.441144	180.058000
2583.881574	179.311000
2585.323351	176.398000
2586.763269	179.994000
2588.204534	179.883000
2589.642338	180.318000
2591.083091	181.827000
2592.518781	180.687000
2593.957421	183.033000
2595.394204	180.728000
2596.829130	182.943000
2598.267005	181.268000
2599.699821	185.804000
2601.133985	181.412000
2602.566295	184.296000
2603.999951	182.791000
2605.431754	183.118000
2606.863304	185.203000
2608.294600	182.821000
2609.724044	186.410000
2611.153237	184.319000
2612.580578	184.812000
2614.009266	184.841000
2615.437701	185.167000
2616.862689	186.122000
2618.289024	186.660000
2619.713510	187.419000
2621.139342	185.262000
2622.561730	188.828000
2623.985464	188.528000
2625.407351	187.852000
2626.828989	187.831000
2628.248781	186.905000
2629.669919	188.635000
2631.090807	187.933000
2632.508257	186.921000
2633.928646	189.707000
2635.345598	186.993000
2636.762302	189.023000
2638.178757	187.217000
2639.594964	191.431000
2641.010922	189.184000
2642.425040	188.061000
2643.838911	189.819000
2645.250942	187.798000
2646.664318	189.450000
2648.074264	188.939000
2649.487145	189.465000
2650.896599	189.101000
2652.305806	191.052000
2653.713177	193.409000
2655.123482	192.333000
2656.531951	189.703000
2657.938585	191.855000
2659.344974	191.174000
2660.749529	193.803000
2662.155428	193.897000
2663.559494	193.906000
2664.963316	192.835000
2666.366893	190.832000
2667.768638	193.473000
2669.171727	193.962000
2670.571399	194.299000
2671.972413	191.985000
2673.370012	192.609000
2674.770541	191.380000
2676.167655	192.609000
2677.566112	192.207000
2678.962741	189.451000
2680.359128	191.243000
2681.755274	192.548000
2683.149593	189.385000
2684.545255	190.851000
2685.937507	189.880000
2687.331103	190.424000
2688.722874	191.086000
2690.115987	190.116000
2691.507277	189.968000
2692.896744	189.001000
2694.285971	189.512000
2695.674959	191.831000
2697.065289	191.539000
2698.450634	192.484000
2699.838903	189.389000
2701.225352	189.508000
2702.611562	192.674000
2703.997534	189.614000
2705.380106	191.645000
2706.764021	192.511000
2708.147698	191.306000
2709.531137	193.716000
2710.911180	191.904000
2712.292565	194.206000
2713.672134	195.026000
2715.053045	193.903000
2716.432141	194.204000
2717.809422	194.624000
2719.188045	196.499000
2720.564855	196.291000
2721.941429	196.014000
2723.317767	197.310000
2724.692293	195.902000
2726.068160	198.644000
2727.440640	195.374000
2728.816036	199.653000
2730.186472	197.158000
2731.558249	197.494000
2732.929791	199.402000
2734.299525	200.670000
2735.670600	199.855000
2737.039867	201.240000
2738.408900	200.606000
2739.776126	201.196000
2741.143120	202.173000
2742.509881	200.717000
2743.876409	201.334000
2745.241132	203.106000
2746.605624	203.490000
2747.969883	202.601000
2749.333910	202.666000
2750.697706	202.294000
2752.058128	207.058000
2753.421461	204.984000
2754.779851	204.999000
2756.141151	205.951000
2757.499080	206.396000
2758.859919	203.366000
2760.218957	205.554000
2761.574627	205.199000
2762.933205	203.753000
2764.288417	204.749000
2765.643399	205.143000
2766.996584	206.881000
2768.352676	206.654000
2769.705404	208.126000
2771.057903	209.175000
2772.410174	208.228000
2773.763784	207.908000
2775.114032	208.732000
2776.462487	210.101000
2777.813846	208.672000
2779.161846	210.530000
2780.511185	210.195000
2781.858731	209.525000
2783.206050	211.471000
2784.553143	211.155000
2785.898445	214.302000
2787.243521	213.450000
2788.588371	213.408000
2789.932994	213.603000
2791.274266	212.088000
2792.616876	215.267000
2793.959260	216.264000
2795.301420	215.812000
2796.640230	217.035000
2797.981939	217.251000
2799.320301	218.810000
2800.660000	217.300000
2801.997913	219.541000
2803.334042	217.198000
2804.669947	219.888000
2806.007190	219.157000
2807.342649	218.879000
2808.677885	221.374000
2810.011338	220.551000
2811.346129	222.487000
2812.677578	222.520000
2814.011923	224.084000
2815.341370	220.980000
2816.672154	225.647000
2818.002716	223.348000
2819.331499	223.675000
2820.661618	226.677000
2821.989959	226.347000
2823.318079	227.056000
2824.644422	224.982000
2825.972100	225.979000
2827.296446	225.955000
2828.622127	225.389000
2829.946033	226.827000
2831.269720	225.131000
2832.594742	224.370000
2833.916434	226.939000
2835.237908	225.732000
2836.559163	226.566000
2837.880199	227.990000
2839.199463	227.895000
2840.520062	230.682000
2841.838889	227.529000
2843.157498	230.261000
2844.474336	227.308000
2845.790958	226.783000
2847.107361	227.617000
2848.421996	228.865000
2849.737965	228.907000
2851.050614	230.213000
2852.364599	229.564000
2853.678366	231.117000
2854.991918	229.443000
2856.303702	233.453000
2857.613720	231.676000
2858.925073	230.272000
2860.233111	231.857000
2861.542484	233.197000
2862.851641	234.405000
2864.160583	230.959000
2865.467762	235.703000
2866.773177	232.805000
2868.079927	236.102000
2869.384914	233.384000
2870.689688	235.884000
2871.992700	237.508000
2873.298594	237.851000
2874.599632	238.142000
2875.902005	236.787000
2877.202618	238.021000
2878.504565	238.937000
2879.806299	235.614000
2881.104728	239.972000
2882.404492	236.616000
2883.702497	237.319000
2885.000291	239.345000
2886.296329	238.156000
2887.593700	238.231000
2888.889315	239.053000
2890.184719	238.617000
2891.479913	240.282000
2892.771808	240.092000
2894.066580	237.749000
2895.358055	240.274000
2896.650863	239.620000
2897.943461	241.775000
2899.232765	239.176000
2900.523401	241.046000
2901.812286	241.134000
2903.102504	240.914000
2904.389430	241.960000
2905.677688	243.196000
2906.964196	240.284000
2908.250497	242.679000
2909.536589	244.098000
2910.820933	241.089000
2912.108149	241.864000
2913.390537	243.149000
2914.674258	242.077000
2915.956233	242.490000
2917.238001	243.233000
2918.518023	243.661000
2919.800915	243.802000
2921.082062	245.481000
2922.359927	244.797000
2923.640661	245.598000
2924.918114	244.451000
2926.195361	246.078000
2927.470867	244.281000
2928.749240	245.262000
2930.022798	243.584000
2931.299224	246.054000
2932.573909	247.067000
2933.846854	243.698000
2935.121129	248.303000
2936.393665	248.925000
2937.665997	247.267000
2938.935055	246.175000
2940.206979	245.502000
2941.477165	248.219000
2942.747148	247.583000
2944.016927	248.766000
2945.284969	248.771000
2946.551276	247.120000
2947.817380	250.559000
2949.084814	250.612000
2950.350514	249.465000
2951.616011	251.252000
2952.881306	249.067000
2954.143336	249.631000
2955.406697	251.970000
2956.669855	252.289000
2957.931282	252.485000
2959.194038	250.327000
2960.455063	252.390000
2961.714356	252.048000
2962.973450	253.254000
2964.232343	254.964000
2965.491036	253.014000
2966.749529	252.638000
2968.006293	254.062000
2969.262857	255.080000
2970.517694	255.987000
2971.773860	257.896000
2973.026770	258.515000
2974.281010	257.835000
2975.535051	259.156000
2976.787366	257.305000
2978.039483	261.072000
2979.289875	258.767000
2980.543122	262.020000
2981.791592	260.254000
2983.042916	263.875000
2984.290992	264.686000
2985.538870	262.961000
2986.786551	261.723000
2988.034036	263.832000
2989.279799	264.453000
2990.525365	263.924000
2991.772259	268.080000
2993.015909	265.297000
2994.260887	266.922000
2995.502622	267.869000
2996.747208	267.170000
2997.990074	267.314000
2999.229700	268.974000
3000.472176	269.614000
3001.711413	269.164000
3002.951977	269.011000
3004.190824	271.710000
3005.429477	269.512000
3006.666414	272.035000
3007.904678	270.246000
3009.141228	273.848000
3010.377583	273.161000
3011.613745	273.758000
3012.848194	274.624000
3014.082449	274.048000
3015.316511	275.879000
3016.548861	274.764000
3017.779499	275.994000
3019.012983	274.450000
3020.244755	278.859000
3021.474817	279.454000
3022.704687	280.546000
3023.932847	275.059000
3025.162333	281.003000
3026.390111	281.681000
3027.617697	280.143000
3028.846609	281.526000
3030.070779	281.432000
3031.297792	283.366000
3032.521581	283.083000
3033.746697	282.400000
3034.970106	282.313000
3036.193326	282.430000
3037.414840	284.481000
3038.639195	282.812000
3039.858815	286.545000
3041.079760	286.921000
3042.300517	286.412000
3043.519570	289.192000
3044.739949	286.591000
3045.957111	287.921000
3047.175598	287.470000
3048.392384	291.758000
3049.608981	292.497000
3050.825390	289.878000
3052.038587	291.840000
3053.254621	291.997000
3054.467443	293.307000
3055.683102	292.247000
3056.894038	292.984000
3058.106299	291.961000
3059.318374	292.716000
3060.530262	293.022000
3061.740452	295.686000
3062.950456	296.017000
3064.160275	295.486000
3065.368397	293.985000
3066.576333	296.002000
3067.782575	299.698000
3068.990140	298.273000
3070.196012	299.144000
3071.401698	300.015000
3072.607199	298.671000
3073.811007	298.935000
3075.016139	299.421000
3076.219579	305.077000
3077.421326	302.202000
3078.622890	302.015000
3079.824270	302.632000
3081.025466	304.838000
3082.224972	303.553000
3083.424294	304.162000
3084.624940	303.178000
3085.823896	304.828000
3087.019658	304.250000
3088.218249	305.532000
3089.413646	305.497000
3090.610366	306.543000
3091.803894	306.379000
3093.000251	307.600000
3094.194920	307.712000
3095.386399	307.711000
3096.582209	308.727000
3097.773326	305.810000
3098.965765	306.856000
3100.155017	310.361000
3101.347095	309.558000
3102.537488	306.597000
3103.724696	311.613000
3104.913227	310.935000
3106.103080	310.327000
3107.289748	308.387000
3108.476237	310.802000
3109.662546	311.635000
3110.850177	310.568000
3112.034627	311.074000
3113.217396	306.738000
3114.402989	310.011000
3115.586901	309.167000
3116.769135	312.312000
3117.951190	311.367000
3119.133068	311.098000
3120.314767	311.583000
3121.494788	312.543000
3122.673133	313.207000
3123.854299	315.047000
3125.032289	315.947000
3126.210102	314.595000
3127.387738	313.836000
3128.563699	314.014000
3129.739483	315.396000
3130.916589	313.978000
3132.092020	315.684000
3133.265778	314.801000
3134.437864	316.207000
3135.611270	314.605000
3136.784501	320.467000
3137.956059	316.727000
3139.128939	319.971000
3140.298651	318.002000
3141.469684	320.095000
3142.639046	322.759000
3143.806739	320.462000
3144.977247	321.460000
3146.143096	322.157000
3147.313255	319.421000
3148.478756	319.201000
3149.644084	318.811000
3150.809238	318.860000
3151.974218	322.343000
3153.140519	321.491000
3154.302166	321.346000
3155.465134	318.531000
3156.627928	316.579000
3157.790550	317.792000
3158.951507	313.128000
3160.112291	314.575000
3161.272903	313.562000
3162.431852	313.742000
3163.590628	313.397000
3164.749233	314.176000
3165.907666	311.664000
3167.065927	316.000000
3168.222526	314.899000
3169.377464	313.394000
3170.533721	315.658000
3171.688318	313.324000
3172.842743	317.456000
3173.995509	315.809000
3175.148105	315.079000
3176.300530	314.227000
3177.452786	318.231000
3178.604872	315.822000
3179.753811	317.097000
3180.905557	319.600000
3182.055645	318.385000
3183.204077	322.990000
3184.352340	319.438000
3185.500433	324.574000
3186.648358	325.273000
3187.794628	324.966000
3188.940729	327.385000
3190.085175	328.340000
3191.229454	328.419000
3192.373565	329.327000
3193.518994	325.466000
3194.661283	328.082000
3195.803406	327.517000
3196.945361	332.155000
3198.087150	328.797000
3199.228771	329.591000
3200.367256	332.140000
3201.507059	330.767000
3202.648180	330.977000
3203.786166	331.815000
3204.922503	333.141000
3206.058674	332.819000
3207.196163	334.342000
3208.332002	332.325000
3209.469159	334.139000
3210.601703	332.137000
3211.738529	335.504000
3212.870743	334.726000
3214.004275	334.490000
3215.137641	330.011000
3216.267880	330.640000
3217.400917	330.106000
3218.530828	327.941000
3219.662056	327.087000
3220.790158	325.783000
3221.921057	325.505000
3223.050313	326.224000
3224.177924	327.246000
3225.302414	327.778000
3226.431179	329.676000
3227.556822	324.727000
3228.682302	327.171000
3229.806141	327.965000
3230.932774	326.008000
3232.054810	331.518000
3233.178162	329.476000
3234.301352	330.307000
3235.424380	326.525000
3236.545768	329.176000
3237.666995	329.215000
3238.786583	330.922000
3239.906010	326.133000
3241.023799	331.647000
3242.144381	330.634000
3243.261848	333.297000
3244.379156	336.065000
3245.496302	334.838000
3246.611813	337.016000
3247.728639	341.262000
3248.842354	338.487000
3249.958860	340.222000
3251.073730	340.356000
3252.185492	342.100000
3253.297095	342.205000
3254.410012	340.660000
3255.522771	338.713000
3256.632423	343.668000
3257.743390	343.277000
3258.854197	340.662000
3259.963374	342.479000
3261.070919	346.273000
3262.179779	341.256000
3263.288480	344.858000
3264.394079	345.079000
3265.500992	347.379000
3266.606277	344.652000
3267.712875	346.867000
3268.816373	346.358000
3269.921185	346.863000
3271.025840	345.945000
3272.127396	347.804000
3273.228797	350.069000
3274.331511	347.547000
3275.434068	346.468000
3276.533530	351.300000
3277.635774	349.327000
3278.734923	349.165000
3279.832448	349.465000
3280.929817	350.536000
3282.029969	350.455000
3283.127027	349.336000
3284.223930	349.133000
3285.320679	348.819000
3286.412868	349.662000
3287.509306	348.840000
3288.604123	349.498000
3289.698784	352.322000
3290.791824	347.936000
3291.884710	353.905000
3292.975975	352.407000
3294.068553	348.834000
3295.159510	354.110000
3296.248848	351.227000
3297.338033	351.384000
3298.428531	352.787000
3299.515944	353.642000
3300.603205	353.088000
3301.691778	353.250000
3302.780198	356.138000
3303.864071	352.247000
3304.952186	354.448000
3306.037220	358.460000
3307.120637	357.196000
3308.205367	356.349000
3309.288482	359.861000
3310.372908	360.376000
3311.454256	356.616000
3312.536916	361.113000
3313.617962	358.779000
3314.698857	361.364000
3315.778139	359.700000
3316.857270	361.965000
3317.937712	359.463000
3319.015081	358.303000
3320.093760	362.951000
3321.170829	361.970000
3322.247747	365.152000
3323.323054	361.481000
3324.398212	363.085000
3325.474681	365.745000
3326.548080	363.197000
3327.621330	362.613000
3328.695891	362.881000
3329.768842	364.826000
3330.840186	365.570000
3331.912840	365.089000
3332.982427	361.798000
3334.053325	364.940000
3335.122616	362.096000
3336.193218	363.318000
3337.262213	364.466000
3338.329602	362.802000
3339.395386	363.710000
3340.465396	364.620000
3341.532343	363.962000
3342.596228	363.075000
3343.662881	364.565000
3344.727929	362.571000
3345.791374	365.730000
3346.854673	365.098000
3347.917826	364.850000
3348.980832	365.171000
3350.043691	364.077000
3351.104949	363.286000
3352.163150	365.183000
3353.225572	366.755000
3354.284937	364.822000
3355.344157	365.238000
3356.404687	364.581000
3357.460707	370.322000
3358.519492	370.900000
3359.573769	371.956000
3360.630809	371.801000
3361.686252	372.284000
3362.743003	372.653000
3363.798157	374.202000
3364.851713	376.043000
3365.903672	374.579000
3366.958393	377.556000
3368.010065	377.065000
3369.061594	377.328000
3370.114432	377.801000
3371.164222	378.732000
3372.215320	375.195000
3373.263373	377.060000
3374.314186	378.138000
3375.361953	377.601000
3376.409578	381.682000
3377.457060	381.493000
3378.502950	381.099000
3379.550148	378.507000
3380.594304	379.834000
3381.641218	383.461000
3382.686540	379.073000
3383.728822	381.032000
3384.770962	380.474000
3385.814410	382.676000
3386.857718	381.523000
3387.899435	379.216000
3388.941011	383.230000
3389.982447	381.907000
3391.022293	381.892000
3392.060552	383.562000
3393.100118	386.811000
3394.139543	387.520000
3395.177381	386.469000
3396.213633	385.302000
3397.249744	384.642000
3398.287163	388.117000
3399.321549	383.222000
3400.357242	385.532000
3401.392796	387.074000
3402.425319	385.386000
3403.460595	388.123000
3404.492840	386.799000
3405.524947	389.694000
3406.555470	389.453000
3407.587301	390.633000
3408.618992	389.414000
3409.647657	390.669000
3410.676183	392.473000
3411.706017	392.060000
3412.735712	392.557000
3413.762382	391.812000
3414.790359	393.579000
3415.815311	391.298000
3416.843013	392.443000
3417.867692	397.447000
3418.893677	397.562000
3419.918082	396.238000
3420.942351	394.421000
3421.965041	396.726000
3422.987595	393.283000
3424.011455	394.255000
3425.032295	395.583000
3426.053000	393.925000
3427.075010	396.518000
3428.094002	391.586000
3429.112859	393.461000
3430.133021	391.660000
3431.150167	396.389000
