-118.106446	0.807000
-115.436846	0.069000
-112.770181	1.557000
-110.104268	-1.052000
-107.441287	-1.796000
-104.776877	0.578000
-102.115397	-0.194000
-99.452487	0.593000
-96.794685	2.667000
-94.135452	-0.287000
-91.476968	1.079000
-88.821409	2.177000
-86.164421	1.672000
-83.512530	0.443000
-80.859210	0.702000
-78.208810	0.411000
-75.556980	0.487000
-72.910241	2.524000
-70.262072	1.149000
-67.614647	1.025000
-64.970135	0.241000
-62.324195	0.370000
-59.683336	1.793000
-57.041048	2.050000
-54.401668	-0.130000
-51.760860	0.007000
-49.120792	0.011000
-46.485796	0.101000
-43.849371	1.158000
-41.215850	3.181000
-38.580900	-0.029000
-35.951015	-0.605000
-33.317538	1.018000
-30.689123	-0.324000
-28.061441	1.237000
-25.432332	0.942000
-22.808279	0.991000
-20.180637	0.289000
-17.558048	0.708000
-14.936191	0.384000
-12.315064	-0.640000
-9.694667	2.886000
-7.077158	3.523000
-4.458221	6.737000
-1.842170	17.722000
0.773153	18.871000
3.387749	9.578000
5.999462	3.054000
8.612604	1.399000
11.220712	1.229000
13.832402	0.815000
16.439061	0.156000
19.047148	0.178000
21.654511	1.277000
24.256849	-0.891000
26.862765	-0.303000
29.463659	-0.260000
32.065981	0.624000
34.663286	1.663000
37.264166	0.208000
39.860032	-0.532000
42.457325	-0.045000
45.053899	1.673000
47.645464	0.926000
50.238457	1.451000
52.828589	0.755000
55.420149	-0.286000
58.008849	-0.154000
60.598976	1.929000
63.184105	0.610000
65.770660	0.650000
68.356502	-0.889000
70.939490	0.093000
73.523905	0.163000
76.101190	2.015000
78.682042	1.288000
81.260045	1.761000
83.837338	0.241000
86.416057	1.175000
88.989795	-0.167000
91.564959	1.702000
94.137280	0.948000
96.708893	0.616000
99.277666	-0.522000
101.847866	0.457000
104.415228	2.262000
106.984015	-0.004000
109.549966	0.260000
112.113082	1.336000
114.679754	0.339000
117.237205	1.104000
119.800341	1.670000
122.358518	2.052000
124.920248	2.884000
127.477023	3.229000
130.035223	6.033000
132.588471	9.194000
135.141020	12.613000
137.697120	16.612000
140.248273	20.076000
142.798727	26.773000
145.348485	30.902000
147.895423	32.965000
150.441665	33.753000
152.989333	35.939000
155.536306	35.516000
158.078342	36.293000
160.619685	35.244000
163.160335	35.546000
165.702411	36.649000
168.241676	37.302000
170.778131	36.437000
173.313896	36.758000
175.851086	35.710000
178.387584	36.557000
180.921277	36.792000
183.452167	36.693000
185.982368	36.097000
188.513994	36.356000
191.042819	37.202000
193.568845	36.783000
196.094186	35.204000
198.620951	37.460000
201.144919	35.978000
203.668203	37.061000
206.190802	37.490000
208.710608	38.585000
211.229731	37.373000
213.748171	36.334000
216.268035	36.577000
218.780898	36.964000
221.297292	36.348000
223.813004	38.420000
226.323827	37.873000
228.836074	37.433000
231.345538	36.878000
233.854324	36.018000
236.362432	36.790000
238.871963	37.989000
241.376615	38.038000
243.880590	36.752000
246.385989	37.939000
248.886513	36.890000
251.390560	37.332000
253.887637	37.382000
256.388236	38.029000
258.886064	37.809000
261.383219	38.108000
263.879701	38.691000
266.371320	38.482000
268.866459	35.650000
271.358832	37.196000
273.850534	39.895000
276.339473	37.610000
278.829835	37.713000
281.317436	37.007000
283.802277	38.567000
286.290632	38.456000
288.772048	37.177000
291.256978	36.873000
293.737063	36.491000
296.220660	36.836000
298.699414	38.934000
301.179592	37.648000
303.657017	36.484000
306.133779	38.312000
308.609878	37.771000
311.083228	37.727000
313.555916	37.327000
316.027943	36.878000
318.499309	38.252000
320.967931	38.485000
323.435893	37.436000
325.905278	38.475000
328.369840	37.123000
330.837905	36.718000
333.301151	38.731000
335.763740	37.528000
338.225671	38.045000
340.686946	39.095000
343.145487	37.272000
345.605450	38.022000
348.062680	37.619000
350.519256	37.875000
352.975178	38.753000
355.428371	36.537000
357.882985	37.372000
360.332798	38.396000
362.786108	38.929000
365.234618	37.053000
367.682478	38.213000
370.131759	36.969000
372.576247	37.889000
375.022157	37.890000
377.467418	36.984000
379.909960	37.723000
382.351854	37.268000
384.793100	37.346000
387.231631	37.632000
389.671584	36.815000
392.108823	37.935000
394.543350	35.278000
396.981365	36.746000
399.414603	36.653000
401.849263	37.180000
404.279149	39.713000
406.712521	38.321000
409.141123	36.208000
411.569084	39.283000
413.998465	38.057000
416.423081	36.790000
418.849119	38.241000
421.274516	38.051000
423.699273	36.894000
426.119272	35.806000
428.540692	37.225000
430.959415	37.851000
433.379559	37.800000
435.797008	40.064000
438.215877	37.258000
440.632053	39.365000
443.043482	37.581000
445.458387	38.873000
447.870602	39.366000
450.282183	38.443000
452.693130	35.490000
455.101391	39.832000
457.509019	36.459000
459.916016	38.276000
462.322380	37.942000
464.726062	38.142000
467.129114	37.250000
469.531536	38.514000
471.933329	37.620000
474.332443	35.718000
476.732977	39.114000
479.132882	36.215000
481.528064	37.708000
483.926713	37.995000
486.320642	38.634000
488.713945	38.683000
491.106622	37.403000
493.498674	37.923000
495.892145	37.599000
498.280903	38.245000
500.666995	37.413000
503.054507	37.024000
505.441395	38.825000
507.825620	37.424000
510.211264	38.736000
512.594245	37.634000
514.974566	37.682000
517.356306	39.239000
519.735387	38.768000
522.115887	38.564000
524.493729	37.138000
526.868916	38.618000
529.243485	37.816000
531.619473	37.851000
533.992807	37.192000
536.367559	38.137000
538.737626	38.455000
541.107077	38.521000
543.477946	38.158000
545.844135	35.951000
548.211742	38.066000
550.576703	38.216000
552.941051	38.690000
555.304787	39.251000
557.669940	36.836000
560.030420	37.661000
562.392319	37.692000
564.751578	37.577000
567.108198	37.580000
569.468263	37.993000
571.821638	38.770000
574.178457	39.446000
576.532640	36.167000
578.886216	37.608000
581.239183	37.478000
583.589519	38.739000
585.941271	37.414000
588.286347	37.835000
590.636887	36.998000
592.980754	38.681000
595.330081	36.619000
597.674761	37.640000
600.016815	37.653000
602.360287	35.804000
604.701136	37.453000
607.041383	39.527000
609.379009	36.722000
611.720070	36.939000
614.056494	37.149000
616.394334	37.285000
618.729556	37.575000
621.062163	39.585000
623.396186	38.963000
625.727596	38.280000
628.058407	37.202000
630.388620	38.140000
632.718235	37.196000
635.043228	37.514000
637.373662	37.294000
639.699474	39.129000
642.022680	39.265000
644.347301	37.767000
646.669318	36.708000
648.990740	38.526000
651.309559	39.028000
653.629794	38.721000
655.949436	39.039000
658.266477	39.342000
660.582926	37.328000
662.896778	38.024000
665.212044	39.544000
667.524714	37.579000
669.838799	37.834000
672.148284	38.612000
674.459185	37.652000
676.767493	38.755000
679.075213	38.463000
681.384348	38.447000
683.688890	39.290000
685.992845	37.696000
688.296215	38.676000
690.600999	38.103000
692.901197	37.187000
695.202809	37.557000
697.503837	38.459000
699.800282	39.195000
702.098143	37.971000
704.395420	37.541000
706.692114	37.049000
708.984232	37.646000
711.279761	39.719000
713.570717	36.725000
715.863087	38.442000
718.152881	39.883000
720.442096	37.410000
722.730730	37.606000
725.016793	38.267000
727.304269	38.907000
729.589175	37.741000
731.873502	38.681000
734.155261	39.443000
736.438434	37.923000
738.721030	40.087000
740.999071	38.431000
743.278525	40.429000
745.557404	37.427000
747.835707	38.752000
750.109461	36.770000
752.384629	38.644000
754.659223	38.380000
756.931258	38.060000
759.204705	38.385000
761.475595	36.710000
763.743929	38.728000
766.013676	37.528000
768.280869	37.734000
770.547491	38.073000
772.813544	39.246000
775.077044	38.104000
777.341958	39.547000
779.606302	40.283000
781.866117	38.902000
784.127345	39.112000
786.388005	40.158000
788.646118	39.120000
790.901687	38.346000
793.160647	39.558000
795.413108	38.598000
797.670936	41.205000
799.924244	38.313000
802.175013	40.349000
804.427194	39.968000
806.676837	38.588000
808.927891	37.653000
811.174434	39.336000
813.422389	38.302000
815.667810	40.125000
817.914642	37.920000
820.160913	37.491000
822.402680	37.670000
824.647829	38.178000
826.886506	39.222000
829.128566	37.529000
831.366127	39.212000
833.605099	38.361000
835.841545	39.777000
838.079402	38.142000
840.314735	38.816000
842.547543	40.534000
844.781763	36.552000
847.013461	38.013000
849.244604	38.023000
851.475192	39.659000
853.705226	39.465000
855.934705	38.703000
858.159703	38.958000
860.388076	37.118000
862.611970	38.990000
864.837274	38.624000
867.058103	37.566000
869.282304	38.445000
871.502032	38.165000
873.723171	38.418000
875.943759	39.709000
878.161837	40.195000
880.381326	38.414000
882.596348	38.867000
884.810822	38.830000
887.024749	37.928000
889.238128	38.309000
891.450960	38.563000
893.663246	36.790000
895.873029	37.313000
898.082267	37.939000
900.290960	37.487000
902.497154	36.082000
904.704757	39.006000
906.909863	38.787000
909.114425	37.297000
911.316491	37.623000
913.519967	38.242000
915.720949	38.154000
917.921390	39.963000
920.123239	40.465000
922.318696	40.788000
924.517513	40.090000
926.711891	39.918000
928.909627	38.360000
931.102927	40.890000
933.297636	39.483000
935.489859	38.872000
937.681544	40.028000
939.872691	39.797000
942.061355	41.746000
944.249482	38.850000
946.435129	39.260000
948.624128	40.407000
950.808704	41.293000
952.992745	40.957000
955.180136	38.330000
957.359223	40.131000
959.541661	39.869000
961.723565	40.293000
963.902995	42.115000
966.079952	39.900000
968.258316	40.427000
970.438088	40.268000
972.611511	40.157000
974.788280	41.381000
976.960643	39.228000
979.134412	41.524000
981.303778	43.123000
983.476489	40.704000
985.646733	42.432000
987.816449	40.504000
989.985636	40.694000
992.150426	41.530000
994.318557	40.319000
996.482294	40.735000
998.647437	41.849000
1000.810122	41.953000
1002.972280	41.491000
1005.131982	40.832000
1007.291160	40.954000
1009.451744	39.649000
1011.609873	39.284000
1013.767478	40.723000
1015.924560	41.046000
1018.081119	41.617000
1020.233298	40.049000
1022.386883	41.020000
1024.539947	40.932000
1026.690563	40.823000
1028.842584	41.236000
1030.990232	40.456000
1033.141212	41.220000
1035.287821	41.845000
1037.433912	40.688000
1039.579483	39.954000
1041.726460	41.499000
1043.867149	40.589000
1046.011166	41.035000
1048.152743	40.842000
1050.293804	41.732000
1052.436269	39.933000
1054.572455	41.867000
1056.711967	40.054000
1058.847123	40.098000
1060.985604	40.741000
1063.119731	40.867000
1065.253345	39.307000
1067.388364	41.792000
1069.519033	40.238000
1071.651107	41.441000
1073.780752	41.780000
1075.909885	42.080000
1078.038506	39.970000
1080.166616	42.409000
1082.292300	42.067000
1084.417474	42.274000
1086.544052	41.262000
1088.666293	41.520000
1090.789937	41.693000
1092.909248	39.833000
1095.033787	41.217000
1097.152081	41.591000
1099.271780	41.140000
1101.389060	43.431000
1103.505834	42.752000
1105.622101	41.479000
1107.735953	42.424000
1109.851208	41.275000
1111.962141	42.811000
1114.076385	42.923000
1116.186309	42.893000
1118.297637	41.828000
1120.408460	41.724000
1122.514968	40.386000
1124.624784	43.911000
1126.730286	42.965000
1128.837191	40.979000
1130.937881	42.154000
1133.043783	43.859000
1135.145376	41.969000
1137.248372	43.221000
1139.350867	42.603000
1141.447155	41.119000
1143.548651	42.086000
1145.645844	41.715000
1147.742538	43.302000
1149.838734	41.025000
1151.934433	41.499000
1154.029634	41.029000
1156.122438	42.941000
1158.216644	41.948000
1160.304659	42.715000
1162.397872	42.806000
1164.484897	44.137000
1166.575221	42.469000
1168.661258	42.591000
1170.750592	43.391000
1172.833745	41.795000
1174.918301	42.221000
1177.004257	41.645000
1179.085932	41.858000
1181.169009	42.388000
1183.249700	43.703000
1185.329899	42.682000
1187.409607	44.424000
1189.488824	43.317000
1191.565659	42.792000
1193.640113	42.535000
1195.717859	43.401000
1197.791334	43.736000
1199.866210	45.121000
1201.936819	41.692000
1204.008830	43.829000
1206.078464	43.702000
1208.149499	43.717000
1210.220046	44.795000
1212.286332	42.240000
1214.354019	42.787000
1216.419334	45.134000
1218.486049	44.060000
1220.548508	45.454000
1222.614252	45.168000
1224.675743	45.717000
1226.738633	44.539000
1228.799156	45.354000
1230.859195	45.506000
1232.918752	45.592000
1234.975943	45.662000
1237.032653	44.534000
1239.087000	44.855000
1241.144627	44.648000
1243.199892	46.440000
1245.250916	45.508000
1247.303340	47.793000
1249.355284	45.831000
1251.404870	46.415000
1253.453977	46.583000
1255.502606	47.136000
1257.550756	46.522000
1259.598428	46.214000
1261.641869	46.163000
1263.688585	47.044000
1265.732948	47.861000
1267.776835	48.156000
1269.818371	47.627000
1271.857557	49.359000
1273.900015	50.100000
1275.938251	51.387000
1277.977886	51.607000
1280.017046	49.832000
1282.051987	53.392000
1284.088328	52.407000
1286.122323	54.542000
1288.157717	54.768000
1290.188897	55.071000
1292.221476	58.139000
1294.253582	59.315000
1296.283348	60.621000
1298.314512	62.702000
1300.341468	66.067000
1302.369822	68.619000
1304.393972	72.425000
1306.421386	78.543000
1308.444598	82.990000
1310.469208	90.895000
1312.491484	104.589000
1314.515157	118.825000
1316.536497	138.296000
1318.557369	178.456000
1320.577775	242.732000
1322.593986	371.060000
1324.611596	643.498000
1326.626877	1363.003000
1328.645416	3116.512000
1330.659767	5709.674000
1332.671792	6177.046000
1334.687074	3948.596000
1336.698171	1474.751000
1338.710665	579.731000
1340.718976	315.562000
1342.730543	195.973000
1344.736070	141.648000
1346.744853	113.266000
1348.749458	92.847000
1350.757317	84.684000
1352.764714	76.321000
1354.766080	70.806000
1356.768843	65.950000
1358.771145	63.423000
1360.772988	61.271000
1362.774371	57.361000
1364.773441	56.453000
1366.772052	54.990000
1368.770205	55.348000
1370.767900	50.055000
1372.761431	52.352000
1374.756359	50.866000
1376.750830	52.361000
1378.744844	49.868000
1380.736551	47.955000
1382.727802	48.511000
1384.716748	47.364000
1386.707089	49.246000
1388.696975	47.991000
1390.684558	47.146000
1392.671686	45.838000
1394.656514	46.502000
1396.642735	46.885000
1398.626657	47.461000
1400.610126	47.926000
1402.593143	47.190000
1404.573861	46.545000
1406.555975	46.923000
1408.535791	47.614000
1410.515157	45.971000
1412.490383	45.289000
1414.468849	46.386000
1416.445020	46.286000
1418.420743	47.072000
1420.396016	45.278000
1422.368998	45.670000
1424.341532	47.089000
1426.313619	45.494000
1428.285257	46.596000
1430.252767	45.835000
1432.225352	46.010000
1434.190130	46.074000
1436.159981	45.902000
1438.125707	47.855000
1440.092826	47.455000
1442.057662	46.067000
1444.018379	46.806000
1445.984163	45.587000
1447.943992	45.016000
1449.905214	46.827000
1451.867829	46.592000
1453.826329	46.768000
1455.784387	46.388000
1457.742002	45.942000
1459.699176	46.581000
1461.654074	45.401000
1463.610364	46.860000
1465.564380	44.766000
1467.517956	45.573000
1469.469259	46.616000
1471.421954	46.728000
1473.372378	47.078000
1475.322363	45.170000
1477.271908	47.248000
1479.219185	46.035000
1481.164195	43.805000
1483.110596	45.737000
1485.056561	46.403000
1487.002087	44.617000
1488.945349	46.632000
1490.888174	45.901000
1492.828736	46.161000
1494.770689	44.723000
1496.710381	45.080000
1498.649637	45.519000
1500.588458	45.216000
1502.525020	43.765000
1504.462973	46.319000
1506.398668	45.758000
1508.333929	46.289000
1510.266933	43.546000
1512.199505	44.902000
1514.131645	45.504000
1516.063353	45.265000
1517.992807	44.706000
1519.923652	46.468000
1521.854066	45.129000
1523.780406	46.129000
1525.708138	46.433000
1527.633619	45.632000
1529.558671	47.414000
1531.483294	45.893000
1533.407488	45.578000
1535.329435	44.932000
1537.252771	46.199000
1539.173862	46.085000
1541.092708	44.390000
1543.012944	45.311000
1544.930936	47.765000
1546.848502	44.372000
1548.763826	47.018000
1550.680540	46.744000
1552.593199	45.987000
1554.509062	46.822000
1556.422685	46.773000
1558.334071	44.659000
1560.246845	45.968000
1562.155570	46.076000
1564.065685	46.264000
1565.975376	46.159000
1567.884643	43.685000
1569.791677	45.501000
1571.696478	45.711000
1573.602668	45.252000
1575.506626	44.780000
1577.410164	45.238000
1579.313280	45.630000
1581.214168	46.327000
1583.116443	44.636000
1585.016491	45.388000
1586.917926	46.412000
1588.815328	46.740000
1590.712311	44.371000
1592.608876	45.515000
1594.506829	44.927000
1596.398947	43.946000
1598.294258	45.525000
1600.189152	44.982000
1602.081824	44.124000
1603.974080	44.839000
1605.864115	44.881000
1607.753736	43.741000
1609.642940	44.045000
1611.531730	44.971000
1613.418303	44.228000
1615.306262	46.631000
1617.190205	43.811000
1619.075536	47.005000
1620.960452	47.142000
1622.843155	44.069000
1624.727245	45.014000
1626.607324	44.670000
1628.488789	44.827000
1630.368044	45.622000
1632.248685	45.845000
1634.123522	45.907000
1636.003341	45.945000
1637.879154	45.473000
1639.754557	44.884000
1641.631347	45.907000
1643.502339	45.570000
1645.376513	45.360000
1647.246689	45.529000
1649.120045	45.383000
1650.991198	45.546000
1652.860149	44.492000
1654.730486	46.623000
1656.596829	44.972000
1658.464558	45.380000
1660.330089	44.261000
1662.197004	45.019000
1664.059931	45.246000
1665.924243	45.073000
1667.786359	45.502000
1669.648071	45.922000
1671.511167	45.552000
1673.372069	46.167000
1675.230777	44.502000
1677.089082	44.825000
1678.948772	46.216000
1680.802695	43.493000
1682.659790	45.278000
1684.516483	46.875000
1686.369200	45.770000
1688.225087	45.124000
1690.077001	47.183000
1691.928514	44.912000
1693.779626	44.577000
1695.630338	45.684000
1697.480649	43.244000
1699.328776	45.518000
1701.178286	44.388000
1703.022048	45.069000
1704.870759	44.330000
1706.713725	44.636000
1708.559856	43.233000
1710.402026	44.120000
1712.247360	46.083000
1714.086954	45.985000
1715.927932	45.048000
1717.770293	46.821000
1719.608698	44.181000
1721.448486	44.419000
1723.286099	44.797000
1725.123316	43.475000
1726.958360	44.821000
1728.794787	44.722000
1730.629042	44.598000
1732.462902	45.706000
1734.296369	44.955000
1736.125889	45.715000
1737.958568	44.714000
1739.787303	44.567000
1741.619196	44.472000
1743.447146	45.003000
1745.274704	44.206000
1747.101870	44.706000
1748.928645	44.640000
1750.755029	43.700000
1752.577476	44.023000
1754.403077	44.784000
1756.224744	45.552000
1758.047793	46.382000
1759.868681	45.958000
1761.689179	43.789000
1763.511059	44.774000
1765.327239	45.488000
1767.146571	44.688000
1768.961976	45.139000
1770.780531	44.181000
1772.595161	45.115000
1774.409405	45.107000
1776.223261	46.069000
1778.036731	44.996000
1779.848048	46.678000
1781.660746	44.631000
1783.473057	45.593000
1785.281451	47.847000
1787.091226	45.266000
1788.897085	45.869000
1790.706090	44.652000
1792.511182	45.001000
1794.317655	46.150000
1796.123744	45.752000
1797.925923	45.125000
1799.731245	45.538000
1801.532659	47.247000
1803.335453	44.550000
1805.134341	44.352000
1806.934610	46.087000
1808.734497	45.689000
1810.532243	46.015000
1812.329607	46.317000
1814.126592	45.424000
1815.923196	44.794000
1817.717661	45.571000
1819.513505	43.973000
1821.303695	46.610000
1823.098781	45.319000
1824.888214	44.423000
1826.680784	43.097000
1828.471219	44.206000
1830.259520	44.813000
1832.050956	45.793000
1833.836746	46.589000
1835.623916	45.804000
1837.408954	45.234000
1839.197126	46.832000
1840.981412	44.869000
1842.763569	46.063000
1844.547104	44.932000
1846.328511	46.764000
1848.111297	46.269000
1849.890203	47.011000
1851.670487	45.466000
1853.448645	47.553000
1855.228182	46.217000
1857.005594	45.132000
1858.780882	46.707000
1860.557549	44.664000
1862.332092	44.652000
1864.108014	46.836000
1865.878316	45.915000
1867.651744	47.237000
1869.423053	46.858000
1871.193992	46.630000
1872.966307	47.659000
1874.733010	46.773000
1876.502837	46.439000
1878.268801	45.703000
1880.037889	49.273000
1881.803115	46.655000
1883.567972	47.052000
1885.334207	45.601000
1887.096583	47.270000
1888.858592	45.497000
1890.620233	46.288000
1892.381508	43.936000
1894.142415	47.064000
1895.902956	46.244000
1897.661387	48.788000
1899.419453	45.627000
1901.175410	47.056000
1902.932745	47.209000
1904.689713	46.673000
1906.444576	45.925000
1908.197333	46.044000
1909.949727	47.289000
1911.703496	47.034000
1913.455162	49.675000
1915.204726	46.789000
1916.955666	45.212000
1918.706242	47.306000
1920.452979	47.250000
1922.201093	46.381000
1923.947107	46.622000
1925.694497	47.339000
1927.439788	45.741000
1929.182982	46.781000
1930.927552	49.286000
1932.670025	48.207000
1934.412138	47.922000
1936.153891	47.956000
1937.895285	48.333000
1939.634585	47.698000
1941.373525	49.603000
1943.112108	50.332000
1944.848598	48.681000
1946.584731	49.217500
1948.322238	49.754000
1950.055923	49.805000
1951.790983	50.047000
1953.523955	49.278000
1955.256570	48.760000
1956.988828	49.229000
1958.720730	49.495000
1960.450546	50.329000
1962.178278	50.892000
1963.907383	49.875000
1965.636134	50.010000
1967.362801	49.963000
1969.089114	50.761000
1970.816800	49.230000
1972.538950	50.747000
1974.264201	50.370000
1975.985646	50.428000
1977.710190	49.742000
1979.432655	50.183000
1981.151316	51.485000
1982.873076	50.269000
1984.591034	50.718000
1986.310365	52.040000
1988.025897	50.634000
1989.746250	49.158000
1991.462803	51.824000
1993.175561	51.593000
1994.891414	50.306000
1996.605194	49.297000
1998.318625	49.359000
2000.029985	51.885000
2001.742718	52.380000
2003.451659	49.729000
2005.163694	51.899000
2006.870219	51.680000
2008.579837	52.928000
2010.287387	50.214000
2011.994590	51.723000
2013.699727	52.368000
2015.404517	53.323000
2017.110679	52.891000
2018.813059	52.117000
2020.516811	54.687000
2022.218499	52.491000
2023.919843	53.457000
2025.620841	51.481000
2027.319779	52.588000
2029.020087	51.528000
2030.716621	52.717000
2032.414526	53.300000
2034.110372	54.269000
2035.809304	53.202000
2037.502750	53.221000
2039.197568	53.057000
2040.892042	53.882000
2042.582748	55.498000
2044.276538	54.614000
2045.966561	54.409000
2047.657955	53.639000
2049.347296	53.873000
2051.038007	54.152000
2052.724956	52.995000
2054.411564	54.124000
2056.099543	54.811000
2057.783762	54.706000
2059.469351	53.590000
2061.154601	52.892000
2062.837803	53.624000
2064.522374	53.549000
2066.201483	53.603000
2067.885377	52.876000
2069.563811	53.564000
2071.245321	51.691000
2072.923081	52.991000
2074.600503	52.175000
2076.279296	53.224000
2077.956045	54.612000
2079.630753	52.395000
2081.306830	52.669000
2082.980867	52.361000
2084.654568	54.677000
2086.327934	52.467000
2087.999262	52.745000
2089.670255	52.270000
2091.340914	52.477000
2093.011238	52.029000
2094.681229	53.687000
2096.349184	52.746000
2098.016806	53.999000
2099.682393	52.120000
2101.349350	52.897000
2103.014272	53.891000
2104.678863	53.544000
2106.341422	54.133000
2108.005349	55.360000
2109.667246	53.865000
2111.328811	54.775000
2112.990045	56.321000
2114.649251	56.237000
2116.308126	56.598000
2117.966672	56.219000
2119.624888	54.789000
2121.279380	56.452000
2122.936937	57.090000
2124.594165	56.600000
2126.247671	56.281000
2127.902545	56.560000
2129.553701	57.700000
2131.207918	55.969000
2132.858419	57.805000
2134.510286	57.202000
2136.156745	54.393000
2137.807959	56.133000
2139.455459	56.538000
2141.104326	57.944000
2142.751175	57.532000
2144.397697	57.821000
2146.043894	59.119000
2147.686383	56.990000
2149.331930	56.713000
2150.973770	56.408000
2152.618667	57.331000
2154.259859	56.870000
2155.900727	58.006000
2157.541271	58.286000
2159.179803	58.039000
2160.819702	57.879000
2162.455900	56.663000
2164.093464	59.536000
2165.730705	57.818000
2167.365937	57.164000
2169.000848	57.003000
2170.635437	58.364000
2172.269704	59.288000
2173.900279	59.914000
2175.533904	57.598000
2177.163838	58.297000
2178.795137	58.967000
2180.424432	59.113000
2182.053406	59.459000
2183.682062	57.562000
2185.310398	59.572000
2186.936731	58.559000
2188.562746	56.805000
2190.186760	59.243000
2191.812138	58.420000
2193.435517	59.277000
2195.060259	60.123000
2196.681321	59.005000
2198.302066	58.173000
2199.924176	58.625000
2201.544288	58.561000
2203.162403	58.123000
2204.780203	60.519000
2206.397688	58.888000
2208.014857	59.766000
2209.631711	60.141000
2211.248250	61.208000
2212.862795	59.883000
2214.475348	59.187000
2216.089265	59.191000
2217.701191	61.966000
2219.314480	58.839000
2220.925779	60.613000
2222.535088	61.176000
2224.145761	61.485000
2225.754445	61.095000
2227.362817	59.753000
2228.969201	60.080000
2230.576949	61.518000
2232.182710	60.803000
2233.788160	60.848000
2235.391625	61.340000
2236.996454	61.580000
2238.599298	61.658000
2240.200159	61.942000
2241.802383	61.569000
2243.402624	62.201000
2245.004228	62.148000
2246.602180	61.834000
2248.201494	62.625000
2249.798828	63.742000
2251.395853	62.247000
2252.994241	63.709000
2254.588980	61.372000
2256.181742	63.150000
2257.775867	63.016000
2259.371353	64.742000
2260.963195	62.374000
2262.554730	64.129000
2264.147626	63.493000
2265.735213	64.279000
2267.327497	63.112000
2268.914473	63.780000
2270.504478	62.904000
2272.089178	65.551000
2273.678572	64.198000
2275.262663	63.788000
2276.848116	63.881000
2278.431599	64.647000
2280.018109	64.418000
2281.600985	64.659000
2283.183557	63.804000
2284.765826	64.402000
2286.344466	65.695000
2287.926129	64.898000
2289.504164	64.322000
2291.085222	63.827000
2292.662654	63.839500
2294.238121	63.852000
2295.816611	64.938000
2297.391477	64.385000
2298.966042	65.345000
2300.540307	65.443000
2302.114271	65.807000
2303.687935	65.151000
2305.261298	65.055000
2306.831043	63.813000
2308.400489	64.902000
2309.972954	64.394000
2311.540143	65.554000
2313.110351	65.515000
2314.676944	65.910000
2316.244897	67.108000
2317.810894	67.059000
2319.376594	65.604000
2320.941997	66.056000
2322.505445	68.148000
2324.070253	68.678000
2325.631453	67.616000
2327.195667	67.509000
2328.754620	67.756000
2330.316586	69.173000
2331.876602	67.658000
2333.436322	69.251000
2334.994093	68.503000
2336.551569	67.074000
2338.108751	69.706000
2339.663986	70.030000
2341.218926	69.226000
2342.773573	67.941000
2344.327926	70.197000
2345.881985	70.013000
2347.435750	69.771000
2348.987572	69.912000
2350.537450	70.178000
2352.090336	70.426000
2353.637980	69.452000
2355.188631	70.210000
2356.735692	69.959000
2358.284110	69.912000
2359.832236	69.014000
2361.376774	71.273000
2362.922671	69.542000
2364.466628	71.165000
2366.011943	69.479000
2367.553673	68.539000
2369.096760	71.496000
2370.637912	69.846000
2372.178774	70.185000
2373.719347	69.853000
2375.259631	69.652000
2376.799625	70.115000
2378.336042	72.737000
2379.875460	72.007000
2381.411301	71.798000
2382.948498	71.973000
2384.482120	70.987000
2386.018743	69.749000
2387.553434	73.102000
2389.086196	72.248000
2390.618671	72.085000
2392.149219	72.682000
2393.682764	73.166000
2395.211098	72.000000
2396.740788	72.718000
2398.270193	72.861000
2399.799312	73.600000
2401.328147	73.755000
2402.851776	72.621000
2404.380042	74.653000
2405.903104	73.362000
2407.430800	73.161000
2408.951657	73.340000
2410.477147	73.644000
2411.999076	75.348000
2413.522361	76.035000
2415.043725	75.065000
2416.563169	76.254000
2418.083968	75.130000
2419.602848	75.979000
2421.121446	76.079000
2422.638127	77.367000
2424.156162	75.730000
2425.673916	76.394000
2427.188119	78.640000
2428.702041	77.469000
2430.215683	77.622000
2431.730680	77.447000
2433.242128	76.380000
2434.754931	77.883000
2436.265821	78.394000
2437.776431	77.361000
2439.285130	78.577000
2440.796816	80.924000
2442.304957	79.955000
2443.812821	77.320000
2445.320407	81.887000
2446.824452	80.049000
2448.331483	81.283000
2449.836605	80.848000
2451.341450	81.297000
2452.844388	81.390000
2454.347049	82.525000
2455.849434	82.675000
2457.349914	83.693000
2458.851747	81.081000
2460.351676	82.687000
2461.851329	85.369000
2463.350706	81.856000
2464.848181	84.071000
2466.343755	82.455000
2467.842308	83.945000
2469.337332	83.893000
2470.833710	84.713000
2472.326561	81.696000
2473.820764	84.726000
2475.314694	83.534000
2476.805101	82.001000
2478.298484	84.425000
2479.789970	83.702000
2481.279559	84.953000
2482.768876	81.371000
2484.256298	82.038000
2485.746695	82.519000
2487.233573	83.001000
2488.721803	82.348000
2490.206517	81.689000
2491.690960	82.552000
2493.176755	82.864000
2494.660657	81.744000
2496.145911	81.179000
2497.626031	82.720000
2499.109123	81.408000
2500.590325	81.277000
2502.071258	81.880000
2503.550302	82.560000
2505.029077	81.901000
2506.507584	80.287000
2507.985823	78.707000
2509.463793	79.429000
2510.938259	80.493000
2512.415693	81.296000
2513.889624	80.810000
2515.364906	79.410000
2516.839920	78.904000
2518.311433	79.040000
2519.784296	77.858000
2521.255277	80.092000
2522.727608	76.782000
2524.194826	78.577000
2525.665009	77.538000
2527.133312	76.221000
2528.601350	77.547000
2530.069123	76.908000
2531.536631	77.206000
2533.003874	77.824000
2534.467625	76.872000
2535.932726	77.046000
2537.395950	76.548000
2538.860524	76.805000
2540.321608	77.827000
2541.784042	78.488000
2543.246213	77.774000
2544.704898	77.203000
2546.168155	77.335000
2547.626315	78.247000
2549.085824	78.562000
2550.540240	77.982000
2551.999225	78.242000
2553.456339	78.800000
2554.911582	78.664000
2556.366564	77.043000
2557.819676	76.352000
2559.274137	77.133000
2560.726729	78.284000
2562.179061	77.418000
2563.629525	77.073000
2565.082945	78.771000
2566.531283	75.382000
2567.982577	76.514000
2569.432004	77.262000
2570.877959	77.713000
2572.326870	79.577000
2573.772309	79.414000
2575.219097	79.433000
2576.664021	77.200000
2578.108688	78.799000
2579.554702	79.365000
2580.997249	79.889000
2582.441144	79.873000
2583.881574	79.419000
2585.323351	77.642000
2586.763269	77.516000
2588.204534	77.727000
2589.642338	78.624000
2591.083091	77.639000
2592.518781	78.237000
2593.957421	78.390000
2595.394204	78.796000
2596.829130	79.799000
2598.267005	79.680000
2599.699821	80.133000
2601.133985	79.247000
2602.566295	80.669000
2603.999951	80.947000
2605.431754	78.940000
2606.863304	79.696000
2608.294600	78.363000
2609.724044	80.785000
2611.153237	78.272000
2612.580578	79.763000
2614.009266	81.504000
2615.437701	79.224000
2616.862689	81.971000
2618.289024	81.499000
2619.713510	79.694000
2621.139342	81.586000
2622.561730	79.975000
2623.985464	81.238000
2625.407351	80.476000
2626.828989	80.425000
2628.248781	80.638000
2629.669919	81.782000
2631.090807	81.347000
2632.508257	80.358000
2633.928646	82.769000
2635.345598	82.638000
2636.762302	80.077000
2638.178757	81.287000
2639.594964	80.396000
2641.010922	80.341000
2642.425040	82.316000
2643.838911	81.810000
2645.250942	80.545000
2646.664318	79.762000
2648.074264	80.402000
2649.487145	82.155000
2650.896599	82.568000
2652.305806	83.157000
2653.713177	82.376000
2655.123482	85.098000
2656.531951	82.734000
2657.938585	81.574000
2659.344974	81.660000
2660.749529	82.514000
2662.155428	82.846000
2663.559494	83.246000
2664.963316	84.501000
2666.366893	83.171000
2667.768638	85.063000
2669.171727	84.786000
2670.571399	82.852000
2671.972413	82.226000
2673.370012	81.061000
2674.770541	80.842000
2676.167655	81.908000
2677.566112	80.502000
2678.962741	80.618000
2680.359128	80.754000
2681.755274	80.356000
2683.149593	79.407000
2684.545255	78.273000
2685.937507	81.862000
2687.331103	80.155000
2688.722874	80.918000
2690.115987	80.084000
2691.507277	79.898000
2692.896744	81.458000
2694.285971	79.386000
2695.674959	79.705000
2697.065289	81.179000
2698.450634	80.087000
2699.838903	80.755000
2701.225352	80.969000
2702.611562	81.269000
2703.997534	81.221000
2705.380106	81.592000
2706.764021	81.218000
2708.147698	80.367000
2709.531137	79.806000
2710.911180	80.638000
2712.292565	80.650000
2713.672134	81.683000
2715.053045	82.647000
2716.432141	82.434000
2717.809422	82.034000
2719.188045	82.921000
2720.564855	83.440000
2721.941429	81.661000
2723.317767	83.978000
2724.692293	82.124000
2726.068160	82.759000
2727.440640	83.195000
2728.816036	83.137000
2730.186472	84.744000
2731.558249	82.508000
2732.929791	84.026000
2734.299525	84.928000
2735.670600	82.795000
2737.039867	84.277000
2738.408900	84.824000
2739.776126	85.826000
2741.143120	85.214000
2742.509881	84.587000
2743.876409	85.547000
2745.241132	85.223000
2746.605624	86.206000
2747.969883	86.095000
2749.333910	86.000000
2750.697706	88.816000
2752.058128	87.735000
2753.421461	86.865000
2754.779851	84.400000
2756.141151	86.642000
2757.499080	87.287000
2758.859919	84.991000
2760.218957	87.827000
2761.574627	88.081000
2762.933205	85.371000
2764.288417	86.894000
2765.643399	85.831000
2766.996584	85.455000
2768.352676	85.086000
2769.705404	87.153000
2771.057903	88.635000
2772.410174	88.753000
2773.763784	86.105000
2775.114032	86.693000
2776.462487	87.497000
2777.813846	88.224000
2779.161846	87.013000
2780.511185	89.282000
2781.858731	87.900000
2783.206050	87.253000
2784.553143	88.840000
2785.898445	86.465000
2787.243521	88.522000
2788.588371	87.599000
2789.932994	88.901000
2791.274266	88.828000
2792.616876	89.260000
2793.959260	88.951000
2795.301420	89.868000
2796.640230	90.438000
2797.981939	89.994000
2799.320301	89.122000
2800.660000	87.454000
2801.997913	89.195000
2803.334042	89.766000
2804.669947	90.942000
2806.007190	89.208000
2807.342649	90.831000
2808.677885	91.286000
2810.011338	91.091000
2811.346129	90.902000
2812.677578	92.114000
2814.011923	89.858000
2815.341370	91.053000
2816.672154	93.513000
2818.002716	91.917000
2819.331499	91.950000
2820.661618	90.728000
2821.989959	92.875000
2823.318079	92.414000
2824.644422	93.376000
2825.972100	92.852000
2827.296446	94.003000
2828.622127	92.898000
2829.946033	93.572000
2831.269720	93.141000
2832.594742	92.830000
2833.916434	93.208000
2835.237908	94.193000
2836.559163	92.637000
2837.880199	93.226000
2839.199463	92.563000
2840.520062	92.279000
2841.838889	92.124000
2843.157498	93.381000
2844.474336	93.215000
2845.790958	92.233000
2847.107361	90.077000
2848.421996	92.525000
2849.737965	92.663000
2851.050614	92.456000
2852.364599	92.516000
2853.678366	92.824000
2854.991918	93.853000
2856.303702	92.509000
2857.613720	93.654000
2858.925073	93.424000
2860.233111	93.168000
2861.542484	95.442000
2862.851641	94.814000
2864.160583	95.778000
2865.467762	95.963000
2866.773177	96.588000
2868.079927	95.606000
2869.384914	95.900000
2870.689688	96.392000
2871.992700	94.390000
2873.298594	96.886000
2874.599632	95.951000
2875.902005	96.754000
2877.202618	95.734000
2878.504565	94.664000
2879.806299	93.565000
2881.104728	95.675000
2882.404492	96.291000
2883.702497	95.105000
2885.000291	98.097000
2886.296329	97.228000
2887.593700	96.485000
2888.889315	96.477000
2890.184719	96.556000
2891.479913	96.628000
2892.771808	96.970000
2894.066580	95.813000
2895.358055	96.000000
2896.650863	94.618000
2897.943461	96.691000
2899.232765	94.358000
2900.523401	95.336000
2901.812286	96.616000
2903.102504	93.873000
2904.389430	94.488000
2905.677688	97.018000
2906.964196	95.517000
2908.250497	95.317000
2909.536589	96.135000
2910.820933	96.639000
2912.108149	95.742000
2913.390537	96.604000
2914.674258	96.083000
2915.956233	96.502000
2917.238001	95.012000
2918.518023	96.678000
2919.800915	97.079000
2921.082062	96.155000
2922.359927	97.325000
2923.640661	94.984000
2924.918114	95.810000
2926.195361	96.216000
2927.470867	96.408000
2928.749240	95.048000
2930.022798	95.527000
2931.299224	95.197000
2932.573909	97.068000
2933.846854	96.316000
2935.121129	97.298000
2936.393665	97.647000
2937.665997	97.319000
2938.935055	96.856000
2940.206979	97.241000
2941.477165	97.539000
2942.747148	98.024000
2944.016927	96.270000
2945.284969	96.366000
2946.551276	96.069000
2947.817380	97.929000
2949.084814	96.827000
2950.350514	97.593000
2951.616011	97.181000
2952.881306	96.697000
2954.143336	95.289000
2955.406697	97.000000
2956.669855	96.778000
2957.931282	99.211000
2959.194038	95.695000
2960.455063	98.316000
2961.714356	98.429000
2962.973450	98.059000
2964.232343	98.465000
2965.491036	98.429000
2966.749529	97.596000
2968.006293	95.748000
2969.262857	98.166000
2970.517694	97.780000
2971.773860	99.731000
2973.026770	98.401000
2974.281010	97.157000
2975.535051	99.887000
2976.787366	99.811000
2978.039483	98.042000
2979.289875	97.630000
2980.543122	97.970000
2981.791592	99.510000
2983.042916	101.539000
2984.290992	99.685000
2985.538870	99.278000
2986.786551	99.673000
2988.034036	98.416000
2989.279799	100.404000
2990.525365	100.106000
2991.772259	99.653000
2993.015909	98.634000
2994.260887	99.365000
2995.502622	100.387000
2996.747208	100.113000
2997.990074	100.102000
2999.229700	100.595000
3000.472176	100.497000
3001.711413	100.221000
3002.951977	100.332000
3004.190824	102.484000
3005.429477	99.959000
3006.666414	101.513000
3007.904678	100.595000
3009.141228	103.244000
3010.377583	100.839000
3011.613745	100.309000
3012.848194	102.230000
3014.082449	102.136000
3015.316511	103.767000
3016.548861	102.036000
3017.779499	103.379000
3019.012983	101.003000
3020.244755	103.606000
3021.474817	104.417000
3022.704687	102.508000
3023.932847	102.055000
3025.162333	103.655000
3026.390111	103.426000
3027.617697	104.496000
3028.846609	105.239000
3030.070779	102.899000
3031.297792	101.827000
3032.521581	104.098000
3033.746697	102.891000
3034.970106	102.777000
3036.193326	105.533000
3037.414840	103.902000
3038.639195	101.790000
3039.858815	104.050000
3041.079760	102.857000
3042.300517	104.276000
3043.519570	105.156000
3044.739949	105.237000
3045.957111	104.324000
3047.175598	105.350000
3048.392384	104.066000
3049.608981	104.769000
3050.825390	105.673000
3052.038587	105.776000
3053.254621	104.542000
3054.467443	104.605000
3055.683102	106.132000
3056.894038	106.083000
3058.106299	105.423000
3059.318374	105.329000
3060.530262	106.062000
3061.740452	106.546000
3062.950456	104.359000
3064.160275	105.665000
3065.368397	107.639000
3066.576333	105.045000
3067.782575	105.833000
3068.990140	104.594000
3070.196012	105.048000
3071.401698	105.502000
3072.607199	106.506000
3073.811007	105.538000
3075.016139	106.939000
3076.219579	106.493000
3077.421326	107.853000
3078.622890	105.070000
3079.824270	106.913000
3081.025466	108.030000
3082.224972	107.746000
3083.424294	108.149000
3084.624940	106.204000
3085.823896	107.893000
3087.019658	107.685000
3088.218249	106.985000
3089.413646	106.634000
3090.610366	109.149000
3091.803894	105.407000
3093.000251	108.278000
3094.194920	108.716000
3095.386399	107.787000
3096.582209	109.773000
3097.773326	107.419000
3098.965765	108.654000
3100.155017	109.132000
3101.347095	107.711000
3102.537488	107.553000
3103.724696	109.083000
3104.913227	108.789000
3106.103080	109.930000
3107.289748	108.313000
3108.476237	109.234000
3109.662546	107.798000
3110.850177	109.280000
3112.034627	106.323000
3113.217396	107.118000
3114.402989	105.407000
3115.586901	109.077000
3116.769135	109.186000
3117.951190	108.198000
3119.133068	107.816000
3120.314767	111.227000
3121.494788	107.254000
3122.673133	107.919000
3123.854299	110.593000
3125.032289	108.055000
3126.210102	108.573000
3127.387738	108.980000
3128.563699	110.281000
3129.739483	109.165000
3130.916589	110.468000
3132.092020	111.021000
3133.265778	108.518000
3134.437864	109.093000
3135.611270	108.514000
3136.784501	109.477000
3137.956059	109.295000
3139.128939	111.236000
3140.298651	111.091000
3141.469684	110.894000
3142.639046	111.470000
3143.806739	111.045000
3144.977247	110.037000
3146.143096	109.859000
3147.313255	112.568000
3148.478756	111.069000
3149.644084	111.224000
3150.809238	113.151000
3151.974218	111.254000
3153.140519	110.311000
3154.302166	111.090000
3155.465134	109.810000
3156.627928	109.422000
3157.790550	111.482000
3158.951507	107.965000
3160.112291	108.639000
3161.272903	108.021000
3162.431852	109.661000
3163.590628	109.362000
3164.749233	107.336000
3165.907666	108.488000
3167.065927	110.609000
3168.222526	107.656000
3169.377464	109.306000
3170.533721	107.511000
3171.688318	110.725000
3172.842743	108.453000
3173.995509	109.344000
3175.148105	109.895000
3176.300530	108.499000
3177.452786	111.127000
3178.604872	111.275000
3179.753811	109.033000
3180.905557	110.570000
3182.055645	111.545000
3183.204077	111.364000
3184.352340	110.801000
3185.500433	113.757000
3186.648358	112.169000
3187.794628	112.084000
3188.940729	113.523000
3190.085175	112.171000
3191.229454	112.179000
3192.373565	113.083000
3193.518994	110.768000
3194.661283	113.262000
3195.803406	112.920000
3196.945361	116.081000
3198.087150	113.499000
3199.228771	112.801000
3200.367256	112.684000
3201.507059	111.694000
3202.648180	111.949000
3203.786166	110.600000
3204.922503	112.832000
3206.058674	113.003000
3207.196163	114.198000
3208.332002	114.355000
3209.469159	114.673000
3210.601703	114.028000
3211.738529	113.697000
3212.870743	113.169000
3214.004275	112.948000
3215.137641	112.792000
3216.267880	112.717000
3217.400917	112.928000
3218.530828	112.009000
3219.662056	113.067000
3220.790158	110.627000
3221.921057	111.693000
3223.050313	112.705000
3224.177924	110.565000
3225.302414	110.425000
3226.431179	112.725000
3227.556822	110.800000
3228.682302	110.774000
3229.806141	109.900000
3230.932774	111.184000
3232.054810	113.372000
3233.178162	111.309000
3234.301352	111.110000
3235.424380	112.114000
3236.545768	111.378000
3237.666995	112.880000
3238.786583	111.680000
3239.906010	111.479000
3241.023799	111.442000
3242.144381	113.676000
3243.261848	112.393000
3244.379156	114.270000
3245.496302	115.997000
3246.611813	113.268000
3247.728639	116.452000
3248.842354	115.262000
3249.958860	115.636000
3251.073730	115.598000
3252.185492	115.127000
3253.297095	117.445000
3254.410012	115.295000
3255.522771	115.268000
3256.632423	115.052000
3257.743390	115.875000
3258.854197	115.246000
3259.963374	115.068000
3261.070919	118.169000
3262.179779	118.052000
3263.288480	116.780000
3264.394079	116.661000
3265.500992	117.024000
3266.606277	117.666000
3267.712875	115.490000
3268.816373	119.328000
3269.921185	118.655000
3271.025840	116.583000
3272.127396	117.204000
3273.228797	117.403000
3274.331511	118.796000
3275.434068	117.464000
3276.533530	117.753000
3277.635774	117.533000
3278.734923	117.125000
3279.832448	117.897000
3280.929817	118.301000
3282.029969	119.436000
3283.127027	118.828000
3284.223930	119.436000
3285.320679	117.298000
3286.412868	118.426000
3287.509306	116.226000
3288.604123	114.900000
3289.698784	118.838000
3290.791824	118.440000
3291.884710	120.339000
3292.975975	118.730000
3294.068553	117.501000
3295.159510	119.719000
3296.248848	117.826000
3297.338033	118.184000
3298.428531	117.139000
3299.515944	118.796000
3300.603205	119.750000
3301.691778	117.545000
3302.780198	118.067000
3303.864071	118.238000
3304.952186	118.322000
3306.037220	120.633000
3307.120637	121.235000
3308.205367	118.433000
3309.288482	119.694000
3310.372908	119.652000
3311.454256	119.540000
3312.536916	120.018000
3313.617962	120.902000
3314.698857	122.174000
3315.778139	121.099000
3316.857270	121.092000
3317.937712	120.167000
3319.015081	120.956000
3320.093760	121.760000
3321.170829	120.975000
3322.247747	121.020000
3323.323054	120.460000
3324.398212	121.690000
3325.474681	122.408000
3326.548080	121.775000
3327.621330	121.908000
3328.695891	122.117000
3329.768842	120.716000
3330.840186	122.483000
3331.912840	121.767000
3332.982427	119.357000
3334.053325	121.527000
3335.122616	121.251000
3336.193218	121.044000
3337.262213	121.176000
3338.329602	122.542000
3339.395386	119.895000
3340.465396	121.170000
3341.532343	118.219000
3342.596228	121.441000
3343.662881	120.978000
3344.727929	119.658000
3345.791374	121.646000
3346.854673	121.234000
3347.917826	120.593000
3348.980832	121.220000
3350.043691	122.121000
3351.104949	121.062000
3352.163150	121.283000
3353.225572	120.311000
3354.284937	120.743000
3355.344157	120.736000
3356.404687	122.335000
3357.460707	122.900000
3358.519492	124.044000
3359.573769	123.943000
3360.630809	122.769000
3361.686252	122.745000
3362.743003	123.663000
3363.798157	122.714000
3364.851713	124.623000
3365.903672	123.376000
3366.958393	123.552000
3368.010065	124.623000
3369.061594	122.795000
3370.114432	125.176000
3371.164222	124.155000
3372.215320	123.958000
3373.263373	124.649000
3374.314186	123.323000
3375.361953	125.205000
3376.409578	123.798000
3377.457060	124.559000
3378.502950	124.805000
3379.550148	124.298000
3380.594304	124.233000
3381.641218	124.228000
3382.686540	126.334000
3383.728822	126.663000
3384.770962	124.041000
3385.814410	125.296000
3386.857718	124.613000
3387.899435	124.382000
3388.941011	127.375000
3389.982447	126.044000
3391.022293	125.516000
3392.060552	124.417000
3393.100118	125.856000
3394.139543	126.462000
3395.177381	127.359000
3396.213633	128.611000
3397.249744	127.518000
3398.287163	127.467000
3399.321549	127.765000
3400.357242	126.084000
3401.392796	127.754000
3402.425319	125.690000
3403.460595	128.920000
3404.492840	127.435000
3405.524947	128.026000
3406.555470	128.752000
3407.587301	129.481000
3408.618992	128.390000
3409.647657	129.472000
3410.676183	129.327000
3411.706017	128.787000
3412.735712	128.799000
3413.762382	128.964000
3414.790359	130.818000
3415.815311	130.046000
3416.843013	129.098000
3417.867692	130.408000
3418.893677	131.203000
3419.918082	132.374000
3420.942351	128.480000
3421.965041	130.926000
3422.987595	129.862000
3424.011455	129.859000
3425.032295	131.005000
3426.053000	128.396000
3427.075010	129.197000
3428.094002	129.256000
3429.112859	129.158000
3430.133021	128.758000
3431.150167	128.706000
