-118.106446	3.743000
-115.436846	1.796000
-112.770181	0.876000
-110.104268	-3.030000
-107.441287	-1.138000
-104.776877	2.748000
-102.115397	1.111000
-99.452487	-0.601000
-96.794685	3.009000
-94.135452	0.922000
-91.476968	0.826000
-88.821409	-1.051000
-86.164421	2.113000
-83.512530	0.667000
-80.859210	2.657000
-78.208810	-0.310000
-75.556980	2.013000
-72.910241	-0.260000
-70.262072	0.840000
-67.614647	1.259000
-64.970135	2.078000
-62.324195	1.624000
-59.683336	1.377000
-57.041048	1.620000
-54.401668	3.640000
-51.760860	1.931000
-49.120792	0.102000
-46.485796	-0.074000
-43.849371	1.995000
-41.215850	-1.109000
-38.580900	0.455000
-35.951015	3.331000
-33.317538	1.855000
-30.689123	0.538000
-28.061441	2.793000
-25.432332	1.361000
-22.808279	-0.276000
-20.180637	1.625000
-17.558048	0.630000
-14.936191	1.085000
-12.315064	1.798000
-9.694667	2.156000
-7.077158	3.322000
-4.458221	8.538000
-1.842170	16.540000
0.773153	16.948000
3.387749	9.834000
5.999462	1.382000
8.612604	2.502000
11.220712	0.434000
13.832402	1.124000
16.439061	1.295000
19.047148	1.665000
21.654511	0.898000
24.256849	0.550000
26.862765	0.435000
29.463659	-0.068000
32.065981	0.878000
34.663286	1.042000
37.264166	-0.064000
39.860032	2.343000
42.457325	0.459000
45.053899	0.607000
47.645464	2.178000
50.238457	-0.171000
52.828589	0.802000
55.420149	0.898000
58.008849	0.678000
60.598976	1.756000
63.184105	-0.552000
65.770660	3.326000
68.356502	0.802000
70.939490	1.142000
73.523905	1.893000
76.101190	2.287000
78.682042	0.764000
81.260045	1.675000
83.837338	-0.076000
86.416057	1.982000
88.989795	1.240000
91.564959	1.719000
94.137280	-0.218000
96.708893	3.355000
99.277666	0.951000
101.847866	1.893000
104.415228	1.259000
106.984015	0.066000
109.549966	-0.003000
112.113082	1.826000
114.679754	1.383000
117.237205	3.092000
119.800341	1.220000
122.358518	2.626000
124.920248	5.098000
127.477023	5.768000
130.035223	6.505000
132.588471	11.501000
135.141020	14.538000
137.697120	21.580000
140.248273	29.653000
142.798727	36.298000
145.348485	39.547000
147.895423	44.963000
150.441665	45.960000
152.989333	46.685000
155.536306	47.736000
158.078342	48.305000
160.619685	47.998000
163.160335	49.499000
165.702411	47.702000
168.241676	49.431000
170.778131	50.697000
173.313896	49.495000
175.851086	49.772000
178.387584	50.791000
180.921277	47.472000
183.452167	48.774000
185.982368	48.965000
188.513994	48.575000
191.042819	48.812000
193.568845	48.761000
196.094186	49.034000
198.620951	49.918000
201.144919	48.167000
203.668203	49.166000
206.190802	48.206000
208.710608	48.812000
211.229731	48.663000
213.748171	48.183000
216.268035	47.747000
218.780898	47.509000
221.297292	47.981000
223.813004	48.829000
226.323827	48.308000
228.836074	49.273000
231.345538	47.901000
233.854324	49.484000
236.362432	47.993000
238.871963	49.802000
241.376615	48.662000
243.880590	49.857000
246.385989	50.232000
248.886513	48.562000
251.390560	49.377000
253.887637	49.832000
256.388236	47.588000
258.886064	49.614000
261.383219	49.918000
263.879701	51.083000
266.371320	50.859000
268.866459	48.983000
271.358832	47.949000
273.850534	49.052000
276.339473	49.648000
278.829835	51.092000
281.317436	47.389000
283.802277	50.026000
286.290632	49.706000
288.772048	49.454000
291.256978	48.268000
293.737063	50.305000
296.220660	49.240000
298.699414	50.300000
301.179592	48.246000
303.657017	49.162000
306.133779	48.548000
308.609878	48.116000
311.083228	48.482000
313.555916	48.597000
316.027943	49.210000
318.499309	48.695000
320.967931	48.601000
323.435893	50.285000
325.905278	49.902000
328.369840	49.263000
330.837905	48.765000
333.301151	49.267000
335.763740	49.663000
338.225671	49.592000
340.686946	48.044000
343.145487	49.335000
345.605450	49.288000
348.062680	49.465000
350.519256	46.988000
352.975178	48.156000
355.428371	49.307000
357.882985	48.946000
360.332798	48.516000
362.786108	50.898000
365.234618	48.350000
367.682478	48.695000
370.131759	49.198000
372.576247	49.129000
375.022157	47.462000
377.467418	48.137000
379.909960	46.863000
382.351854	49.200000
384.793100	48.046000
387.231631	48.081000
389.671584	48.624000
392.108823	49.749000
394.543350	47.089000
396.981365	49.006000
399.414603	48.484000
401.849263	49.105000
404.279149	47.429000
406.712521	48.684000
409.141123	47.662000
411.569084	48.836000
413.998465	48.426000
416.423081	46.605000
418.849119	47.586000
421.274516	48.801000
423.699273	48.382000
426.119272	49.939000
428.540692	48.685000
430.959415	48.713000
433.379559	48.064000
435.797008	49.690000
438.215877	47.883000
440.632053	48.272000
443.043482	49.024000
445.458387	49.379000
447.870602	49.154000
450.282183	47.744000
452.693130	49.087000
455.101391	47.804000
457.509019	48.437000
459.916016	47.720000
462.322380	47.387000
464.726062	46.837000
467.129114	47.642000
469.531536	47.923000
471.933329	49.300000
474.332443	48.015000
476.732977	48.555000
479.132882	50.031000
481.528064	47.256000
483.926713	48.117000
486.320642	47.705000
488.713945	49.203000
491.106622	46.974000
493.498674	48.246000
495.892145	47.934000
498.280903	48.966000
500.666995	47.668000
503.054507	45.526000
505.441395	47.726000
507.825620	48.884000
510.211264	47.853000
512.594245	47.991000
514.974566	46.877000
517.356306	50.576000
519.735387	47.160000
522.115887	48.240000
524.493729	48.291000
526.868916	48.115000
529.243485	47.808000
531.619473	48.743000
533.992807	48.155000
536.367559	49.006000
538.737626	49.334000
541.107077	49.297000
543.477946	47.627000
545.844135	47.601000
548.211742	47.025000
550.576703	47.494000
552.941051	48.044000
555.304787	48.324000
557.669940	48.756000
560.030420	49.130000
562.392319	49.069000
564.751578	49.531000
567.108198	48.403000
569.468263	48.983000
571.821638	46.281000
574.178457	47.403000
576.532640	46.857000
578.886216	48.735000
581.239183	47.242000
583.589519	47.976000
585.941271	47.284000
588.286347	48.022000
590.636887	49.943000
592.980754	46.794000
595.330081	47.853000
597.674761	49.043000
600.016815	46.664000
602.360287	48.919000
604.701136	49.935000
607.041383	48.287000
609.379009	48.974000
611.720070	48.106000
614.056494	49.737000
616.394334	48.229000
618.729556	48.421000
621.062163	47.562000
623.396186	49.006000
625.727596	46.722000
628.058407	46.340000
630.388620	48.716000
632.718235	47.223000
635.043228	49.465000
637.373662	47.271000
639.699474	48.134000
642.022680	48.847000
644.347301	47.960000
646.669318	48.737000
648.990740	48.638000
651.309559	47.792000
653.629794	49.046000
655.949436	47.158000
658.266477	48.991000
660.582926	49.745000
662.896778	47.769000
665.212044	47.486000
667.524714	49.139000
669.838799	48.977000
672.148284	47.581000
674.459185	49.607000
676.767493	49.169000
679.075213	47.028000
681.384348	46.392000
683.688890	47.939000
685.992845	48.185000
688.296215	46.225000
690.600999	48.519000
692.901197	45.364000
695.202809	47.791000
697.503837	47.609000
699.800282	48.605000
702.098143	47.844000
704.395420	48.505000
706.692114	47.890000
708.984232	49.131000
711.279761	47.331000
713.570717	48.875000
715.863087	46.533000
718.152881	47.834000
720.442096	48.046000
722.730730	48.091000
725.016793	47.676000
727.304269	47.328000
729.589175	46.375000
731.873502	48.547000
734.155261	47.392000
736.438434	48.279000
738.721030	47.645000
740.999071	49.016000
743.278525	48.021000
745.557404	48.150000
747.835707	48.358000
750.109461	47.417000
752.384629	48.493000
754.659223	48.790000
756.931258	47.571000
759.204705	48.879000
761.475595	49.730000
763.743929	48.813000
766.013676	47.044000
768.280869	48.963000
770.547491	48.269000
772.813544	47.308000
775.077044	47.624000
777.341958	47.784000
779.606302	49.174000
781.866117	48.653000
784.127345	47.410000
786.388005	48.370000
788.646118	48.768000
790.901687	49.646000
793.160647	48.044000
795.413108	49.413000
797.670936	46.322000
799.924244	49.482000
802.175013	48.847000
804.427194	47.742000
806.676837	46.424000
808.927891	48.436000
811.174434	48.320000
813.422389	48.130000
815.667810	48.161000
817.914642	48.215000
820.160913	48.560000
822.402680	47.178000
824.647829	48.003000
826.886506	47.847000
829.128566	47.972000
831.366127	48.515000
833.605099	47.822000
835.841545	48.814000
838.079402	47.767000
840.314735	48.048000
842.547543	46.818000
844.781763	50.569000
847.013461	47.908000
849.244604	48.062000
851.475192	47.722000
853.705226	49.190000
855.934705	48.274000
858.159703	48.011000
860.388076	49.694000
862.611970	48.474000
864.837274	48.469000
867.058103	49.667000
869.282304	48.344000
871.502032	47.983000
873.723171	47.762000
875.943759	48.779000
878.161837	46.942000
880.381326	48.164000
882.596348	46.485000
884.810822	47.980000
887.024749	47.912000
889.238128	49.292000
891.450960	47.710000
893.663246	48.062000
895.873029	48.942000
898.082267	48.056000
900.290960	47.373000
902.497154	49.760000
904.704757	46.958000
906.909863	46.825000
909.114425	45.540000
911.316491	48.436000
913.519967	47.892000
915.720949	47.411000
917.921390	47.420000
920.123239	48.108000
922.318696	48.271000
924.517513	47.743000
926.711891	47.537000
928.909627	47.434000
931.102927	46.942000
933.297636	47.694000
935.489859	48.232000
937.681544	48.393000
939.872691	49.166000
942.061355	48.266000
944.249482	48.324000
946.435129	48.106000
948.624128	49.429000
950.808704	51.262000
952.992745	48.532000
955.180136	47.942000
957.359223	48.246000
959.541661	49.270000
961.723565	49.383000
963.902995	51.497000
966.079952	48.092000
968.258316	49.584000
970.438088	48.622000
972.611511	50.811000
974.788280	49.373000
976.960643	49.425000
979.134412	48.699000
981.303778	49.241000
983.476489	49.190000
985.646733	50.747000
987.816449	48.082000
989.985636	48.430000
992.150426	49.525000
994.318557	51.190000
996.482294	49.097000
998.647437	48.980000
1000.810122	50.130000
1002.972280	49.545000
1005.131982	48.384000
1007.291160	50.192000
1009.451744	48.945000
1011.609873	50.419000
1013.767478	49.818000
1015.924560	48.983000
1018.081119	49.877000
1020.233298	48.361000
1022.386883	49.755000
1024.539947	48.869000
1026.690563	49.476000
1028.842584	48.308000
1030.990232	48.883000
1033.141212	50.854000
1035.287821	48.855000
1037.433912	48.880000
1039.579483	49.168000
1041.726460	49.404000
1043.867149	50.265000
1046.011166	49.743000
1048.152743	49.914000
1050.293804	50.858000
1052.436269	48.890000
1054.572455	49.588000
1056.711967	48.684000
1058.847123	49.083000
1060.985604	49.056000
1063.119731	48.930000
1065.253345	48.904000
1067.388364	48.735000
1069.519033	50.692000
1071.651107	50.888000
1073.780752	49.305000
1075.909885	50.507000
1078.038506	48.786000
1080.166616	49.598000
1082.292300	49.237000
1084.417474	49.045000
1086.544052	48.920000
1088.666293	51.939000
1090.789937	50.239000
1092.909248	50.181000
1095.033787	50.534000
1097.152081	48.875000
1099.271780	48.823000
1101.389060	49.254000
1103.505834	49.018000
1105.622101	48.401000
1107.735953	49.120000
1109.851208	51.122000
1111.962141	48.841000
1114.076385	50.581000
1116.186309	48.992000
1118.297637	50.230000
1120.408460	49.478000
1122.514968	50.859000
1124.624784	49.114000
1126.730286	51.721000
1128.837191	50.630000
1130.937881	50.449000
1133.043783	50.688000
1135.145376	50.274000
1137.248372	49.136000
1139.350867	50.591000
1141.447155	48.323000
1143.548651	49.928000
1145.645844	49.314000
1147.742538	49.278000
1149.838734	47.955000
1151.934433	50.144000
1154.029634	49.998000
1156.122438	49.426000
1158.216644	50.420000
1160.304659	51.965000
1162.397872	49.026000
1164.484897	51.145000
1166.575221	51.005000
1168.661258	50.325000
1170.750592	49.792000
1172.833745	49.439000
1174.918301	48.469000
1177.004257	50.305000
1179.085932	51.345000
1181.169009	50.854000
1183.249700	50.401000
1185.329899	50.013000
1187.409607	50.725000
1189.488824	51.132000
1191.565659	50.505000
1193.640113	50.347000
1195.717859	49.911000
1197.791334	50.142000
1199.866210	51.864000
1201.936819	50.319000
1204.008830	49.768000
1206.078464	51.767000
1208.149499	50.642000
1210.220046	52.555000
1212.286332	52.662000
1214.354019	51.971000
1216.419334	51.961000
1218.486049	52.790000
1220.548508	51.324000
1222.614252	52.451000
1224.675743	51.882000
1226.738633	49.989000
1228.799156	51.286000
1230.859195	52.142000
1232.918752	53.591000
1234.975943	54.915000
1237.032653	52.886000
1239.087000	53.984000
1241.144627	52.595000
1243.199892	54.031000
1245.250916	52.825000
1247.303340	53.872000
1249.355284	53.292000
1251.404870	55.373000
1253.453977	52.613000
1255.502606	56.049000
1257.550756	53.779000
1259.598428	55.705000
1261.641869	55.950000
1263.688585	54.218000
1265.732948	54.761000
1267.776835	57.274000
1269.818371	55.808000
1271.857557	56.937000
1273.900015	56.391000
1275.938251	57.084000
1277.977886	57.526000
1280.017046	58.529000
1282.051987	59.098000
1284.088328	58.183000
1286.122323	60.456000
1288.157717	62.409000
1290.188897	62.655000
1292.221476	62.025000
1294.253582	65.533000
1296.283348	68.508000
1298.314512	71.343000
1300.341468	72.523000
1302.369822	76.160000
1304.393972	78.738000
1306.421386	83.811000
1308.444598	89.401000
1310.469208	98.478000
1312.491484	108.218000
1314.515157	123.646000
1316.536497	145.842000
1318.557369	181.687000
1320.577775	243.048000
1322.593986	361.165000
1324.611596	616.150000
1326.626877	1290.360000
1328.645416	3032.009000
1330.659767	5959.537000
1332.671792	6907.851000
1334.687074	4621.546000
1336.698171	1706.111000
1338.710665	616.566000
1340.718976	330.077000
1342.730543	207.264000
1344.736070	151.244000
1346.744853	122.096000
1348.749458	104.239000
1350.757317	93.062000
1352.764714	84.333000
1354.766080	78.638000
1356.768843	73.659000
1358.771145	69.471000
1360.772988	68.248000
1362.774371	63.811000
1364.773441	65.314000
1366.772052	60.933000
1368.770205	60.163000
1370.767900	59.272000
1372.761431	59.606000
1374.756359	56.571000
1376.750830	58.707000
1378.744844	54.351000
1380.736551	54.286000
1382.727802	56.789000
1384.716748	55.587000
1386.707089	54.307000
1388.696975	53.922000
1390.684558	55.353000
1392.671686	55.773000
1394.656514	52.468000
1396.642735	55.491000
1398.626657	52.345000
1400.610126	53.059000
1402.593143	53.612000
1404.573861	54.046000
1406.555975	53.176000
1408.535791	53.203000
1410.515157	52.273000
1412.490383	53.096000
1414.468849	52.076000
1416.445020	52.901000
1418.420743	53.278000
1420.396016	54.803000
1422.368998	50.267000
1424.341532	53.633000
1426.313619	52.760000
1428.285257	53.644000
1430.252767	53.333000
1432.225352	53.611000
1434.190130	51.580000
1436.159981	51.876000
1438.125707	53.702000
1440.092826	52.492000
1442.057662	54.238000
1444.018379	54.003000
1445.984163	51.941000
1447.943992	52.933000
1449.905214	51.111000
1451.867829	51.849000
1453.826329	51.597000
1455.784387	51.342000
1457.742002	50.725000
1459.699176	50.882000
1461.654074	52.216000
1463.610364	50.459000
1465.564380	50.964000
1467.517956	52.537000
1469.469259	51.777000
1471.421954	52.523000
1473.372378	52.280000
1475.322363	50.461000
1477.271908	50.830000
1479.219185	51.957000
1481.164195	50.575000
1483.110596	50.264000
1485.056561	50.826000
1487.002087	51.537000
1488.945349	49.375000
1490.888174	49.631000
1492.828736	49.356000
1494.770689	49.172000
1496.710381	49.050000
1498.649637	51.721000
1500.588458	49.688000
1502.525020	49.859000
1504.462973	51.730000
1506.398668	50.110000
1508.333929	50.764000
1510.266933	51.321000
1512.199505	49.680000
1514.131645	51.111000
1516.063353	50.247000
1517.992807	50.768000
1519.923652	48.743000
1521.854066	50.571000
1523.780406	50.210000
1525.708138	50.584000
1527.633619	49.427000
1529.558671	50.264000
1531.483294	49.253000
1533.407488	50.451000
1535.329435	50.397000
1537.252771	51.589000
1539.173862	49.747000
1541.092708	52.085000
1543.012944	49.894000
1544.930936	49.411000
1546.848502	49.647000
1548.763826	50.548000
1550.680540	50.227000
1552.593199	49.295000
1554.509062	51.168000
1556.422685	51.031000
1558.334071	48.206000
1560.246845	50.252000
1562.155570	48.632000
1564.065685	50.052000
1565.975376	50.238000
1567.884643	49.415000
1569.791677	48.514000
1571.696478	50.518000
1573.602668	50.257000
1575.506626	49.528000
1577.410164	49.713000
1579.313280	50.262000
1581.214168	48.052000
1583.116443	50.318000
1585.016491	49.569000
1586.917926	50.262000
1588.815328	48.976000
1590.712311	48.024000
1592.608876	48.652000
1594.506829	49.136000
1596.398947	46.446000
1598.294258	47.262000
1600.189152	49.345000
1602.081824	50.060000
1603.974080	48.717000
1605.864115	49.618000
1607.753736	49.736000
1609.642940	49.229000
1611.531730	48.732000
1613.418303	49.416000
1615.306262	48.248000
1617.190205	49.332000
1619.075536	49.683000
1620.960452	48.929000
1622.843155	47.184000
1624.727245	49.303000
1626.607324	47.689000
1628.488789	49.372000
1630.368044	49.180000
1632.248685	48.429000
1634.123522	50.204000
1636.003341	51.262000
1637.879154	49.150000
1639.754557	49.124000
1641.631347	50.551000
1643.502339	47.742000
1645.376513	48.929000
1647.246689	48.265000
1649.120045	47.822000
1650.991198	49.588000
1652.860149	47.832000
1654.730486	48.662000
1656.596829	47.019000
1658.464558	49.206000
1660.330089	47.179000
1662.197004	49.295000
1664.059931	49.032000
1665.924243	48.880000
1667.786359	48.012000
1669.648071	47.816000
1671.511167	48.823000
1673.372069	47.230000
1675.230777	46.732000
1677.089082	48.770000
1678.948772	46.673000
1680.802695	46.968000
1682.659790	47.299000
1684.516483	47.462000
1686.369200	48.685000
1688.225087	48.540000
1690.077001	46.952000
1691.928514	46.889000
1693.779626	46.937000
1695.630338	48.342000
1697.480649	47.267000
1699.328776	49.486000
1701.178286	47.873000
1703.022048	46.674000
1704.870759	46.284000
1706.713725	46.661000
1708.559856	47.073000
1710.402026	47.860000
1712.247360	47.583000
1714.086954	46.994000
1715.927932	45.748000
1717.770293	48.055000
1719.608698	46.299000
1721.448486	47.582000
1723.286099	49.399000
1725.123316	45.593000
1726.958360	45.473000
1728.794787	46.349000
1730.629042	49.196000
1732.462902	46.582000
1734.296369	46.213000
1736.125889	47.770000
1737.958568	47.600000
1739.787303	47.275000
1741.619196	46.451000
1743.447146	47.693000
1745.274704	45.000000
1747.101870	46.124000
1748.928645	46.049000
1750.755029	48.068000
1752.577476	46.874000
1754.403077	46.421000
1756.224744	46.300000
1758.047793	46.562000
1759.868681	46.595000
1761.689179	48.078000
1763.511059	46.624000
1765.327239	47.300000
1767.146571	45.689000
1768.961976	45.246000
1770.780531	45.789000
1772.595161	45.947000
1774.409405	46.182000
1776.223261	46.346000
1778.036731	44.986000
1779.848048	46.060000
1781.660746	46.741000
1783.473057	46.339000
1785.281451	46.883000
1787.091226	46.549000
1788.897085	44.898000
1790.706090	47.062000
1792.511182	46.992000
1794.317655	43.928000
1796.123744	47.018000
1797.925923	48.874000
1799.731245	45.688000
1801.532659	46.118000
1803.335453	45.910000
1805.134341	46.199000
1806.934610	46.385000
1808.734497	47.018000
1810.532243	45.595000
1812.329607	47.184000
1814.126592	46.690000
1815.923196	45.321000
1817.717661	45.635000
1819.513505	46.696000
1821.303695	47.291000
1823.098781	45.815000
1824.888214	44.947000
1826.680784	45.316000
1828.471219	44.847000
1830.259520	44.333000
1832.050956	46.565000
1833.836746	46.534000
1835.623916	45.852000
1837.408954	45.586000
1839.197126	45.116000
1840.981412	44.508000
1842.763569	44.988000
1844.547104	46.649000
1846.328511	45.213000
1848.111297	46.132000
1849.890203	45.528000
1851.670487	47.931000
1853.448645	46.056000
1855.228182	46.466000
1857.005594	46.605000
1858.780882	47.990000
1860.557549	46.264000
1862.332092	46.936000
1864.108014	45.775000
1865.878316	48.251000
1867.651744	46.120000
1869.423053	46.414000
1871.193992	45.633000
1872.966307	46.835000
1874.733010	46.273000
1876.502837	45.765000
1878.268801	46.830000
1880.037889	47.288000
1881.803115	45.348000
1883.567972	46.851000
1885.334207	46.629000
1887.096583	47.430000
1888.858592	46.941000
1890.620233	46.692000
1892.381508	45.642000
1894.142415	48.132000
1895.902956	44.444000
1897.661387	46.868000
1899.419453	43.934000
1901.175410	46.339000
1902.932745	45.301000
1904.689713	45.183000
1906.444576	45.628000
1908.197333	48.201000
1909.949727	46.158000
1911.703496	46.081000
1913.455162	44.955000
1915.204726	46.830000
1916.955666	44.959000
1918.706242	45.749000
1920.452979	46.945000
1922.201093	47.881000
1923.947107	45.849000
1925.694497	47.678000
1927.439788	45.166000
1929.182982	46.559000
1930.927552	46.972000
1932.670025	46.837000
1934.412138	46.380000
1936.153891	47.266000
1937.895285	45.022000
1939.634585	46.617000
1941.373525	47.701000
1943.112108	47.457000
1944.848598	45.157000
1946.584731	46.740000
1948.322238	48.323000
1950.055923	48.569000
1951.790983	45.996000
1953.523955	48.558000
1955.256570	46.840000
1956.988828	48.840000
1958.720730	48.645000
1960.450546	49.302000
1962.178278	47.832000
1963.907383	48.223000
1965.636134	47.561000
1967.362801	49.134000
1969.089114	48.816000
1970.816800	49.891000
1972.538950	48.947000
1974.264201	48.324000
1975.985646	47.835000
1977.710190	49.115000
1979.432655	48.747000
1981.151316	49.783000
1982.873076	49.278000
1984.591034	48.755000
1986.310365	49.218000
1988.025897	49.444000
1989.746250	48.766000
1991.462803	48.481000
1993.175561	49.827000
1994.891414	48.178000
1996.605194	49.503000
1998.318625	51.842000
2000.029985	47.898000
2001.742718	50.088000
2003.451659	49.463000
2005.163694	51.182000
2006.870219	50.167000
2008.579837	49.754000
2010.287387	48.853000
2011.994590	49.100000
2013.699727	51.210000
2015.404517	52.152000
2017.110679	48.945000
2018.813059	51.012000
2020.516811	50.049000
2022.218499	49.076000
2023.919843	48.537000
2025.620841	51.080000
2027.319779	50.693000
2029.020087	49.795000
2030.716621	48.997000
2032.414526	49.212000
2034.110372	51.122000
2035.809304	50.869000
2037.502750	50.752000
2039.197568	51.423000
2040.892042	50.551000
2042.582748	51.950000
2044.276538	50.695000
2045.966561	51.537000
2047.657955	52.197000
2049.347296	50.925000
2051.038007	48.246000
2052.724956	51.197000
2054.411564	49.721000
2056.099543	50.136000
2057.783762	50.141000
2059.469351	51.099000
2061.154601	50.075000
2062.837803	50.465000
2064.522374	50.801000
2066.201483	49.480000
2067.885377	49.409000
2069.563811	50.435000
2071.245321	49.447000
2072.923081	49.484000
2074.600503	50.242000
2076.279296	51.083000
2077.956045	49.550000
2079.630753	51.114000
2081.306830	50.272000
2082.980867	49.838000
2084.654568	51.693000
2086.327934	49.350000
2087.999262	48.853000
2089.670255	50.166000
2091.340914	48.972000
2093.011238	49.662000
2094.681229	49.698000
2096.349184	49.818000
2098.016806	48.999000
2099.682393	50.610000
2101.349350	48.522000
2103.014272	50.699000
2104.678863	51.412000
2106.341422	49.848000
2108.005349	50.941000
2109.667246	51.805000
2111.328811	50.003000
2112.990045	50.098000
2114.649251	51.546000
2116.308126	51.300000
2117.966672	51.367000
2119.624888	51.276000
2121.279380	51.541000
2122.936937	50.680000
2124.594165	52.193000
2126.247671	51.345000
2127.902545	52.034000
2129.553701	49.711000
2131.207918	51.118000
2132.858419	50.922000
2134.510286	52.299000
2136.156745	51.128000
2137.807959	50.950000
2139.455459	52.622000
2141.104326	53.204000
2142.751175	51.328000
2144.397697	52.326000
2146.043894	51.835000
2147.686383	51.271000
2149.331930	51.885000
2150.973770	50.789000
2152.618667	53.281000
2154.259859	51.345000
2155.900727	53.004000
2157.541271	52.357000
2159.179803	53.233000
2160.819702	52.467000
2162.455900	53.144000
2164.093464	52.542000
2165.730705	52.164000
2167.365937	52.879000
2169.000848	52.522000
2170.635437	52.200000
2172.269704	53.116000
2173.900279	52.312000
2175.533904	52.845000
2177.163838	53.862000
2178.795137	53.004000
2180.424432	51.556000
2182.053406	54.691000
2183.682062	52.689000
2185.310398	53.965000
2186.936731	53.432000
2188.562746	53.246000
2190.186760	52.644000
2191.812138	52.467000
2193.435517	53.070000
2195.060259	52.732000
2196.681321	53.081000
2198.302066	54.141000
2199.924176	51.165000
2201.544288	54.941000
2203.162403	52.587000
2204.780203	52.344000
2206.397688	52.496000
2208.014857	53.053000
2209.631711	52.406000
2211.248250	52.399000
2212.862795	52.336000
2214.475348	52.636000
2216.089265	52.307000
2217.701191	54.215000
2219.314480	53.435000
2220.925779	54.049000
2222.535088	52.977000
2224.145761	55.189000
2225.754445	53.335000
2227.362817	54.201000
2228.969201	53.344000
2230.576949	54.398000
2232.182710	52.622000
2233.788160	53.871000
2235.391625	54.201000
2236.996454	56.074000
2238.599298	55.166000
2240.200159	55.423000
2241.802383	55.403000
2243.402624	56.108000
2245.004228	55.500000
2246.602180	55.987000
2248.201494	55.925000
2249.798828	55.814000
2251.395853	54.960000
2252.994241	55.265000
2254.588980	55.969000
2256.181742	55.320000
2257.775867	55.632000
2259.371353	55.274000
2260.963195	55.092000
2262.554730	56.130000
2264.147626	54.857000
2265.735213	56.147000
2267.327497	56.187000
2268.914473	57.895000
2270.504478	58.049000
2272.089178	57.070000
2273.678572	57.097000
2275.262663	56.466000
2276.848116	56.197000
2278.431599	56.156000
2280.018109	56.341000
2281.600985	54.928000
2283.183557	55.541000
2284.765826	55.346000
2286.344466	54.605000
2287.926129	56.004000
2289.504164	55.815000
2291.085222	56.582000
2292.662654	56.463500
2294.238121	56.345000
2295.816611	54.086000
2297.391477	56.638000
2298.966042	55.623000
2300.540307	57.357000
2302.114271	53.955000
2303.687935	57.172000
2305.261298	54.054000
2306.831043	55.283000
2308.400489	54.756000
2309.972954	58.115000
2311.540143	57.281000
2313.110351	56.745000
2314.676944	57.323000
2316.244897	58.285000
2317.810894	55.839000
2319.376594	56.983000
2320.941997	57.445000
2322.505445	57.943000
2324.070253	58.777000
2325.631453	58.527000
2327.195667	57.361000
2328.754620	58.298000
2330.316586	59.864000
2331.876602	59.155000
2333.436322	59.810000
2334.994093	60.207000
2336.551569	59.907000
2338.108751	61.039000
2339.663986	59.601000
2341.218926	61.052000
2342.773573	59.418000
2344.327926	61.263000
2345.881985	59.332000
2347.435750	59.513000
2348.987572	58.148000
2350.537450	58.168000
2352.090336	57.364000
2353.637980	60.544000
2355.188631	58.996000
2356.735692	59.146000
2358.284110	58.564000
2359.832236	61.368000
2361.376774	57.502000
2362.922671	61.135000
2364.466628	60.663000
2366.011943	60.356000
2367.553673	59.784000
2369.096760	59.487000
2370.637912	58.794000
2372.178774	59.929000
2373.719347	59.204000
2375.259631	59.191000
2376.799625	60.183000
2378.336042	60.220000
2379.875460	59.538000
2381.411301	61.065000
2382.948498	60.747000
2384.482120	60.702000
2386.018743	58.475000
2387.553434	61.800000
2389.086196	60.842000
2390.618671	62.872000
2392.149219	62.538000
2393.682764	62.234000
2395.211098	59.540000
2396.740788	62.515000
2398.270193	60.281000
2399.799312	62.364000
2401.328147	60.937000
2402.851776	62.260000
2404.380042	60.066000
2405.903104	63.619000
2407.430800	63.601000
2408.951657	63.225000
2410.477147	62.098000
2411.999076	61.824000
2413.522361	61.365000
2415.043725	64.346000
2416.563169	63.571000
2418.083968	64.416000
2419.602848	62.982000
2421.121446	62.697000
2422.638127	62.330000
2424.156162	66.221000
2425.673916	64.438000
2427.188119	65.200000
2428.702041	65.386000
2430.215683	65.053000
2431.730680	65.177000
2433.242128	65.656000
2434.754931	65.956000
2436.265821	65.669000
2437.776431	66.612000
2439.285130	68.246000
2440.796816	67.443000
2442.304957	67.507000
2443.812821	67.331000
2445.320407	67.575000
2446.824452	66.952000
2448.331483	67.742000
2449.836605	67.099000
2451.341450	69.321000
2452.844388	68.870000
2454.347049	70.874000
2455.849434	68.088000
2457.349914	70.297000
2458.851747	68.729000
2460.351676	70.900000
2461.851329	70.521000
2463.350706	71.431000
2464.848181	69.283000
2466.343755	70.576000
2467.842308	69.925000
2469.337332	69.418000
2470.833710	68.190000
2472.326561	70.050000
2473.820764	67.316000
2475.314694	70.041000
2476.805101	67.139000
2478.298484	68.998000
2479.789970	70.135000
2481.279559	67.641000
2482.768876	67.344000
2484.256298	68.699000
2485.746695	66.586000
2487.233573	67.541000
2488.721803	67.183000
2490.206517	68.513000
2491.690960	67.413000
2493.176755	68.716000
2494.660657	66.982000
2496.145911	66.786000
2497.626031	66.693000
2499.109123	66.351000
2500.590325	64.922000
2502.071258	67.459000
2503.550302	65.948000
2505.029077	63.397000
2506.507584	64.908000
2507.985823	65.167000
2509.463793	64.457000
2510.938259	64.376000
2512.415693	63.592000
2513.889624	64.634000
2515.364906	62.772000
2516.839920	66.774000
2518.311433	63.083000
2519.784296	63.965000
2521.255277	64.064000
2522.727608	63.767000
2524.194826	61.916000
2525.665009	65.003000
2527.133312	64.483000
2528.601350	62.027000
2530.069123	60.935000
2531.536631	61.301000
2533.003874	61.868000
2534.467625	61.722000
2535.932726	61.285000
2537.395950	62.657000
2538.860524	59.977000
2540.321608	61.607000
2541.784042	59.946000
2543.246213	62.948000
2544.704898	63.197000
2546.168155	61.567000
2547.626315	62.324000
2549.085824	62.936000
2550.540240	59.421000
2551.999225	62.207000
2553.456339	61.878000
2554.911582	62.400000
2556.366564	61.311000
2557.819676	62.411000
2559.274137	62.522000
2560.726729	61.953000
2562.179061	62.664000
2563.629525	61.988000
2565.082945	60.227000
2566.531283	62.243000
2567.982577	61.480000
2569.432004	62.219000
2570.877959	61.417000
2572.326870	61.564000
2573.772309	61.719000
2575.219097	60.145000
2576.664021	60.636000
2578.108688	61.171000
2579.554702	61.216000
2580.997249	61.817000
2582.441144	62.086000
2583.881574	62.281000
2585.323351	62.386000
2586.763269	61.905000
2588.204534	63.628000
2589.642338	63.119000
2591.083091	63.292000
2592.518781	62.984000
2593.957421	62.903000
2595.394204	63.722000
2596.829130	60.500000
2598.267005	62.403000
2599.699821	62.564000
2601.133985	62.878000
2602.566295	61.284000
2603.999951	60.906000
2605.431754	60.916000
2606.863304	63.472000
2608.294600	61.414000
2609.724044	62.622000
2611.153237	62.789000
2612.580578	64.943000
2614.009266	60.779000
2615.437701	61.791000
2616.862689	63.385000
2618.289024	60.785000
2619.713510	62.713000
2621.139342	62.689000
2622.561730	62.739000
2623.985464	62.116000
2625.407351	61.686000
2626.828989	64.780000
2628.248781	61.262000
2629.669919	61.936000
2631.090807	61.906000
2632.508257	62.612000
2633.928646	62.081000
2635.345598	62.078000
2636.762302	63.312000
2638.178757	61.804000
2639.594964	61.818000
2641.010922	63.150000
2642.425040	63.069000
2643.838911	63.107000
2645.250942	62.445000
2646.664318	61.146000
2648.074264	62.290000
2649.487145	63.446000
2650.896599	62.770000
2652.305806	61.820000
2653.713177	62.172000
2655.123482	62.803000
2656.531951	63.289000
2657.938585	63.105000
2659.344974	61.930000
2660.749529	64.410000
2662.155428	63.670000
2663.559494	64.198000
2664.963316	65.615000
2666.366893	65.806000
2667.768638	64.494000
2669.171727	65.149000
2670.571399	64.878000
2671.972413	62.424000
2673.370012	63.255000
2674.770541	62.343000
2676.167655	61.249000
2677.566112	62.415000
2678.962741	59.731000
2680.359128	60.591000
2681.755274	58.564000
2683.149593	60.004000
2684.545255	59.684000
2685.937507	59.873000
2687.331103	57.769000
2688.722874	59.977000
2690.115987	58.551000
2691.507277	58.251000
2692.896744	58.137000
2694.285971	59.304000
2695.674959	58.445000
2697.065289	59.466000
2698.450634	60.252000
2699.838903	59.014000
2701.225352	58.622000
2702.611562	59.800000
2703.997534	59.278000
2705.380106	59.287000
2706.764021	59.455000
2708.147698	58.890000
2709.531137	60.590000
2710.911180	60.466000
2712.292565	60.061000
2713.672134	60.435000
2715.053045	58.977000
2716.432141	60.749000
2717.809422	57.941000
2719.188045	60.125000
2720.564855	58.744000
2721.941429	61.072000
2723.317767	58.992000
2724.692293	58.889000
2726.068160	61.060000
2727.440640	61.243000
2728.816036	59.960000
2730.186472	61.997000
2731.558249	61.768000
2732.929791	60.074000
2734.299525	61.038000
2735.670600	61.111000
2737.039867	61.895000
2738.408900	60.196000
2739.776126	61.623000
2741.143120	61.773000
2742.509881	61.853000
2743.876409	60.815000
2745.241132	61.553000
2746.605624	62.346000
2747.969883	59.794000
2749.333910	61.798000
2750.697706	61.209000
2752.058128	61.091000
2753.421461	61.741000
2754.779851	63.919000
2756.141151	62.950000
2757.499080	62.093000
2758.859919	62.291000
2760.218957	61.167000
2761.574627	61.205000
2762.933205	61.324000
2764.288417	59.765000
2765.643399	62.155000
2766.996584	62.043000
2768.352676	60.936000
2769.705404	61.786000
2771.057903	62.256000
2772.410174	63.213000
2773.763784	63.978000
2775.114032	62.130000
2776.462487	63.935000
2777.813846	64.679000
2779.161846	64.693000
2780.511185	63.761000
2781.858731	61.651000
2783.206050	62.597000
2784.553143	64.176000
2785.898445	61.979000
2787.243521	64.250000
2788.588371	63.754000
2789.932994	63.993000
2791.274266	62.552000
2792.616876	64.235000
2793.959260	62.412000
2795.301420	63.306000
2796.640230	63.505000
2797.981939	64.685000
2799.320301	63.217000
2800.660000	64.437000
2801.997913	64.205000
2803.334042	63.934000
2804.669947	64.922000
2806.007190	64.366000
2807.342649	63.161000
2808.677885	65.513000
2810.011338	65.268000
2811.346129	65.522000
2812.677578	63.236000
2814.011923	64.543000
2815.341370	62.752000
2816.672154	67.713000
2818.002716	65.430000
2819.331499	66.236000
2820.661618	64.024000
2821.989959	66.125000
2823.318079	65.917000
2824.644422	65.376000
2825.972100	64.874000
2827.296446	66.219000
2828.622127	64.929000
2829.946033	65.270000
2831.269720	65.242000
2832.594742	67.069000
2833.916434	64.967000
2835.237908	65.089000
2836.559163	66.257000
2837.880199	66.843000
2839.199463	66.666000
2840.520062	66.163000
2841.838889	65.549000
2843.157498	65.423000
2844.474336	65.996000
2845.790958	64.109000
2847.107361	64.835000
2848.421996	65.458000
2849.737965	65.251000
2851.050614	66.241000
2852.364599	65.079000
2853.678366	65.624000
2854.991918	66.897000
2856.303702	64.706000
2857.613720	66.479000
2858.925073	65.690000
2860.233111	65.093000
2861.542484	66.932000
2862.851641	66.237000
2864.160583	66.267000
2865.467762	67.136000
2866.773177	67.226000
2868.079927	67.259000
2869.384914	67.796000
2870.689688	65.926000
2871.992700	68.717000
2873.298594	67.285000
2874.599632	67.716000
2875.902005	65.914000
2877.202618	68.028000
2878.504565	66.774000
2879.806299	68.174000
2881.104728	66.433000
2882.404492	68.601000
2883.702497	67.728000
2885.000291	67.619000
2886.296329	67.231000
2887.593700	66.533000
2888.889315	66.335000
2890.184719	66.869000
2891.479913	68.019000
2892.771808	66.220000
2894.066580	65.406000
2895.358055	66.941000
2896.650863	66.922000
2897.943461	67.536000
2899.232765	68.840000
2900.523401	68.664000
2901.812286	66.515000
2903.102504	66.976000
2904.389430	65.979000
2905.677688	66.995000
2906.964196	67.150000
2908.250497	68.038000
2909.536589	67.079000
2910.820933	66.323000
2912.108149	67.666000
2913.390537	66.886000
2914.674258	66.564000
2915.956233	66.529000
2917.238001	67.490000
2918.518023	68.844000
2919.800915	69.108000
2921.082062	67.413000
2922.359927	64.955000
2923.640661	68.990000
2924.918114	65.352000
2926.195361	66.764000
2927.470867	65.391000
2928.749240	69.228000
2930.022798	66.429000
2931.299224	68.792000
2932.573909	66.821000
2933.846854	67.062000
2935.121129	65.918000
2936.393665	69.007000
2937.665997	68.064000
2938.935055	67.629000
2940.206979	66.550000
2941.477165	67.511000
2942.747148	66.057000
2944.016927	66.283000
2945.284969	65.954000
2946.551276	67.286000
2947.817380	65.837000
2949.084814	68.785000
2950.350514	64.989000
2951.616011	67.700000
2952.881306	68.115000
2954.143336	68.495000
2955.406697	67.293000
2956.669855	66.946000
2957.931282	67.171000
2959.194038	68.255000
2960.455063	65.883000
2961.714356	67.457000
2962.973450	65.898000
2964.232343	67.650000
2965.491036	66.712000
2966.749529	66.931000
2968.006293	67.555000
2969.262857	67.409000
2970.517694	66.658000
2971.773860	68.249000
2973.026770	68.879000
2974.281010	69.527000
2975.535051	67.156000
2976.787366	68.941000
2978.039483	68.741000
2979.289875	68.043000
2980.543122	68.852000
2981.791592	69.398000
2983.042916	68.317000
2984.290992	69.891000
2985.538870	69.018000
2986.786551	69.630000
2988.034036	68.695000
2989.279799	67.806000
2990.525365	68.919000
2991.772259	69.881000
2993.015909	67.497000
2994.260887	69.255000
2995.502622	68.303000
2996.747208	69.913000
2997.990074	69.099000
2999.229700	70.924000
3000.472176	67.746000
3001.711413	70.285000
3002.951977	68.849000
3004.190824	71.018000
3005.429477	70.972000
3006.666414	69.531000
3007.904678	69.127000
3009.141228	70.799000
3010.377583	69.244000
3011.613745	70.325000
3012.848194	69.710000
3014.082449	70.939000
3015.316511	70.300000
3016.548861	70.010000
3017.779499	69.299000
3019.012983	70.392000
3020.244755	70.007000
3021.474817	71.160000
3022.704687	71.116000
3023.932847	70.888000
3025.162333	69.126000
3026.390111	69.835000
3027.617697	67.695000
3028.846609	70.158000
3030.070779	68.337000
3031.297792	71.898000
3032.521581	71.011000
3033.746697	71.980000
3034.970106	71.003000
3036.193326	71.057000
3037.414840	70.243000
3038.639195	70.640000
3039.858815	69.531000
3041.079760	72.487000
3042.300517	70.655000
3043.519570	72.740000
3044.739949	71.676000
3045.957111	70.174000
3047.175598	69.841000
3048.392384	71.937000
3049.608981	70.998000
3050.825390	68.853000
3052.038587	70.684000
3053.254621	71.831000
3054.467443	70.975000
3055.683102	73.368000
3056.894038	69.332000
3058.106299	72.293000
3059.318374	71.659000
3060.530262	72.723000
3061.740452	70.937000
3062.950456	74.160000
3064.160275	72.193000
3065.368397	71.399000
3066.576333	71.044000
3067.782575	72.624000
3068.990140	70.897000
3070.196012	72.092000
3071.401698	73.287000
3072.607199	73.479000
3073.811007	72.567000
3075.016139	73.003000
3076.219579	73.292000
3077.421326	71.682000
3078.622890	72.481000
3079.824270	72.661000
3081.025466	73.294000
3082.224972	73.314000
3083.424294	73.351000
3084.624940	73.344000
3085.823896	71.695000
3087.019658	73.563000
3088.218249	72.726000
3089.413646	73.021000
3090.610366	71.598000
3091.803894	76.296000
3093.000251	72.484000
3094.194920	73.645000
3095.386399	73.138000
3096.582209	72.957000
3097.773326	73.991000
3098.965765	75.400000
3100.155017	72.946000
3101.347095	74.000000
3102.537488	74.745000
3103.724696	75.389000
3104.913227	73.256000
3106.103080	74.597000
3107.289748	74.014000
3108.476237	74.233000
3109.662546	74.012000
3110.850177	72.772000
3112.034627	73.183000
3113.217396	73.994000
3114.402989	73.722000
3115.586901	73.236000
3116.769135	73.633000
3117.951190	72.744000
3119.133068	73.389000
3120.314767	73.865000
3121.494788	73.862000
3122.673133	73.245000
3123.854299	74.344000
3125.032289	73.622000
3126.210102	72.441000
3127.387738	75.971000
3128.563699	75.791000
3129.739483	74.615000
3130.916589	72.134000
3132.092020	74.530000
3133.265778	74.727000
3134.437864	73.603000
3135.611270	74.957000
3136.784501	76.268000
3137.956059	75.104000
3139.128939	74.530000
3140.298651	72.880000
3141.469684	73.753000
3142.639046	74.297000
3143.806739	76.126000
3144.977247	74.773000
3146.143096	74.840000
3147.313255	73.022000
3148.478756	74.574000
3149.644084	74.849000
3150.809238	75.838000
3151.974218	74.564000
3153.140519	75.717000
3154.302166	74.109000
3155.465134	75.500000
3156.627928	72.909000
3157.790550	73.967000
3158.951507	73.024000
3160.112291	74.387000
3161.272903	72.499000
3162.431852	73.027000
3163.590628	72.105000
3164.749233	72.477000
3165.907666	71.632000
3167.065927	73.025000
3168.222526	73.099000
3169.377464	71.064000
3170.533721	73.640000
3171.688318	73.859000
3172.842743	74.076000
3173.995509	72.629000
3175.148105	73.179000
3176.300530	74.396000
3177.452786	74.812000
3178.604872	74.652000
3179.753811	72.229000
3180.905557	74.690000
3182.055645	72.532000
3183.204077	74.148000
3184.352340	73.318000
3185.500433	76.196000
3186.648358	75.074000
3187.794628	76.043000
3188.940729	75.656000
3190.085175	73.516000
3191.229454	77.461000
3192.373565	74.804000
3193.518994	74.802000
3194.661283	74.754000
3195.803406	75.415000
3196.945361	74.644000
3198.087150	74.946000
3199.228771	75.199000
3200.367256	75.302000
3201.507059	74.806000
3202.648180	75.207000
3203.786166	75.089000
3204.922503	74.333000
3206.058674	75.928000
3207.196163	76.792000
3208.332002	74.671000
3209.469159	75.508000
3210.601703	76.266000
3211.738529	75.898000
3212.870743	75.779000
3214.004275	75.130000
3215.137641	75.010000
3216.267880	74.334000
3217.400917	76.594000
3218.530828	73.966000
3219.662056	73.801000
3220.790158	74.353000
3221.921057	76.444000
3223.050313	73.884000
3224.177924	75.464000
3225.302414	73.608000
3226.431179	74.470000
3227.556822	72.228000
3228.682302	74.905000
3229.806141	75.153000
3230.932774	75.451000
3232.054810	74.687000
3233.178162	75.206000
3234.301352	74.036000
3235.424380	73.966000
3236.545768	72.813000
3237.666995	73.939000
3238.786583	74.032000
3239.906010	75.768000
3241.023799	75.131000
3242.144381	74.660000
3243.261848	73.702000
3244.379156	75.099000
3245.496302	75.857000
3246.611813	75.396000
3247.728639	75.319000
3248.842354	78.351000
3249.958860	76.590000
3251.073730	76.044000
3252.185492	76.582000
3253.297095	77.983000
3254.410012	76.737000
3255.522771	78.281000
3256.632423	77.312000
3257.743390	77.169000
3258.854197	76.587000
3259.963374	78.611000
3261.070919	76.997000
3262.179779	75.901000
3263.288480	77.000000
3264.394079	76.969000
3265.500992	76.716000
3266.606277	76.794000
3267.712875	78.466000
3268.816373	78.476000
3269.921185	77.607000
3271.025840	78.928000
3272.127396	77.538000
3273.228797	79.614000
3274.331511	76.776000
3275.434068	80.805000
3276.533530	77.835000
3277.635774	79.365000
3278.734923	76.327000
3279.832448	77.211000
3280.929817	78.375000
3282.029969	79.650000
3283.127027	78.798000
3284.223930	76.531000
3285.320679	78.092000
3286.412868	76.034000
3287.509306	77.753000
3288.604123	76.556000
3289.698784	77.053000
3290.791824	78.764000
3291.884710	77.871000
3292.975975	78.464000
3294.068553	77.197000
3295.159510	79.124000
3296.248848	76.794000
3297.338033	77.209000
3298.428531	77.050000
3299.515944	80.985000
3300.603205	77.197000
3301.691778	77.345000
3302.780198	79.014000
3303.864071	77.296000
3304.952186	77.190000
3306.037220	79.827000
3307.120637	78.429000
3308.205367	79.068000
3309.288482	78.450000
3310.372908	79.614000
3311.454256	77.610000
3312.536916	79.516000
3313.617962	78.075000
3314.698857	80.937000
3315.778139	79.921000
3316.857270	80.441000
3317.937712	77.609000
3319.015081	79.441000
3320.093760	78.910000
3321.170829	80.260000
3322.247747	81.078000
3323.323054	80.097000
3324.398212	79.262000
3325.474681	79.027000
3326.548080	79.419000
3327.621330	80.383000
3328.695891	79.697000
3329.768842	79.667000
3330.840186	79.873000
3331.912840	80.312000
3332.982427	78.281000
3334.053325	80.381000
3335.122616	78.214000
3336.193218	81.176000
3337.262213	80.115000
3338.329602	78.799000
3339.395386	78.871000
3340.465396	78.508000
3341.532343	79.896000
3342.596228	78.826000
3343.662881	78.555000
3344.727929	77.751000
3345.791374	79.163000
3346.854673	78.547000
3347.917826	80.108000
3348.980832	79.611000
3350.043691	79.098000
3351.104949	81.933000
3352.163150	78.486000
3353.225572	81.726000
3354.284937	78.458000
3355.344157	79.719000
3356.404687	78.840000
3357.460707	80.298000
3358.519492	81.302000
3359.573769	82.081000
3360.630809	81.958000
3361.686252	81.305000
3362.743003	80.541000
3363.798157	82.887000
3364.851713	81.039000
3365.903672	80.133000
3366.958393	81.137000
3368.010065	82.411000
3369.061594	82.061000
3370.114432	81.366000
3371.164222	82.277000
3372.215320	81.504000
3373.263373	82.019000
3374.314186	81.341000
3375.361953	81.899000
3376.409578	81.662000
3377.457060	81.877000
3378.502950	82.527000
3379.550148	81.504000
3380.594304	81.888000
3381.641218	80.517000
3382.686540	82.791000
3383.728822	81.208000
3384.770962	82.023000
3385.814410	81.020000
3386.857718	81.621000
3387.899435	80.504000
3388.941011	83.452000
3389.982447	82.440000
3391.022293	84.168000
3392.060552	81.746000
3393.100118	83.447000
3394.139543	83.812000
3395.177381	82.547000
3396.213633	82.837000
3397.249744	83.692000
3398.287163	82.301000
3399.321549	81.705000
3400.357242	81.706000
3401.392796	84.042000
3402.425319	82.436000
3403.460595	82.371000
3404.492840	82.714000
3405.524947	83.291000
3406.555470	82.062000
3407.587301	83.142000
3408.618992	84.275000
3409.647657	82.757000
3410.676183	83.487000
3411.706017	82.950000
3412.735712	84.667000
3413.762382	85.512000
3414.790359	85.088000
3415.815311	84.307000
3416.843013	82.928000
3417.867692	84.051000
3418.893677	83.464000
3419.918082	84.302000
3420.942351	84.366000
3421.965041	86.124000
3422.987595	83.554000
3424.011455	83.403000
3425.032295	84.771000
3426.053000	84.203000
3427.075010	83.398000
3428.094002	83.463000
3429.112859	83.869000
3430.133021	85.860000
3431.150167	83.570000
