-118.106446	0.579000
-115.436846	1.612000
-112.770181	0.116000
-110.104268	-1.437000
-107.441287	-1.780000
-104.776877	1.212000
-102.115397	0.065000
-99.452487	0.703000
-96.794685	0.536000
-94.135452	-1.310000
-91.476968	0.131000
-88.821409	0.515000
-86.164421	-0.281000
-83.512530	1.109000
-80.859210	-1.133000
-78.208810	1.573000
-75.556980	-0.448000
-72.910241	2.172000
-70.262072	-0.096000
-67.614647	0.962000
-64.970135	-0.345000
-62.324195	1.316000
-59.683336	-0.453000
-57.041048	0.996000
-54.401668	-0.460000
-51.760860	1.022000
-49.120792	-0.743000
-46.485796	1.590000
-43.849371	-1.767000
-41.215850	1.865000
-38.580900	0.767000
-35.951015	0.101000
-33.317538	1.977000
-30.689123	1.365000
-28.061441	-0.734000
-25.432332	0.308000
-22.808279	-0.997000
-20.180637	0.696000
-17.558048	0.280000
-14.936191	0.963000
-12.315064	0.190000
-9.694667	3.248000
-7.077158	2.716000
-4.458221	8.234000
-1.842170	16.278000
0.773153	19.859000
3.387749	9.159000
5.999462	2.979000
8.612604	-0.248000
11.220712	1.182000
13.832402	-0.196000
16.439061	0.502000
19.047148	1.068000
21.654511	1.236000
24.256849	0.969000
26.862765	-0.002000
29.463659	1.924000
32.065981	0.295000
34.663286	1.693000
37.264166	0.646000
39.860032	-0.259000
42.457325	1.498000
45.053899	-0.509000
47.645464	-0.008000
50.238457	-0.872000
52.828589	1.036000
55.420149	0.121000
58.008849	0.783000
60.598976	0.872000
63.184105	1.747000
65.770660	0.316000
68.356502	1.267000
70.939490	0.660000
73.523905	1.040000
76.101190	-0.295000
78.682042	0.308000
81.260045	0.572000
83.837338	1.628000
86.416057	1.193000
88.989795	-0.078000
91.564959	1.184000
94.137280	2.142000
96.708893	1.093000
99.277666	2.699000
101.847866	0.548000
104.415228	2.689000
106.984015	1.001000
109.549966	0.785000
112.113082	1.348000
114.679754	0.905000
117.237205	0.831000
119.800341	1.564000
122.358518	2.022000
124.920248	4.497000
127.477023	4.770000
130.035223	7.766000
132.588471	9.893000
135.141020	12.476000
137.697120	18.723000
140.248273	23.203000
142.798727	26.792000
145.348485	33.282000
147.895423	33.717000
150.441665	40.235000
152.989333	37.718000
155.536306	41.629000
158.078342	38.737000
160.619685	40.246000
163.160335	40.267000
165.702411	40.291000
168.241676	39.620000
170.778131	41.290000
173.313896	38.951000
175.851086	39.448000
178.387584	39.732000
180.921277	39.978000
183.452167	41.521000
185.982368	40.072000
188.513994	39.625000
191.042819	40.146000
193.568845	40.086000
196.094186	39.924000
198.620951	39.383000
201.144919	41.497000
203.668203	41.827000
206.190802	41.033000
208.710608	40.023000
211.229731	40.642000
213.748171	40.277000
216.268035	41.090000
218.780898	41.571000
221.297292	41.750000
223.813004	40.587000
226.323827	41.633000
228.836074	39.795000
231.345538	40.952000
233.854324	39.795000
236.362432	40.897000
238.871963	38.776000
241.376615	40.654000
243.880590	40.044000
246.385989	41.895000
248.886513	40.071000
251.390560	42.611000
253.887637	40.216000
256.388236	41.071000
258.886064	40.834000
261.383219	39.388000
263.879701	40.693000
266.371320	41.107000
268.866459	40.201000
271.358832	40.909000
273.850534	40.766000
276.339473	41.037000
278.829835	39.308000
281.317436	40.424000
283.802277	40.052000
286.290632	41.813000
288.772048	40.237000
291.256978	40.840000
293.737063	39.721000
296.220660	41.397000
298.699414	40.350000
301.179592	42.539000
303.657017	40.054000
306.133779	39.959000
308.609878	39.072000
311.083228	39.882000
313.555916	41.626000
316.027943	40.866000
318.499309	40.179000
320.967931	40.665000
323.435893	40.914000
325.905278	40.328000
328.369840	40.812000
330.837905	41.202000
333.301151	41.280000
335.763740	42.684000
338.225671	40.704000
340.686946	41.517000
343.145487	41.054000
345.605450	42.422000
348.062680	40.275000
350.519256	41.702000
352.975178	40.573000
355.428371	40.738000
357.882985	40.160000
360.332798	41.363000
362.786108	41.172000
365.234618	41.726000
367.682478	40.374000
370.131759	40.208000
372.576247	42.118000
375.022157	41.139000
377.467418	38.217000
379.909960	42.783000
382.351854	39.992000
384.793100	40.438000
387.231631	41.087000
389.671584	40.550000
392.108823	40.159000
394.543350	40.075000
396.981365	39.949000
399.414603	40.508000
401.849263	39.789000
404.279149	40.100000
406.712521	41.454000
409.141123	41.623000
411.569084	39.347000
413.998465	39.790000
416.423081	39.207000
418.849119	40.372000
421.274516	40.886000
423.699273	40.638000
426.119272	40.681000
428.540692	41.573000
430.959415	41.656000
433.379559	41.605000
435.797008	39.880000
438.215877	40.383000
440.632053	42.323000
443.043482	40.696000
445.458387	40.318000
447.870602	41.160000
450.282183	42.564000
452.693130	42.331000
455.101391	40.665000
457.509019	41.895000
459.916016	40.513000
462.322380	42.694000
464.726062	41.898000
467.129114	41.348000
469.531536	41.507000
471.933329	43.543000
474.332443	41.807000
476.732977	40.885000
479.132882	40.314000
481.528064	42.183000
483.926713	41.865000
486.320642	43.070000
488.713945	40.754000
491.106622	42.093000
493.498674	40.099000
495.892145	40.736000
498.280903	39.544000
500.666995	40.809000
503.054507	39.427000
505.441395	42.883000
507.825620	41.572000
510.211264	40.893000
512.594245	39.181000
514.974566	40.809000
517.356306	40.454000
519.735387	40.151000
522.115887	41.780000
524.493729	41.635000
526.868916	38.278000
529.243485	41.644000
531.619473	39.576000
533.992807	40.446000
536.367559	41.353000
538.737626	42.110000
541.107077	41.172000
543.477946	41.800000
545.844135	39.190000
548.211742	41.720000
550.576703	41.368000
552.941051	40.772000
555.304787	40.944000
557.669940	42.485000
560.030420	39.190000
562.392319	42.152000
564.751578	40.509000
567.108198	42.425000
569.468263	41.228000
571.821638	41.680000
574.178457	40.160000
576.532640	40.903000
578.886216	40.520000
581.239183	42.292000
583.589519	41.682000
585.941271	42.670000
588.286347	40.998000
590.636887	42.566000
592.980754	39.243000
595.330081	41.765000
597.674761	40.035000
600.016815	40.788000
602.360287	40.575000
604.701136	42.788000
607.041383	41.503000
609.379009	40.305000
611.720070	40.681000
614.056494	41.536000
616.394334	41.275000
618.729556	40.123000
621.062163	40.303000
623.396186	43.021000
625.727596	40.774000
628.058407	41.325000
630.388620	41.117000
632.718235	41.424000
635.043228	41.524000
637.373662	42.562000
639.699474	40.643000
642.022680	41.272000
644.347301	41.984000
646.669318	42.129000
648.990740	40.822000
651.309559	42.139000
653.629794	40.425000
655.949436	41.297000
658.266477	40.966000
660.582926	43.250000
662.896778	40.180000
665.212044	41.635000
667.524714	40.127000
669.838799	43.004000
672.148284	39.552000
674.459185	42.648000
676.767493	39.924000
679.075213	42.780000
681.384348	41.051000
683.688890	41.058000
685.992845	40.494000
688.296215	40.155000
690.600999	40.158000
692.901197	41.472000
695.202809	41.237000
697.503837	41.988000
699.800282	41.079000
702.098143	42.945000
704.395420	40.257000
706.692114	41.783000
708.984232	40.980000
711.279761	42.583000
713.570717	40.482000
715.863087	41.463000
718.152881	40.484000
720.442096	40.742000
722.730730	40.068000
725.016793	42.453000
727.304269	41.137000
729.589175	42.630000
731.873502	41.426000
734.155261	42.280000
736.438434	40.147000
738.721030	42.266000
740.999071	43.211000
743.278525	43.988000
745.557404	40.691000
747.835707	43.062000
750.109461	41.364000
752.384629	42.470000
754.659223	41.556000
756.931258	42.240000
759.204705	42.408000
761.475595	42.758000
763.743929	43.774000
766.013676	43.283000
768.280869	42.518000
770.547491	44.228000
772.813544	40.912000
775.077044	43.075000
777.341958	41.508000
779.606302	42.222000
781.866117	41.472000
784.127345	42.499000
786.388005	42.618000
788.646118	42.272000
790.901687	42.368000
793.160647	43.151000
795.413108	39.998000
797.670936	44.737000
799.924244	41.781000
802.175013	43.069000
804.427194	41.081000
806.676837	43.792000
808.927891	41.823000
811.174434	43.166000
813.422389	40.987000
815.667810	44.459000
817.914642	40.437000
820.160913	43.008000
822.402680	41.622000
824.647829	42.249000
826.886506	41.161000
829.128566	42.686000
831.366127	41.554000
833.605099	42.571000
835.841545	40.813000
838.079402	43.922000
840.314735	40.584000
842.547543	43.871000
844.781763	41.443000
847.013461	41.467000
849.244604	41.217000
851.475192	41.911000
853.705226	41.265000
855.934705	43.337000
858.159703	41.359000
860.388076	43.251000
862.611970	43.566000
864.837274	42.714000
867.058103	41.082000
869.282304	43.067000
871.502032	40.250000
873.723171	42.740000
875.943759	41.260000
878.161837	42.306000
880.381326	40.108000
882.596348	43.828000
884.810822	41.334000
887.024749	41.946000
889.238128	40.730000
891.450960	42.796000
893.663246	42.218000
895.873029	42.013000
898.082267	41.697000
900.290960	44.716000
902.497154	42.975000
904.704757	43.468000
906.909863	42.077000
909.114425	43.246000
911.316491	42.184000
913.519967	43.023000
915.720949	41.554000
917.921390	43.655000
920.123239	40.545000
922.318696	44.546000
924.517513	41.794000
926.711891	43.230000
928.909627	41.925000
931.102927	43.890000
933.297636	41.149000
935.489859	42.950000
937.681544	42.299000
939.872691	44.004000
942.061355	43.303000
944.249482	42.761000
946.435129	41.952000
948.624128	43.754000
950.808704	42.437000
952.992745	43.829000
955.180136	43.790000
957.359223	44.027000
959.541661	42.585000
961.723565	43.854000
963.902995	43.665000
966.079952	44.643000
968.258316	42.933000
970.438088	45.038000
972.611511	44.618000
974.788280	44.897000
976.960643	43.282000
979.134412	45.760000
981.303778	43.786000
983.476489	46.221000
985.646733	41.434000
987.816449	43.959000
989.985636	44.130000
992.150426	44.714000
994.318557	43.899000
996.482294	43.389000
998.647437	45.939000
1000.810122	45.831000
1002.972280	44.355000
1005.131982	45.836000
1007.291160	45.075000
1009.451744	43.256000
1011.609873	42.095000
1013.767478	46.336000
1015.924560	42.892000
1018.081119	42.945000
1020.233298	43.562000
1022.386883	44.424000
1024.539947	43.577000
1026.690563	45.502000
1028.842584	42.176000
1030.990232	44.287000
1033.141212	44.073000
1035.287821	45.797000
1037.433912	42.854000
1039.579483	46.178000
1041.726460	44.301000
1043.867149	45.451000
1046.011166	45.034000
1048.152743	45.274000
1050.293804	44.957000
1052.436269	46.297000
1054.572455	43.031000
1056.711967	43.935000
1058.847123	45.990000
1060.985604	45.761000
1063.119731	44.795000
1065.253345	45.336000
1067.388364	44.245000
1069.519033	44.560000
1071.651107	44.417000
1073.780752	45.334000
1075.909885	43.523000
1078.038506	45.762000
1080.166616	43.410000
1082.292300	47.069000
1084.417474	44.586000
1086.544052	45.835000
1088.666293	44.367000
1090.789937	44.847000
1092.909248	45.391000
1095.033787	44.587000
1097.152081	44.029000
1099.271780	44.935000
1101.389060	46.310000
1103.505834	46.116000
1105.622101	44.496000
1107.735953	45.112000
1109.851208	44.885000
1111.962141	45.066000
1114.076385	45.111000
1116.186309	46.271000
1118.297637	44.320000
1120.408460	44.177000
1122.514968	43.366000
1124.624784	46.825000
1126.730286	44.243000
1128.837191	45.596000
1130.937881	44.181000
1133.043783	47.011000
1135.145376	44.311000
1137.248372	47.607000
1139.350867	44.657000
1141.447155	46.030000
1143.548651	44.705000
1145.645844	47.168000
1147.742538	43.688000
1149.838734	45.857000
1151.934433	44.406000
1154.029634	46.332000
1156.122438	44.100000
1158.216644	45.940000
1160.304659	46.346000
1162.397872	47.180000
1164.484897	46.811000
1166.575221	47.086000
1168.661258	46.160000
1170.750592	45.405000
1172.833745	45.793000
1174.918301	47.962000
1177.004257	43.633000
1179.085932	46.850000
1181.169009	46.630000
1183.249700	47.142000
1185.329899	45.925000
1187.409607	47.045000
1189.488824	46.513000
1191.565659	46.747000
1193.640113	45.293000
1195.717859	48.098000
1197.791334	45.239000
1199.866210	46.952000
1201.936819	47.688000
1204.008830	47.168000
1206.078464	46.291000
1208.149499	47.908000
1210.220046	47.286000
1212.286332	48.268000
1214.354019	46.069000
1216.419334	47.162000
1218.486049	47.450000
1220.548508	48.374000
1222.614252	47.167000
1224.675743	48.019000
1226.738633	47.703000
1228.799156	49.211000
1230.859195	47.984000
1232.918752	49.259000
1234.975943	47.982000
1237.032653	49.134000
1239.087000	48.769000
1241.144627	49.921000
1243.199892	46.807000
1245.250916	51.505000
1247.303340	49.709000
1249.355284	50.309000
1251.404870	48.570000
1253.453977	50.268000
1255.502606	50.667000
1257.550756	52.163000
1259.598428	51.002000
1261.641869	50.896000
1263.688585	49.065000
1265.732948	52.385000
1267.776835	52.084000
1269.818371	51.775000
1271.857557	53.166000
1273.900015	52.226000
1275.938251	52.086000
1277.977886	54.842000
1280.017046	53.702000
1282.051987	56.950000
1284.088328	55.691000
1286.122323	58.277000
1288.157717	58.272000
1290.188897	60.984000
1292.221476	60.661000
1294.253582	63.640000
1296.283348	65.294000
1298.314512	69.239000
1300.341468	70.181000
1302.369822	74.203000
1304.393972	77.331000
1306.421386	83.755000
1308.444598	88.749000
1310.469208	98.045000
1312.491484	107.169000
1314.515157	127.782000
1316.536497	149.096000
1318.557369	190.220000
1320.577775	255.510000
1322.593986	387.442000
1324.611596	665.165000
1326.626877	1401.386000
1328.645416	3263.386000
1330.659767	6309.279000
1332.671792	7202.165000
1334.687074	4767.673000
1336.698171	1758.777000
1338.710665	646.044000
1340.718976	344.019000
1342.730543	216.486000
1344.736070	153.574000
1346.744853	121.571000
1348.749458	103.557000
1350.757317	93.500000
1352.764714	80.929000
1354.766080	76.522000
1356.768843	73.547000
1358.771145	69.971000
1360.772988	65.676000
1362.774371	62.723000
1364.773441	61.123000
1366.772052	60.328000
1368.770205	56.936000
1370.767900	56.324000
1372.761431	56.143000
1374.756359	54.182000
1376.750830	53.868000
1378.744844	53.027000
1380.736551	51.505000
1382.727802	52.669000
1384.716748	50.779000
1386.707089	52.699000
1388.696975	50.315000
1390.684558	51.306000
1392.671686	49.926000
1394.656514	48.662000
1396.642735	48.799000
1398.626657	50.809000
1400.610126	49.890000
1402.593143	51.532000
1404.573861	48.311000
1406.555975	48.952000
1408.535791	48.443000
1410.515157	48.534000
1412.490383	47.182000
1414.468849	51.155000
1416.445020	48.690000
1418.420743	49.982000
1420.396016	48.047000
1422.368998	48.378000
1424.341532	47.876000
1426.313619	48.359000
1428.285257	49.359000
1430.252767	48.168000
1432.225352	49.675000
1434.190130	49.815000
1436.159981	49.196000
1438.125707	47.631000
1440.092826	46.814000
1442.057662	48.643000
1444.018379	47.897000
1445.984163	47.435000
1447.943992	46.823000
1449.905214	49.374000
1451.867829	48.566000
1453.826329	46.251000
1455.784387	47.631000
1457.742002	47.146000
1459.699176	48.737000
1461.654074	49.972000
1463.610364	48.143000
1465.564380	47.408000
1467.517956	46.079000
1469.469259	48.272000
1471.421954	46.068000
1473.372378	46.998000
1475.322363	46.591000
1477.271908	47.138000
1479.219185	45.765000
1481.164195	46.546000
1483.110596	45.562000
1485.056561	46.375000
1487.002087	47.449000
1488.945349	47.745000
1490.888174	46.351000
1492.828736	46.979000
1494.770689	47.016000
1496.710381	48.590000
1498.649637	46.330000
1500.588458	47.298000
1502.525020	45.285000
1504.462973	47.795000
1506.398668	45.734000
1508.333929	48.199000
1510.266933	45.894000
1512.199505	46.519000
1514.131645	45.137000
1516.063353	47.975000
1517.992807	45.108000
1519.923652	47.364000
1521.854066	46.670000
1523.780406	47.573000
1525.708138	45.213000
1527.633619	47.016000
1529.558671	45.118000
1531.483294	46.105000
1533.407488	47.357000
1535.329435	46.618000
1537.252771	45.516000
1539.173862	46.653000
1541.092708	45.194000
1543.012944	46.760000
1544.930936	46.420000
1546.848502	46.221000
1548.763826	45.431000
1550.680540	47.642000
1552.593199	45.942000
1554.509062	45.949000
1556.422685	44.077000
1558.334071	47.807000
1560.246845	44.996000
1562.155570	44.211000
1564.065685	45.954000
1565.975376	46.315000
1567.884643	43.156000
1569.791677	46.224000
1571.696478	46.544000
1573.602668	47.362000
1575.506626	45.538000
1577.410164	47.946000
1579.313280	44.902000
1581.214168	47.508000
1583.116443	45.553000
1585.016491	45.146000
1586.917926	45.970000
1588.815328	45.833000
1590.712311	45.286000
1592.608876	46.282000
1594.506829	46.258000
1596.398947	45.386000
1598.294258	46.024000
1600.189152	46.291000
1602.081824	45.154000
1603.974080	47.200000
1605.864115	44.142000
1607.753736	46.239000
1609.642940	45.134000
1611.531730	46.800000
1613.418303	46.216000
1615.306262	45.696000
1617.190205	44.435000
1619.075536	45.558000
1620.960452	44.941000
1622.843155	45.078000
1624.727245	45.426000
1626.607324	45.890000
1628.488789	44.317000
1630.368044	44.846000
1632.248685	44.121000
1634.123522	46.048000
1636.003341	45.836000
1637.879154	45.324000
1639.754557	45.317000
1641.631347	46.643000
1643.502339	44.965000
1645.376513	46.026000
1647.246689	45.570000
1649.120045	45.453000
1650.991198	45.151000
1652.860149	46.312000
1654.730486	44.938000
1656.596829	47.556000
1658.464558	44.952000
1660.330089	46.800000
1662.197004	44.706000
1664.059931	46.581000
1665.924243	45.011000
1667.786359	44.915000
1669.648071	44.048000
1671.511167	44.644000
1673.372069	44.046000
1675.230777	44.511000
1677.089082	44.635000
1678.948772	44.383000
1680.802695	43.402000
1682.659790	45.647000
1684.516483	44.052000
1686.369200	45.027000
1688.225087	43.722000
1690.077001	45.056000
1691.928514	42.664000
1693.779626	43.812000
1695.630338	42.440000
1697.480649	43.421000
1699.328776	43.743000
1701.178286	47.152000
1703.022048	44.119000
1704.870759	44.715000
1706.713725	44.806000
1708.559856	44.549000
1710.402026	44.968000
1712.247360	44.559000
1714.086954	43.918000
1715.927932	45.169000
1717.770293	44.248000
1719.608698	43.327000
1721.448486	42.538000
1723.286099	44.424000
1725.123316	41.952000
1726.958360	45.861000
1728.794787	43.010000
1730.629042	43.462000
1732.462902	41.336000
1734.296369	43.054000
1736.125889	43.363000
1737.958568	43.947000
1739.787303	44.198000
1741.619196	43.902000
1743.447146	43.063000
1745.274704	44.490000
1747.101870	42.473000
1748.928645	43.658000
1750.755029	43.368000
1752.577476	41.847000
1754.403077	43.370000
1756.224744	43.673000
1758.047793	42.098000
1759.868681	43.123000
1761.689179	43.592000
1763.511059	43.716000
1765.327239	42.830000
1767.146571	44.313000
1768.961976	43.291000
1770.780531	41.816000
1772.595161	41.294000
1774.409405	43.968000
1776.223261	42.694000
1778.036731	44.027000
1779.848048	42.143000
1781.660746	43.317000
1783.473057	43.713000
1785.281451	44.900000
1787.091226	42.666000
1788.897085	44.173000
1790.706090	41.627000
1792.511182	43.646000
1794.317655	42.201000
1796.123744	43.923000
1797.925923	41.718000
1799.731245	44.593000
1801.532659	42.944000
1803.335453	43.220000
1805.134341	42.434000
1806.934610	43.949000
1808.734497	40.800000
1810.532243	43.986000
1812.329607	42.180000
1814.126592	44.175000
1815.923196	42.193000
1817.717661	45.549000
1819.513505	40.096000
1821.303695	43.311000
1823.098781	41.131000
1824.888214	43.611000
1826.680784	43.726000
1828.471219	43.730000
1830.259520	42.962000
1832.050956	43.034000
1833.836746	41.505000
1835.623916	44.666000
1837.408954	42.511000
1839.197126	44.162000
1840.981412	43.348000
1842.763569	44.048000
1844.547104	41.474000
1846.328511	42.439000
1848.111297	42.423000
1849.890203	43.614000
1851.670487	42.916000
1853.448645	44.673000
1855.228182	42.782000
1857.005594	44.081000
1858.780882	42.306000
1860.557549	42.834000
1862.332092	42.727000
1864.108014	42.195000
1865.878316	41.224000
1867.651744	42.041000
1869.423053	41.060000
1871.193992	42.676000
1872.966307	41.716000
1874.733010	42.938000
1876.502837	42.770000
1878.268801	43.515000
1880.037889	42.151000
1881.803115	42.271000
1883.567972	43.545000
1885.334207	43.283000
1887.096583	42.188000
1888.858592	44.904000
1890.620233	42.296000
1892.381508	42.948000
1894.142415	43.245000
1895.902956	43.877000
1897.661387	40.868000
1899.419453	43.178000
1901.175410	41.155000
1902.932745	42.099000
1904.689713	41.851000
1906.444576	43.584000
1908.197333	41.066000
1909.949727	44.832000
1911.703496	42.848000
1913.455162	44.778000
1915.204726	42.029000
1916.955666	42.413000
1918.706242	42.438000
1920.452979	42.889000
1922.201093	42.159000
1923.947107	44.932000
1925.694497	44.044000
1927.439788	43.837000
1929.182982	43.016000
1930.927552	42.770000
1932.670025	43.396000
1934.412138	42.951000
1936.153891	42.331000
1937.895285	43.437000
1939.634585	44.169000
1941.373525	42.401000
1943.112108	41.830000
1944.848598	44.687000
1946.584731	44.009000
1948.322238	43.331000
1950.055923	43.067000
1951.790983	44.490000
1953.523955	43.762000
1955.256570	44.037000
1956.988828	44.467000
1958.720730	44.782000
1960.450546	45.435000
1962.178278	43.660000
1963.907383	42.180000
1965.636134	45.950000
1967.362801	44.137000
1969.089114	44.612000
1970.816800	45.162000
1972.538950	44.817000
1974.264201	42.868000
1975.985646	44.761000
1977.710190	44.039000
1979.432655	45.622000
1981.151316	44.098000
1982.873076	44.600000
1984.591034	43.846000
1986.310365	47.773000
1988.025897	43.273000
1989.746250	45.720000
1991.462803	43.954000
1993.175561	45.048000
1994.891414	45.468000
1996.605194	45.624000
1998.318625	44.371000
2000.029985	47.103000
2001.742718	43.977000
2003.451659	44.999000
2005.163694	45.398000
2006.870219	45.988000
2008.579837	45.039000
2010.287387	44.292000
2011.994590	45.291000
2013.699727	46.521000
2015.404517	45.963000
2017.110679	44.518000
2018.813059	45.286000
2020.516811	47.109000
2022.218499	45.789000
2023.919843	45.899000
2025.620841	46.310000
2027.319779	47.560000
2029.020087	44.944000
2030.716621	44.445000
2032.414526	46.129000
2034.110372	45.130000
2035.809304	45.476000
2037.502750	47.317000
2039.197568	45.918000
2040.892042	45.822000
2042.582748	45.852000
2044.276538	46.517000
2045.966561	43.865000
2047.657955	46.296000
2049.347296	45.314000
2051.038007	46.144000
2052.724956	44.394000
2054.411564	46.319000
2056.099543	45.014000
2057.783762	45.326000
2059.469351	45.204000
2061.154601	45.721000
2062.837803	45.112000
2064.522374	45.325000
2066.201483	44.648000
2067.885377	45.559000
2069.563811	44.274000
2071.245321	47.898000
2072.923081	45.490000
2074.600503	44.690000
2076.279296	43.397000
2077.956045	45.746000
2079.630753	44.566000
2081.306830	45.797000
2082.980867	43.358000
2084.654568	46.072000
2086.327934	43.786000
2087.999262	45.107000
2089.670255	43.785000
2091.340914	45.565000
2093.011238	45.659000
2094.681229	46.558000
2096.349184	43.662000
2098.016806	45.495000
2099.682393	45.255000
2101.349350	45.987000
2103.014272	45.758000
2104.678863	45.987000
2106.341422	43.410000
2108.005349	47.548000
2109.667246	46.022000
2111.328811	48.344000
2112.990045	43.664000
2114.649251	45.970000
2116.308126	47.917000
2117.966672	47.160000
2119.624888	42.895000
2121.279380	46.848000
2122.936937	45.768000
2124.594165	46.719000
2126.247671	46.192000
2127.902545	45.583000
2129.553701	45.877000
2131.207918	47.229000
2132.858419	46.034000
2134.510286	46.944000
2136.156745	45.356000
2137.807959	46.621000
2139.455459	46.146000
2141.104326	47.994000
2142.751175	47.308000
2144.397697	47.074000
2146.043894	46.248000
2147.686383	47.916000
2149.331930	46.007000
2150.973770	46.324000
2152.618667	46.504000
2154.259859	48.070000
2155.900727	46.628000
2157.541271	47.359000
2159.179803	46.795000
2160.819702	46.182000
2162.455900	46.889000
2164.093464	46.753000
2165.730705	47.761000
2167.365937	47.197000
2169.000848	46.466000
2170.635437	47.933000
2172.269704	49.326000
2173.900279	47.715000
2175.533904	46.829000
2177.163838	51.090000
2178.795137	48.498000
2180.424432	48.778000
2182.053406	47.271000
2183.682062	48.550000
2185.310398	47.222000
2186.936731	49.710000
2188.562746	44.991000
2190.186760	49.523000
2191.812138	50.165000
2193.435517	47.237000
2195.060259	47.250000
2196.681321	48.116000
2198.302066	47.969000
2199.924176	48.060000
2201.544288	47.298000
2203.162403	49.412000
2204.780203	47.198000
2206.397688	46.882000
2208.014857	46.964000
2209.631711	48.717000
2211.248250	48.779000
2212.862795	47.110000
2214.475348	46.586000
2216.089265	49.035000
2217.701191	48.404000
2219.314480	46.830000
2220.925779	47.395000
2222.535088	49.561000
2224.145761	48.718000
2225.754445	47.953000
2227.362817	47.356000
2228.969201	48.394000
2230.576949	49.548000
2232.182710	49.909000
2233.788160	48.119000
2235.391625	50.032000
2236.996454	48.757000
2238.599298	50.809000
2240.200159	48.827000
2241.802383	51.424000
2243.402624	48.613000
2245.004228	50.799000
2246.602180	48.904000
2248.201494	51.016000
2249.798828	49.138000
2251.395853	50.980000
2252.994241	50.217000
2254.588980	52.402000
2256.181742	49.917000
2257.775867	50.061000
2259.371353	50.453000
2260.963195	49.454000
2262.554730	48.698000
2264.147626	50.646000
2265.735213	51.968000
2267.327497	51.061000
2268.914473	50.038000
2270.504478	53.168000
2272.089178	48.867000
2273.678572	52.272000
2275.262663	49.330000
2276.848116	51.399000
2278.431599	50.981000
2280.018109	51.394000
2281.600985	50.277000
2283.183557	51.035000
2284.765826	51.136000
2286.344466	51.846000
2287.926129	50.538000
2289.504164	51.540000
2291.085222	50.936000
2292.662654	49.399000
2294.238121	47.862000
2295.816611	50.069000
2297.391477	51.306000
2298.966042	50.829000
2300.540307	51.015000
2302.114271	51.105000
2303.687935	51.045000
2305.261298	50.642000
2306.831043	51.485000
2308.400489	52.628000
2309.972954	51.207000
2311.540143	53.488000
2313.110351	52.124000
2314.676944	52.794000
2316.244897	50.457000
2317.810894	54.162000
2319.376594	51.713000
2320.941997	53.905000
2322.505445	52.500000
2324.070253	52.644000
2325.631453	52.257000
2327.195667	54.428000
2328.754620	52.821000
2330.316586	54.889000
2331.876602	52.021000
2333.436322	54.349000
2334.994093	53.015000
2336.551569	57.101000
2338.108751	53.675000
2339.663986	55.151000
2341.218926	54.005000
2342.773573	52.967000
2344.327926	54.294000
2345.881985	56.733000
2347.435750	55.105000
2348.987572	54.871000
2350.537450	54.362000
2352.090336	55.038000
2353.637980	53.012000
2355.188631	54.928000
2356.735692	53.279000
2358.284110	55.025000
2359.832236	53.653000
2361.376774	53.128000
2362.922671	55.230000
2364.466628	55.140000
2366.011943	53.526000
2367.553673	53.834000
2369.096760	52.699000
2370.637912	54.828000
2372.178774	54.393000
2373.719347	56.512000
2375.259631	54.765000
2376.799625	52.768000
2378.336042	54.512000
2379.875460	57.490000
2381.411301	53.607000
2382.948498	54.493000
2384.482120	54.990000
2386.018743	55.601000
2387.553434	54.212000
2389.086196	56.266000
2390.618671	55.336000
2392.149219	55.745000
2393.682764	54.832000
2395.211098	56.549000
2396.740788	56.236000
2398.270193	57.801000
2399.799312	56.859000
2401.328147	57.084000
2402.851776	56.240000
2404.380042	56.414000
2405.903104	56.066000
2407.430800	56.885000
2408.951657	55.990000
2410.477147	58.985000
2411.999076	57.935000
2413.522361	57.803000
2415.043725	55.430000
2416.563169	58.007000
2418.083968	57.377000
2419.602848	57.840000
2421.121446	56.772000
2422.638127	58.472000
2424.156162	59.330000
2425.673916	58.377000
2427.188119	58.459000
2428.702041	60.787000
2430.215683	57.170000
2431.730680	59.987000
2433.242128	56.675000
2434.754931	61.026000
2436.265821	59.570000
2437.776431	58.985000
2439.285130	58.327000
2440.796816	60.451000
2442.304957	60.291000
2443.812821	61.671000
2445.320407	59.409000
2446.824452	61.743000
2448.331483	60.782000
2449.836605	61.860000
2451.341450	62.073000
2452.844388	62.736000
2454.347049	63.262000
2455.849434	64.355000
2457.349914	62.673000
2458.851747	64.655000
2460.351676	63.466000
2461.851329	65.495000
2463.350706	63.930000
2464.848181	63.652000
2466.343755	61.519000
2467.842308	65.668000
2469.337332	61.456000
2470.833710	61.496000
2472.326561	62.182000
2473.820764	63.481000
2475.314694	60.765000
2476.805101	60.898000
2478.298484	61.121000
2479.789970	59.744000
2481.279559	59.670000
2482.768876	61.933000
2484.256298	58.985000
2485.746695	61.086000
2487.233573	60.679000
2488.721803	61.916000
2490.206517	60.452000
2491.690960	61.693000
2493.176755	59.952000
2494.660657	61.198000
2496.145911	59.528000
2497.626031	61.756000
2499.109123	59.561000
2500.590325	59.148000
2502.071258	58.425000
2503.550302	60.625000
2505.029077	57.235000
2506.507584	59.469000
2507.985823	58.408000
2509.463793	58.552000
2510.938259	55.707000
2512.415693	58.751000
2513.889624	57.603000
2515.364906	59.026000
2516.839920	56.874000
2518.311433	58.926000
2519.784296	56.511000
2521.255277	57.245000
2522.727608	55.577000
2524.194826	57.234000
2525.665009	54.325000
2527.133312	56.168000
2528.601350	54.766000
2530.069123	56.650000
2531.536631	53.236000
2533.003874	54.256000
2534.467625	53.180000
2535.932726	53.658000
2537.395950	52.892000
2538.860524	55.068000
2540.321608	52.958000
2541.784042	54.823000
2543.246213	53.469000
2544.704898	55.691000
2546.168155	53.778000
2547.626315	54.295000
2549.085824	55.164000
2550.540240	53.447000
2551.999225	54.716000
2553.456339	55.223000
2554.911582	53.318000
2556.366564	55.921000
2557.819676	53.275000
2559.274137	56.227000
2560.726729	53.131000
2562.179061	54.569000
2563.629525	53.003000
2565.082945	56.554000
2566.531283	54.143000
2567.982577	53.910000
2569.432004	54.833000
2570.877959	56.006000
2572.326870	53.185000
2573.772309	53.377000
2575.219097	54.448000
2576.664021	54.121000
2578.108688	54.060000
2579.554702	54.376000
2580.997249	52.872000
2582.441144	54.107000
2583.881574	54.702000
2585.323351	54.103000
2586.763269	52.712000
2588.204534	52.775000
2589.642338	52.973000
2591.083091	53.987000
2592.518781	52.653000
2593.957421	56.028000
2595.394204	54.219000
2596.829130	53.995000
2598.267005	53.149000
2599.699821	54.743000
2601.133985	53.828000
2602.566295	54.823000
2603.999951	53.720000
2605.431754	53.760000
2606.863304	51.879000
2608.294600	55.340000
2609.724044	53.780000
2611.153237	54.620000
2612.580578	53.346000
2614.009266	55.145000
2615.437701	51.995000
2616.862689	56.091000
2618.289024	53.696000
2619.713510	54.125000
2621.139342	52.675000
2622.561730	55.301000
2623.985464	52.785000
2625.407351	53.875000
2626.828989	52.725000
2628.248781	52.946000
2629.669919	54.292000
2631.090807	54.386000
2632.508257	52.722000
2633.928646	53.966000
2635.345598	53.306000
2636.762302	53.994000
2638.178757	52.045000
2639.594964	52.912000
2641.010922	52.865000
2642.425040	54.207000
2643.838911	53.541000
2645.250942	53.939000
2646.664318	53.636000
2648.074264	53.977000
2649.487145	52.682000
2650.896599	54.542000
2652.305806	54.321000
2653.713177	53.219000
2655.123482	51.663000
2656.531951	53.174000
2657.938585	54.059000
2659.344974	53.769000
2660.749529	54.728000
2662.155428	55.269000
2663.559494	53.929000
2664.963316	56.840000
2666.366893	55.711000
2667.768638	55.378000
2669.171727	55.012000
2670.571399	53.800000
2671.972413	53.068000
2673.370012	53.760000
2674.770541	51.262000
2676.167655	51.396000
2677.566112	51.530000
2678.962741	50.220000
2680.359128	51.280000
2681.755274	51.814000
2683.149593	49.555000
2684.545255	51.255000
2685.937507	49.558000
2687.331103	50.493000
2688.722874	51.187000
2690.115987	50.522000
2691.507277	48.639000
2692.896744	51.064000
2694.285971	50.227000
2695.674959	50.706000
2697.065289	48.073000
2698.450634	47.989000
2699.838903	48.969000
2701.225352	51.393000
2702.611562	48.469000
2703.997534	49.086000
2705.380106	48.673000
2706.764021	49.766000
2708.147698	49.145000
2709.531137	50.876000
2710.911180	49.513000
2712.292565	49.328000
2713.672134	49.322000
2715.053045	49.319000
2716.432141	50.339000
2717.809422	50.712000
2719.188045	48.005000
2720.564855	51.368000
2721.941429	50.209000
2723.317767	51.291000
2724.692293	48.536000
2726.068160	51.491000
2727.440640	49.370000
2728.816036	51.660000
2730.186472	49.332000
2731.558249	52.878000
2732.929791	51.319000
2734.299525	51.679000
2735.670600	51.257000
2737.039867	53.647000
2738.408900	51.032000
2739.776126	51.487000
2741.143120	50.632000
2742.509881	53.611000
2743.876409	49.301000
2745.241132	53.452000
2746.605624	51.124000
2747.969883	51.736000
2749.333910	51.827000
2750.697706	53.279000
2752.058128	51.104000
2753.421461	52.916000
2754.779851	51.161000
2756.141151	54.586000
2757.499080	51.836000
2758.859919	50.140000
2760.218957	51.528000
2761.574627	51.336000
2762.933205	49.130000
2764.288417	50.579000
2765.643399	51.044000
2766.996584	52.184000
2768.352676	50.988000
2769.705404	52.966000
2771.057903	52.374000
2772.410174	52.373000
2773.763784	52.093000
2775.114032	52.090000
2776.462487	51.314000
2777.813846	53.359000
2779.161846	52.026000
2780.511185	50.471000
2781.858731	51.273000
2783.206050	53.361000
2784.553143	52.323000
2785.898445	52.284000
2787.243521	50.157000
2788.588371	53.191000
2789.932994	51.611000
2791.274266	52.400000
2792.616876	52.189000
2793.959260	52.499000
2795.301420	51.231000
2796.640230	52.326000
2797.981939	51.120000
2799.320301	51.312000
2800.660000	52.275000
2801.997913	54.889000
2803.334042	51.542000
2804.669947	52.714000
2806.007190	52.322000
2807.342649	55.182000
2808.677885	51.477000
2810.011338	53.033000
2811.346129	55.201000
2812.677578	53.153000
2814.011923	53.849000
2815.341370	54.395000
2816.672154	53.753000
2818.002716	53.006000
2819.331499	53.348000
2820.661618	55.451000
2821.989959	52.971000
2823.318079	53.772000
2824.644422	52.514000
2825.972100	54.829000
2827.296446	51.800000
2828.622127	53.107000
2829.946033	53.446000
2831.269720	55.749000
2832.594742	53.835000
2833.916434	52.813000
2835.237908	54.168000
2836.559163	54.186000
2837.880199	53.300000
2839.199463	54.639000
2840.520062	54.096000
2841.838889	54.156000
2843.157498	54.215000
2844.474336	53.854000
2845.790958	53.083000
2847.107361	54.743000
2848.421996	53.620000
2849.737965	55.114000
2851.050614	53.282000
2852.364599	53.190000
2853.678366	53.842000
2854.991918	53.014000
2856.303702	52.625000
2857.613720	54.919000
2858.925073	53.242000
2860.233111	55.953000
2861.542484	54.553000
2862.851641	55.565000
2864.160583	53.900000
2865.467762	54.719000
2866.773177	54.536000
2868.079927	54.679000
2869.384914	54.781000
2870.689688	56.068000
2871.992700	55.087000
2873.298594	54.938000
2874.599632	54.184000
2875.902005	56.562000
2877.202618	55.043000
2878.504565	56.689000
2879.806299	54.586000
2881.104728	55.760000
2882.404492	55.071000
2883.702497	54.174000
2885.000291	54.494000
2886.296329	56.033000
2887.593700	53.123000
2888.889315	55.112000
2890.184719	54.607000
2891.479913	56.769000
2892.771808	54.746000
2894.066580	55.812000
2895.358055	54.490000
2896.650863	55.315000
2897.943461	54.519000
2899.232765	56.180000
2900.523401	54.071000
2901.812286	55.149000
2903.102504	54.279000
2904.389430	56.773000
2905.677688	53.266000
2906.964196	57.109000
2908.250497	54.509000
2909.536589	55.351000
2910.820933	54.153000
2912.108149	56.424000
2913.390537	56.415000
2914.674258	56.088000
2915.956233	53.718000
2917.238001	54.406000
2918.518023	55.831000
2919.800915	55.694000
2921.082062	54.221000
2922.359927	55.371000
2923.640661	53.456000
2924.918114	57.389000
2926.195361	54.992000
2927.470867	55.820000
2928.749240	53.525000
2930.022798	55.856000
2931.299224	55.220000
2932.573909	55.950000
2933.846854	55.694000
2935.121129	57.296000
2936.393665	52.743000
2937.665997	55.165000
2938.935055	55.569000
2940.206979	55.859000
2941.477165	54.027000
2942.747148	57.205000
2944.016927	53.645000
2945.284969	52.907000
2946.551276	54.056000
2947.817380	55.384000
2949.084814	54.014000
2950.350514	56.636000
2951.616011	54.367000
2952.881306	55.696000
2954.143336	52.626000
2955.406697	54.026000
2956.669855	53.671000
2957.931282	55.388000
2959.194038	53.871000
2960.455063	55.961000
2961.714356	53.607000
2962.973450	55.024000
2964.232343	55.190000
2965.491036	55.691000
2966.749529	53.520000
2968.006293	54.938000
2969.262857	55.009000
2970.517694	55.632000
2971.773860	53.923000
2973.026770	55.866000
2974.281010	55.800000
2975.535051	55.735000
2976.787366	53.430000
2978.039483	55.968000
2979.289875	55.552000
2980.543122	55.620000
2981.791592	53.727000
2983.042916	55.493000
2984.290992	55.110000
2985.538870	55.868000
2986.786551	53.126000
2988.034036	56.298000
2989.279799	53.752000
2990.525365	56.449000
2991.772259	55.278000
2993.015909	55.104000
2994.260887	54.893000
2995.502622	56.006000
2996.747208	56.129000
2997.990074	56.490000
2999.229700	54.520000
3000.472176	54.949000
3001.711413	55.755000
3002.951977	55.298000
3004.190824	54.641000
3005.429477	56.208000
3006.666414	55.240000
3007.904678	55.310000
3009.141228	56.396000
3010.377583	54.129000
3011.613745	54.561000
3012.848194	56.235000
3014.082449	56.548000
3015.316511	56.072000
3016.548861	55.193000
3017.779499	56.931000
3019.012983	53.685000
3020.244755	55.712000
3021.474817	55.651000
3022.704687	55.358000
3023.932847	55.226000
3025.162333	57.297000
3026.390111	55.173000
3027.617697	57.504000
3028.846609	56.224000
3030.070779	56.224000
3031.297792	55.183000
3032.521581	57.945000
3033.746697	57.209000
3034.970106	56.203000
3036.193326	56.955000
3037.414840	56.173000
3038.639195	53.714000
3039.858815	56.659000
3041.079760	56.582000
3042.300517	58.045000
3043.519570	56.307000
3044.739949	56.071000
3045.957111	56.446000
3047.175598	57.037000
3048.392384	56.011000
3049.608981	56.193000
3050.825390	56.729000
3052.038587	57.710000
3053.254621	57.588000
3054.467443	57.850000
3055.683102	57.080000
3056.894038	55.953000
3058.106299	56.256000
3059.318374	57.965000
3060.530262	56.270000
3061.740452	57.758000
3062.950456	55.365000
3064.160275	55.634000
3065.368397	56.118000
3066.576333	56.958000
3067.782575	56.314000
3068.990140	57.459000
3070.196012	58.294000
3071.401698	59.129000
3072.607199	56.906000
3073.811007	57.132000
3075.016139	57.497000
3076.219579	58.211000
3077.421326	56.217000
3078.622890	58.353000
3079.824270	55.880000
3081.025466	57.407000
3082.224972	55.803000
3083.424294	57.467000
3084.624940	58.141000
3085.823896	58.411000
3087.019658	57.040000
3088.218249	56.332000
3089.413646	56.261000
3090.610366	57.388000
3091.803894	55.759000
3093.000251	56.679000
3094.194920	57.873000
3095.386399	56.977000
3096.582209	57.166000
3097.773326	59.283000
3098.965765	58.216000
3100.155017	58.191000
3101.347095	57.135000
3102.537488	59.801000
3103.724696	58.060000
3104.913227	59.456000
3106.103080	57.088000
3107.289748	58.420000
3108.476237	58.039000
3109.662546	58.011000
3110.850177	57.009000
3112.034627	60.098000
3113.217396	57.480000
3114.402989	57.081000
3115.586901	57.017000
3116.769135	58.570000
3117.951190	56.774000
3119.133068	59.344000
3120.314767	57.360000
3121.494788	58.914000
3122.673133	58.478000
3123.854299	58.078000
3125.032289	57.570000
3126.210102	58.917000
3127.387738	58.325000
3128.563699	57.997000
3129.739483	57.300000
3130.916589	58.127000
3132.092020	56.700000
3133.265778	56.654000
3134.437864	55.184000
3135.611270	58.827000
3136.784501	58.254000
3137.956059	58.491000
3139.128939	57.244000
3140.298651	60.142000
3141.469684	55.634000
3142.639046	59.336000
3143.806739	57.664000
3144.977247	60.597000
3146.143096	57.059000
3147.313255	59.200000
3148.478756	58.481000
3149.644084	58.404000
3150.809238	56.381000
3151.974218	59.989000
3153.140519	56.352000
3154.302166	61.397000
3155.465134	56.356000
3156.627928	57.790000
3157.790550	56.250000
3158.951507	57.038000
3160.112291	57.058000
3161.272903	59.151000
3162.431852	55.145000
3163.590628	56.337000
3164.749233	56.934000
3165.907666	56.660000
3167.065927	56.216000
3168.222526	57.816000
3169.377464	56.783000
3170.533721	54.317000
3171.688318	56.540000
3172.842743	55.906000
3173.995509	56.241000
3175.148105	57.843000
3176.300530	56.724000
3177.452786	57.380000
3178.604872	55.349000
3179.753811	55.878000
3180.905557	55.952000
3182.055645	57.668000
3183.204077	57.478000
3184.352340	57.158000
3185.500433	57.445000
3186.648358	56.997000
3187.794628	57.960000
3188.940729	57.737000
3190.085175	56.714000
3191.229454	58.825000
3192.373565	57.732000
3193.518994	58.778000
3194.661283	57.450000
3195.803406	58.003000
3196.945361	57.833000
3198.087150	58.813000
3199.228771	58.797000
3200.367256	58.103000
3201.507059	58.969000
3202.648180	58.331000
3203.786166	58.823000
3204.922503	58.836000
3206.058674	56.807000
3207.196163	60.021000
3208.332002	57.901000
3209.469159	59.426000
3210.601703	58.314000
3211.738529	58.941000
3212.870743	57.327000
3214.004275	59.192000
3215.137641	56.736000
3216.267880	58.005000
3217.400917	57.948000
3218.530828	57.002000
3219.662056	56.298000
3220.790158	58.625000
3221.921057	55.770000
3223.050313	56.373000
3224.177924	55.457000
3225.302414	59.008000
3226.431179	55.935000
3227.556822	57.098000
3228.682302	56.705000
3229.806141	58.665000
3230.932774	56.895000
3232.054810	57.570000
3233.178162	56.892000
3234.301352	56.953000
3235.424380	55.084000
3236.545768	56.740000
3237.666995	58.292000
3238.786583	57.216000
3239.906010	57.256000
3241.023799	57.552000
3242.144381	56.463000
3243.261848	57.312000
3244.379156	57.066000
3245.496302	59.187000
3246.611813	57.369000
3247.728639	57.807000
3248.842354	58.683000
3249.958860	59.154000
3251.073730	58.275000
3252.185492	59.701000
3253.297095	57.892000
3254.410012	59.706000
3255.522771	58.382000
3256.632423	59.933000
3257.743390	60.046000
3258.854197	59.806000
3259.963374	57.115000
3261.070919	59.812000
3262.179779	58.954000
3263.288480	59.478000
3264.394079	58.979000
3265.500992	58.758000
3266.606277	59.790000
3267.712875	60.282000
3268.816373	60.751000
3269.921185	58.448000
3271.025840	61.108000
3272.127396	59.291000
3273.228797	59.745000
3274.331511	59.831000
3275.434068	56.689000
3276.533530	61.632000
3277.635774	60.325000
3278.734923	59.399000
3279.832448	60.734000
3280.929817	59.811000
3282.029969	60.965000
3283.127027	60.716000
3284.223930	58.865000
3285.320679	59.942000
3286.412868	60.177000
3287.509306	60.941000
3288.604123	57.268000
3289.698784	60.250000
3290.791824	58.565000
3291.884710	60.683000
3292.975975	59.012000
3294.068553	60.994000
3295.159510	60.423000
3296.248848	59.770000
3297.338033	59.076000
3298.428531	59.455000
3299.515944	59.929000
3300.603205	61.153000
3301.691778	60.011000
3302.780198	60.054000
3303.864071	60.061000
3304.952186	61.544000
3306.037220	59.549000
3307.120637	60.502000
3308.205367	60.663000
3309.288482	60.467000
3310.372908	59.606000
3311.454256	60.922000
3312.536916	61.689000
3313.617962	59.257000
3314.698857	61.431000
3315.778139	60.721000
3316.857270	60.115000
3317.937712	60.039000
3319.015081	60.979000
3320.093760	62.456000
3321.170829	60.331000
3322.247747	60.476000
3323.323054	61.132000
3324.398212	61.145000
3325.474681	61.029000
3326.548080	61.909000
3327.621330	59.637000
3328.695891	62.083000
3329.768842	59.900000
3330.840186	62.029000
3331.912840	61.410000
3332.982427	60.954000
3334.053325	58.241000
3335.122616	61.371000
3336.193218	59.731000
3337.262213	60.933000
3338.329602	58.816000
3339.395386	59.494000
3340.465396	59.675000
3341.532343	61.152000
3342.596228	60.915000
3343.662881	62.257000
3344.727929	60.303000
3345.791374	61.463000
3346.854673	59.203000
3347.917826	60.246000
3348.980832	59.218000
3350.043691	60.445000
3351.104949	59.881000
3352.163150	61.990000
3353.225572	60.268000
3354.284937	59.622000
3355.344157	59.774000
3356.404687	61.512000
3357.460707	61.739000
3358.519492	62.261000
3359.573769	60.584000
3360.630809	62.370000
3361.686252	60.924000
3362.743003	62.083000
3363.798157	60.957000
3364.851713	61.352000
3365.903672	60.720000
3366.958393	61.732000
3368.010065	59.420000
3369.061594	61.124000
3370.114432	62.039000
3371.164222	62.705000
3372.215320	60.012000
3373.263373	63.030000
3374.314186	60.770000
3375.361953	62.022000
3376.409578	61.566000
3377.457060	61.141000
3378.502950	60.575000
3379.550148	64.060000
3380.594304	60.932000
3381.641218	61.365000
3382.686540	61.243000
3383.728822	63.427000
3384.770962	60.954000
3385.814410	62.205000
3386.857718	61.354000
3387.899435	62.628000
3388.941011	60.826000
3389.982447	61.843000
3391.022293	62.617000
3392.060552	62.614000
3393.100118	60.836000
3394.139543	62.913000
3395.177381	61.481000
3396.213633	63.949000
3397.249744	61.644000
3398.287163	65.148000
3399.321549	60.575000
3400.357242	63.561000
3401.392796	62.028000
3402.425319	62.484000
3403.460595	62.268000
3404.492840	62.684000
3405.524947	63.992000
3406.555470	65.011000
3407.587301	61.186000
3408.618992	61.624000
3409.647657	59.196000
3410.676183	63.524000
3411.706017	61.384000
3412.735712	63.003000
3413.762382	61.314000
3414.790359	63.572000
3415.815311	62.638000
3416.843013	63.144000
3417.867692	62.898000
3418.893677	65.857000
3419.918082	63.536000
3420.942351	64.227000
3421.965041	62.965000
3422.987595	62.197000
3424.011455	62.083000
3425.032295	64.669000
3426.053000	62.324000
3427.075010	63.798000
3428.094002	60.511000
3429.112859	61.913000
3430.133021	63.323000
3431.150167	62.446000
