-118.106446	-1.267000
-115.436846	0.278000
-112.770181	0.550000
-110.104268	0.761000
-107.441287	0.478000
-104.776877	0.136000
-102.115397	0.452000
-99.452487	1.481000
-96.794685	-0.691000
-94.135452	0.093000
-91.476968	-0.285000
-88.821409	-0.097000
-86.164421	-2.553000
-83.512530	-0.956000
-80.859210	-1.430000
-78.208810	1.044000
-75.556980	-0.159000
-72.910241	0.599000
-70.262072	-0.207000
-67.614647	-1.512000
-64.970135	-1.463000
-62.324195	1.737000
-59.683336	0.213000
-57.041048	-0.842000
-54.401668	-0.620000
-51.760860	0.327000
-49.120792	-1.168000
-46.485796	0.283000
-43.849371	-0.389000
-41.215850	-0.770000
-38.580900	1.455000
-35.951015	-0.314000
-33.317538	0.400000
-30.689123	-0.747000
-28.061441	0.132000
-25.432332	0.616000
-22.808279	-0.941000
-20.180637	0.786000
-17.558048	0.969000
-14.936191	-0.468000
-12.315064	-0.729000
-9.694667	-0.142000
-7.077158	2.388000
-4.458221	4.439000
-1.842170	12.227000
0.773153	15.330000
3.387749	6.117000
5.999462	1.435000
8.612604	-0.692000
11.220712	0.600000
13.832402	0.734000
16.439061	1.697000
19.047148	1.172000
21.654511	0.176000
24.256849	-0.028000
26.862765	0.203000
29.463659	-0.534000
32.065981	1.257000
34.663286	0.150000
37.264166	0.965000
39.860032	0.295000
42.457325	-0.874000
45.053899	0.317000
47.645464	0.440000
50.238457	1.000000
52.828589	0.411000
55.420149	0.783000
58.008849	-0.459000
60.598976	-0.094000
63.184105	1.291000
65.770660	0.464000
68.356502	0.606000
70.939490	1.117000
73.523905	1.044000
76.101190	0.352000
78.682042	-0.287000
81.260045	-0.165000
83.837338	0.852000
86.416057	0.470000
88.989795	1.286000
91.564959	-0.355000
94.137280	1.270000
96.708893	-0.280000
99.277666	1.221000
101.847866	0.986000
104.415228	0.690000
106.984015	1.242000
109.549966	0.269000
112.113082	-0.025000
114.679754	2.792000
117.237205	-0.771000
119.800341	2.937000
122.358518	3.835000
124.920248	5.153000
127.477023	5.266000
130.035223	11.195000
132.588471	14.904000
135.141020	23.527000
137.697120	31.699000
140.248273	44.331000
142.798727	53.505000
145.348485	63.346000
147.895423	67.989000
150.441665	73.133000
152.989333	71.992000
155.536306	76.967000
158.078342	76.174000
160.619685	74.885000
163.160335	76.411000
165.702411	76.634000
168.241676	74.571000
170.778131	78.255000
173.313896	76.092000
175.851086	77.183000
178.387584	75.851000
180.921277	76.205000
183.452167	74.307000
185.982368	77.085000
188.513994	76.613000
191.042819	74.538000
193.568845	75.396000
196.094186	73.876000
198.620951	74.094000
201.144919	76.574000
203.668203	75.174000
206.190802	75.621000
208.710608	75.866000
211.229731	75.495000
213.748171	75.163000
216.268035	76.080000
218.780898	74.946000
221.297292	76.295000
223.813004	74.746000
226.323827	74.875000
228.836074	76.198000
231.345538	74.743000
233.854324	74.944000
236.362432	76.834000
238.871963	76.398000
241.376615	73.393000
243.880590	75.544000
246.385989	74.062000
248.886513	75.909000
251.390560	76.092000
253.887637	74.480000
256.388236	76.429000
258.886064	74.402000
261.383219	74.526000
263.879701	76.024000
266.371320	73.986000
268.866459	75.304000
271.358832	73.941000
273.850534	74.087000
276.339473	74.487000
278.829835	74.242000
281.317436	72.756000
283.802277	74.851000
286.290632	74.536000
288.772048	73.895000
291.256978	73.767000
293.737063	70.733000
296.220660	72.948000
298.699414	73.662000
301.179592	72.961000
303.657017	71.826000
306.133779	73.259000
308.609878	73.168000
311.083228	71.957000
313.555916	72.952000
316.027943	73.249000
318.499309	73.265000
320.967931	72.765000
323.435893	74.636000
325.905278	73.424000
328.369840	72.835000
330.837905	73.304000
333.301151	71.909000
335.763740	73.738000
338.225671	73.048000
340.686946	73.309000
343.145487	73.447000
345.605450	72.903000
348.062680	71.809000
350.519256	73.492000
352.975178	73.391000
355.428371	69.791000
357.882985	71.314000
360.332798	70.848000
362.786108	70.741000
365.234618	70.944000
367.682478	71.449000
370.131759	72.342000
372.576247	70.976000
375.022157	71.578000
377.467418	71.149000
379.909960	70.838000
382.351854	70.222000
384.793100	69.035000
387.231631	70.471000
389.671584	69.750000
392.108823	69.708000
394.543350	68.849000
396.981365	70.533000
399.414603	71.830000
401.849263	70.776000
404.279149	70.560000
406.712521	70.192000
409.141123	70.957000
411.569084	70.124000
413.998465	71.050000
416.423081	69.998000
418.849119	69.995000
421.274516	69.565000
423.699273	70.244000
426.119272	70.146000
428.540692	71.286000
430.959415	70.101000
433.379559	69.405000
435.797008	70.832000
438.215877	69.421000
440.632053	71.483000
443.043482	70.239000
445.458387	69.961000
447.870602	72.095000
450.282183	70.181000
452.693130	72.605000
455.101391	70.425000
457.509019	69.392000
459.916016	70.286000
462.322380	71.014000
464.726062	72.118000
467.129114	71.049000
469.531536	71.683000
471.933329	70.540000
474.332443	69.269000
476.732977	69.483000
479.132882	70.439000
481.528064	70.104000
483.926713	68.215000
486.320642	70.388000
488.713945	69.378000
491.106622	68.545000
493.498674	69.754000
495.892145	69.026000
498.280903	69.772000
500.666995	69.341000
503.054507	67.846000
505.441395	68.755000
507.825620	68.340000
510.211264	68.842000
512.594245	69.521000
514.974566	68.924000
517.356306	70.974000
519.735387	69.302000
522.115887	66.629000
524.493729	69.263000
526.868916	68.982000
529.243485	69.439000
531.619473	67.779000
533.992807	70.160000
536.367559	68.128000
538.737626	66.740000
541.107077	67.028000
543.477946	68.821000
545.844135	68.220000
548.211742	69.779000
550.576703	69.429000
552.941051	67.306000
555.304787	68.116000
557.669940	65.378000
560.030420	68.333000
562.392319	70.677000
564.751578	68.214000
567.108198	68.491000
569.468263	67.586000
571.821638	66.938000
574.178457	68.177000
576.532640	68.012000
578.886216	67.510000
581.239183	69.129000
583.589519	66.816000
585.941271	68.733000
588.286347	66.965000
590.636887	67.408000
592.980754	65.730000
595.330081	65.336000
597.674761	66.426000
600.016815	66.800000
602.360287	67.072000
604.701136	68.377000
607.041383	66.011000
609.379009	67.078000
611.720070	66.915000
614.056494	66.544000
616.394334	68.148000
618.729556	67.315000
621.062163	65.995000
623.396186	67.359000
625.727596	66.206000
628.058407	68.541000
630.388620	65.838000
632.718235	65.241000
635.043228	65.826000
637.373662	67.954000
639.699474	66.430000
642.022680	66.255000
644.347301	66.193000
646.669318	66.704000
648.990740	65.596000
651.309559	66.629000
653.629794	65.846000
655.949436	65.246000
658.266477	64.849000
660.582926	64.663000
662.896778	65.250000
665.212044	64.626000
667.524714	67.496000
669.838799	65.377000
672.148284	65.157000
674.459185	65.858000
676.767493	65.003000
679.075213	66.165000
681.384348	64.739000
683.688890	64.202000
685.992845	63.605000
688.296215	65.783000
690.600999	64.003000
692.901197	64.816000
695.202809	64.335000
697.503837	65.753000
699.800282	63.723000
702.098143	64.913000
704.395420	66.366000
706.692114	63.755000
708.984232	63.556000
711.279761	64.586000
713.570717	63.794000
715.863087	64.516000
718.152881	64.167000
720.442096	65.558000
722.730730	63.375000
725.016793	65.633000
727.304269	64.542000
729.589175	65.159000
731.873502	64.479000
734.155261	64.934000
736.438434	62.156000
738.721030	64.045000
740.999071	62.869000
743.278525	64.932000
745.557404	64.934000
747.835707	63.719000
750.109461	64.897000
752.384629	64.853000
754.659223	65.227000
756.931258	64.659000
759.204705	62.473000
761.475595	65.161000
763.743929	64.053000
766.013676	64.217000
768.280869	63.073000
770.547491	63.393000
772.813544	64.809000
775.077044	63.043000
777.341958	63.682000
779.606302	64.567000
781.866117	64.044000
784.127345	64.311000
786.388005	63.723000
788.646118	63.383000
790.901687	62.539000
793.160647	63.163000
795.413108	63.903000
797.670936	61.925000
799.924244	62.747000
802.175013	65.042000
804.427194	62.280000
806.676837	62.887000
808.927891	61.588000
811.174434	63.147000
813.422389	62.998000
815.667810	63.249000
817.914642	61.088000
820.160913	63.777000
822.402680	62.258000
824.647829	62.653000
826.886506	62.581000
829.128566	63.187000
831.366127	61.905000
833.605099	59.884000
835.841545	63.712000
838.079402	63.812000
840.314735	60.926000
842.547543	62.233000
844.781763	62.898000
847.013461	62.537000
849.244604	64.072000
851.475192	64.164000
853.705226	62.765000
855.934705	62.561000
858.159703	62.274000
860.388076	62.086000
862.611970	62.683000
864.837274	63.370000
867.058103	62.073000
869.282304	63.020000
871.502032	60.655000
873.723171	62.934000
875.943759	62.606000
878.161837	61.994000
880.381326	61.254000
882.596348	61.778000
884.810822	59.915000
887.024749	62.620000
889.238128	60.656000
891.450960	61.864000
893.663246	61.228000
895.873029	60.588000
898.082267	61.733000
900.290960	61.247000
902.497154	60.622000
904.704757	60.242000
906.909863	60.558000
909.114425	63.312000
911.316491	61.680000
913.519967	62.891000
915.720949	61.595000
917.921390	60.504000
920.123239	60.147000
922.318696	62.454000
924.517513	60.234000
926.711891	61.732000
928.909627	60.688000
931.102927	59.087000
933.297636	60.699000
935.489859	61.561000
937.681544	60.352000
939.872691	60.966000
942.061355	60.804000
944.249482	62.553000
946.435129	60.657000
948.624128	59.800000
950.808704	58.496000
952.992745	61.122000
955.180136	60.857000
957.359223	61.405000
959.541661	59.674000
961.723565	62.672000
963.902995	61.827000
966.079952	63.381000
968.258316	60.298000
970.438088	59.964000
972.611511	61.348000
974.788280	63.052000
976.960643	61.178000
979.134412	60.050000
981.303778	60.697000
983.476489	61.510000
985.646733	60.971000
987.816449	62.926000
989.985636	60.729000
992.150426	61.832000
994.318557	60.939000
996.482294	60.261000
998.647437	59.679000
1000.810122	59.828000
1002.972280	61.051000
1005.131982	61.446000
1007.291160	61.150000
1009.451744	61.054000
1011.609873	58.634000
1013.767478	60.114000
1015.924560	59.414000
1018.081119	59.930000
1020.233298	59.631000
1022.386883	60.315000
1024.539947	59.578000
1026.690563	60.085000
1028.842584	59.387000
1030.990232	58.901000
1033.141212	59.893000
1035.287821	60.230000
1037.433912	59.823000
1039.579483	59.842000
1041.726460	58.941000
1043.867149	59.937000
1046.011166	60.123000
1048.152743	58.500000
1050.293804	58.462000
1052.436269	59.070000
1054.572455	60.608000
1056.711967	61.044000
1058.847123	58.948000
1060.985604	60.383000
1063.119731	59.104000
1065.253345	61.151000
1067.388364	59.925000
1069.519033	60.750000
1071.651107	60.732000
1073.780752	60.723000
1075.909885	58.078000
1078.038506	61.490000
1080.166616	59.546000
1082.292300	58.464000
1084.417474	58.846000
1086.544052	59.826000
1088.666293	58.585000
1090.789937	59.853000
1092.909248	59.581000
1095.033787	59.120000
1097.152081	59.585000
1099.271780	60.330000
1101.389060	59.724000
1103.505834	60.799000
1105.622101	60.922000
1107.735953	60.342000
1109.851208	59.946000
1111.962141	59.850000
1114.076385	60.170000
1116.186309	60.007000
1118.297637	60.069000
1120.408460	60.933000
1122.514968	57.716000
1124.624784	60.957000
1126.730286	59.965000
1128.837191	59.711000
1130.937881	60.430000
1133.043783	59.459000
1135.145376	59.817000
1137.248372	61.250000
1139.350867	58.987000
1141.447155	61.086000
1143.548651	59.968000
1145.645844	60.702000
1147.742538	58.846000
1149.838734	61.043000
1151.934433	59.472000
1154.029634	60.069000
1156.122438	60.051000
1158.216644	59.809000
1160.304659	60.970000
1162.397872	60.964000
1164.484897	58.781000
1166.575221	60.510000
1168.661258	60.179000
1170.750592	60.241000
1172.833745	58.976000
1174.918301	60.022000
1177.004257	59.465000
1179.085932	61.723000
1181.169009	59.208000
1183.249700	59.507000
1185.329899	60.242000
1187.409607	60.876000
1189.488824	60.674000
1191.565659	60.252000
1193.640113	60.384000
1195.717859	58.618000
1197.791334	58.892000
1199.866210	61.378000
1201.936819	60.530000
1204.008830	61.016000
1206.078464	61.035000
1208.149499	60.830000
1210.220046	61.504000
1212.286332	62.639000
1214.354019	60.549000
1216.419334	62.089000
1218.486049	59.828000
1220.548508	60.156000
1222.614252	61.672000
1224.675743	63.308000
1226.738633	62.628000
1228.799156	60.449000
1230.859195	62.179000
1232.918752	62.185000
1234.975943	61.361000
1237.032653	61.997000
1239.087000	61.696000
1241.144627	62.671000
1243.199892	64.874000
1245.250916	63.443000
1247.303340	62.008000
1249.355284	65.041000
1251.404870	64.357000
1253.453977	62.491000
1255.502606	64.652000
1257.550756	64.847000
1259.598428	65.613000
1261.641869	65.206000
1263.688585	64.539000
1265.732948	65.456000
1267.776835	66.403000
1269.818371	66.329000
1271.857557	65.482000
1273.900015	67.994000
1275.938251	67.175000
1277.977886	67.210000
1280.017046	67.018000
1282.051987	70.261000
1284.088328	67.291000
1286.122323	69.895000
1288.157717	72.321000
1290.188897	73.116000
1292.221476	73.951000
1294.253582	76.256000
1296.283348	77.814000
1298.314512	79.326000
1300.341468	84.797000
1302.369822	86.053000
1304.393972	91.382000
1306.421386	97.963000
1308.444598	104.384000
1310.469208	115.648000
1312.491484	124.935000
1314.515157	143.537000
1316.536497	170.450000
1318.557369	214.164000
1320.577775	286.158000
1322.593986	430.279000
1324.611596	741.552000
1326.626877	1571.257000
1328.645416	3734.319000
1330.659767	7351.264000
1332.671792	8418.534000
1334.687074	5534.912000
1336.698171	2011.758000
1338.710665	720.108000
1340.718976	382.390000
1342.730543	242.858000
1344.736070	174.555000
1346.744853	142.050000
1348.749458	120.926000
1350.757317	108.245000
1352.764714	97.495000
1354.766080	89.783000
1356.768843	83.768000
1358.771145	80.256000
1360.772988	77.206000
1362.774371	74.342000
1364.773441	72.653000
1366.772052	72.544000
1368.770205	69.800000
1370.767900	67.592000
1372.761431	67.332000
1374.756359	67.839000
1376.750830	65.425000
1378.744844	65.316000
1380.736551	62.988000
1382.727802	63.593000
1384.716748	62.492000
1386.707089	62.545000
1388.696975	62.485000
1390.684558	63.233000
1392.671686	60.722000
1394.656514	61.237000
1396.642735	61.701000
1398.626657	60.718000
1400.610126	62.033000
1402.593143	61.310000
1404.573861	61.323000
1406.555975	59.673000
1408.535791	58.589000
1410.515157	59.807000
1412.490383	60.154000
1414.468849	58.696000
1416.445020	60.756000
1418.420743	62.168000
1420.396016	59.115000
1422.368998	59.735000
1424.341532	60.879000
1426.313619	60.919000
1428.285257	60.818000
1430.252767	57.694000
1432.225352	59.756000
1434.190130	61.520000
1436.159981	60.313000
1438.125707	61.527000
1440.092826	59.614000
1442.057662	58.999000
1444.018379	59.412000
1445.984163	58.532000
1447.943992	59.031000
1449.905214	58.743000
1451.867829	58.643000
1453.826329	59.437000
1455.784387	58.257000
1457.742002	59.968000
1459.699176	58.529000
1461.654074	60.617000
1463.610364	59.295000
1465.564380	57.872000
1467.517956	58.817000
1469.469259	58.113000
1471.421954	58.309000
1473.372378	55.856000
1475.322363	56.569000
1477.271908	58.913000
1479.219185	56.803000
1481.164195	56.748000
1483.110596	57.574000
1485.056561	55.967000
1487.002087	58.105000
1488.945349	56.027000
1490.888174	56.354000
1492.828736	57.676000
1494.770689	56.009000
1496.710381	56.125000
1498.649637	57.724000
1500.588458	57.502000
1502.525020	58.096000
1504.462973	56.819000
1506.398668	56.481000
1508.333929	57.144000
1510.266933	57.138000
1512.199505	57.319000
1514.131645	56.499000
1516.063353	56.844000
1517.992807	56.998000
1519.923652	56.009000
1521.854066	57.331000
1523.780406	56.738000
1525.708138	57.243000
1527.633619	58.143000
1529.558671	56.307000
1531.483294	57.762000
1533.407488	55.991000
1535.329435	55.588000
1537.252771	55.886000
1539.173862	57.784000
1541.092708	55.126000
1543.012944	55.672000
1544.930936	55.523000
1546.848502	58.256000
1548.763826	56.991000
1550.680540	57.349000
1552.593199	56.311000
1554.509062	55.777000
1556.422685	56.407000
1558.334071	56.923000
1560.246845	55.243000
1562.155570	54.763000
1564.065685	53.803000
1565.975376	53.869000
1567.884643	53.788000
1569.791677	55.339000
1571.696478	54.487000
1573.602668	54.536000
1575.506626	53.982000
1577.410164	54.024000
1579.313280	51.996000
1581.214168	55.996000
1583.116443	53.982000
1585.016491	55.549000
1586.917926	53.545000
1588.815328	54.483000
1590.712311	52.699000
1592.608876	53.509000
1594.506829	53.155000
1596.398947	52.989000
1598.294258	52.498000
1600.189152	52.719000
1602.081824	53.132000
1603.974080	54.327000
1605.864115	52.546000
1607.753736	54.825000
1609.642940	52.741000
1611.531730	51.183000
1613.418303	52.180000
1615.306262	54.663000
1617.190205	53.133000
1619.075536	54.848000
1620.960452	52.294000
1622.843155	54.509000
1624.727245	54.002000
1626.607324	53.268000
1628.488789	53.781000
1630.368044	52.206000
1632.248685	52.908000
1634.123522	53.747000
1636.003341	52.110000
1637.879154	51.949000
1639.754557	53.539000
1641.631347	52.249000
1643.502339	52.675000
1645.376513	53.626000
1647.246689	52.537000
1649.120045	51.836000
1650.991198	52.258000
1652.860149	53.592000
1654.730486	50.599000
1656.596829	52.425000
1658.464558	53.066000
1660.330089	51.569000
1662.197004	52.357000
1664.059931	53.851000
1665.924243	50.168000
1667.786359	52.511000
1669.648071	52.444000
1671.511167	52.875000
1673.372069	51.124000
1675.230777	51.537000
1677.089082	51.312000
1678.948772	51.998000
1680.802695	51.868000
1682.659790	52.072000
1684.516483	52.376000
1686.369200	52.402000
1688.225087	50.916000
1690.077001	51.704000
1691.928514	52.184000
1693.779626	52.422000
1695.630338	52.471000
1697.480649	51.628000
1699.328776	52.996000
1701.178286	50.655000
1703.022048	51.936000
1704.870759	51.216000
1706.713725	52.063000
1708.559856	51.757000
1710.402026	50.619000
1712.247360	53.232000
1714.086954	51.595000
1715.927932	51.790000
1717.770293	51.515000
1719.608698	50.181000
1721.448486	51.293000
1723.286099	52.411000
1725.123316	50.890000
1726.958360	51.107000
1728.794787	49.278000
1730.629042	50.475000
1732.462902	50.654000
1734.296369	51.663000
1736.125889	49.071000
1737.958568	49.239000
1739.787303	50.870000
1741.619196	51.749000
1743.447146	52.062000
1745.274704	49.881000
1747.101870	49.082000
1748.928645	50.594000
1750.755029	50.229000
1752.577476	50.770000
1754.403077	50.630000
1756.224744	50.212000
1758.047793	52.431000
1759.868681	49.015000
1761.689179	50.659000
1763.511059	50.791000
1765.327239	50.415000
1767.146571	49.007000
1768.961976	48.331000
1770.780531	50.120000
1772.595161	50.643000
1774.409405	51.804000
1776.223261	50.544000
1778.036731	51.748000
1779.848048	50.099000
1781.660746	51.031000
1783.473057	52.085000
1785.281451	51.308000
1787.091226	50.033000
1788.897085	51.937000
1790.706090	50.922000
1792.511182	50.799000
1794.317655	49.534000
1796.123744	51.558000
1797.925923	50.761000
1799.731245	51.438000
1801.532659	49.801000
1803.335453	50.017000
1805.134341	48.916000
1806.934610	51.639000
1808.734497	51.408000
1810.532243	48.970000
1812.329607	52.112000
1814.126592	50.272000
1815.923196	51.084000
1817.717661	49.022000
1819.513505	50.009000
1821.303695	50.686000
1823.098781	50.833000
1824.888214	53.206000
1826.680784	51.206000
1828.471219	50.577000
1830.259520	49.558000
1832.050956	50.095000
1833.836746	48.999000
1835.623916	50.607000
1837.408954	48.736000
1839.197126	51.239000
1840.981412	50.189000
1842.763569	49.277000
1844.547104	49.754000
1846.328511	49.417000
1848.111297	50.011000
1849.890203	50.137000
1851.670487	48.609000
1853.448645	50.531000
1855.228182	47.792000
1857.005594	50.467000
1858.780882	51.757000
1860.557549	49.875000
1862.332092	50.765000
1864.108014	50.808000
1865.878316	51.084000
1867.651744	51.085000
1869.423053	51.204000
1871.193992	49.164000
1872.966307	50.910000
1874.733010	51.998000
1876.502837	50.233000
1878.268801	51.759000
1880.037889	51.252000
1881.803115	49.872000
1883.567972	50.839000
1885.334207	51.093000
1887.096583	50.268000
1888.858592	50.708000
1890.620233	51.880000
1892.381508	50.205000
1894.142415	49.591000
1895.902956	50.757000
1897.661387	50.504000
1899.419453	50.278000
1901.175410	50.270000
1902.932745	49.992000
1904.689713	50.589000
1906.444576	52.269000
1908.197333	50.162000
1909.949727	51.859000
1911.703496	52.075000
1913.455162	51.035000
1915.204726	50.167000
1916.955666	50.226000
1918.706242	51.256000
1920.452979	51.664000
1922.201093	50.180000
1923.947107	50.034000
1925.694497	50.934000
1927.439788	50.812000
1929.182982	51.351000
1930.927552	50.426000
1932.670025	51.183000
1934.412138	51.408000
1936.153891	50.365000
1937.895285	51.642000
1939.634585	50.247000
1941.373525	52.133000
1943.112108	51.613000
1944.848598	51.694000
1946.584731	52.936500
1948.322238	54.179000
1950.055923	51.464000
1951.790983	53.558000
1953.523955	51.296000
1955.256570	51.454000
1956.988828	50.829000
1958.720730	52.938000
1960.450546	52.062000
1962.178278	53.331000
1963.907383	52.060000
1965.636134	51.567000
1967.362801	51.203000
1969.089114	50.569000
1970.816800	52.415000
1972.538950	52.026000
1974.264201	50.817000
1975.985646	52.680000
1977.710190	50.731000
1979.432655	51.045000
1981.151316	52.033000
1982.873076	51.768000
1984.591034	51.973000
1986.310365	52.243000
1988.025897	53.478000
1989.746250	52.747000
1991.462803	52.327000
1993.175561	51.337000
1994.891414	52.649000
1996.605194	52.291000
1998.318625	53.706000
2000.029985	53.833000
2001.742718	52.694000
2003.451659	52.684000
2005.163694	54.764000
2006.870219	52.212000
2008.579837	53.012000
2010.287387	52.860000
2011.994590	52.544000
2013.699727	52.808000
2015.404517	52.001000
2017.110679	53.021000
2018.813059	54.081000
2020.516811	53.132000
2022.218499	53.506000
2023.919843	53.203000
2025.620841	53.550000
2027.319779	52.609000
2029.020087	52.510000
2030.716621	53.382000
2032.414526	53.686000
2034.110372	53.657000
2035.809304	51.683000
2037.502750	53.525000
2039.197568	54.581000
2040.892042	55.009000
2042.582748	54.653000
2044.276538	53.429000
2045.966561	51.374000
2047.657955	53.521000
2049.347296	52.864000
2051.038007	53.221000
2052.724956	52.979000
2054.411564	53.070000
2056.099543	54.223000
2057.783762	53.324000
2059.469351	50.917000
2061.154601	54.213000
2062.837803	52.514000
2064.522374	52.746000
2066.201483	52.955000
2067.885377	53.151000
2069.563811	52.013000
2071.245321	51.588000
2072.923081	52.361000
2074.600503	53.486000
2076.279296	50.980000
2077.956045	52.123000
2079.630753	52.056000
2081.306830	54.525000
2082.980867	51.927000
2084.654568	52.701000
2086.327934	52.427000
2087.999262	53.082000
2089.670255	50.970000
2091.340914	53.011000
2093.011238	52.480000
2094.681229	53.364000
2096.349184	52.629000
2098.016806	52.713000
2099.682393	51.162000
2101.349350	52.366000
2103.014272	54.274000
2104.678863	54.018000
2106.341422	52.421000
2108.005349	54.256000
2109.667246	53.378000
2111.328811	54.062000
2112.990045	52.662000
2114.649251	53.839000
2116.308126	52.986000
2117.966672	54.614000
2119.624888	53.858000
2121.279380	54.420000
2122.936937	54.232000
2124.594165	55.574000
2126.247671	53.195000
2127.902545	55.769000
2129.553701	53.134000
2131.207918	55.775000
2132.858419	53.666000
2134.510286	54.876000
2136.156745	53.314000
2137.807959	53.718000
2139.455459	54.281000
2141.104326	54.547000
2142.751175	54.755000
2144.397697	56.599000
2146.043894	56.546000
2147.686383	54.170000
2149.331930	54.284000
2150.973770	55.396000
2152.618667	53.082000
2154.259859	53.431000
2155.900727	55.597000
2157.541271	56.045000
2159.179803	54.446000
2160.819702	55.415000
2162.455900	54.025000
2164.093464	55.268000
2165.730705	54.354000
2167.365937	56.027000
2169.000848	56.105000
2170.635437	55.939000
2172.269704	56.899000
2173.900279	55.681000
2175.533904	56.041000
2177.163838	56.930000
2178.795137	55.847000
2180.424432	56.661000
2182.053406	56.055000
2183.682062	54.514000
2185.310398	54.861000
2186.936731	56.619000
2188.562746	55.096000
2190.186760	56.118000
2191.812138	56.657000
2193.435517	56.230000
2195.060259	55.283000
2196.681321	56.479000
2198.302066	54.076000
2199.924176	57.477000
2201.544288	54.595000
2203.162403	55.109000
2204.780203	55.025000
2206.397688	56.308000
2208.014857	53.940000
2209.631711	55.977000
2211.248250	55.176000
2212.862795	55.582000
2214.475348	56.388000
2216.089265	55.321000
2217.701191	55.597000
2219.314480	56.272000
2220.925779	56.234000
2222.535088	57.407000
2224.145761	57.158000
2225.754445	56.104000
2227.362817	56.396000
2228.969201	56.599000
2230.576949	56.855000
2232.182710	57.303000
2233.788160	55.522000
2235.391625	56.733000
2236.996454	56.030000
2238.599298	58.182000
2240.200159	57.508000
2241.802383	57.008000
2243.402624	57.877000
2245.004228	57.435000
2246.602180	57.136000
2248.201494	59.261000
2249.798828	60.465000
2251.395853	59.028000
2252.994241	60.191000
2254.588980	59.617000
2256.181742	59.213000
2257.775867	58.731000
2259.371353	58.676000
2260.963195	59.241000
2262.554730	60.081000
2264.147626	60.332000
2265.735213	60.053000
2267.327497	59.564000
2268.914473	58.355000
2270.504478	59.245000
2272.089178	58.257000
2273.678572	61.157000
2275.262663	58.513000
2276.848116	59.053000
2278.431599	59.605000
2280.018109	60.428000
2281.600985	59.652000
2283.183557	59.033000
2284.765826	59.966000
2286.344466	58.897000
2287.926129	58.654000
2289.504164	59.669000
2291.085222	59.747000
2292.662654	59.765000
2294.238121	59.783000
2295.816611	61.061000
2297.391477	60.096000
2298.966042	57.311000
2300.540307	57.960000
2302.114271	59.738000
2303.687935	60.185000
2305.261298	58.733000
2306.831043	58.851000
2308.400489	60.399000
2309.972954	59.976000
2311.540143	60.159000
2313.110351	58.562000
2314.676944	60.946000
2316.244897	59.483000
2317.810894	62.267000
2319.376594	59.632000
2320.941997	63.594000
2322.505445	61.607000
2324.070253	63.900000
2325.631453	60.044000
2327.195667	62.546000
2328.754620	62.676000
2330.316586	61.499000
2331.876602	63.477000
2333.436322	65.261000
2334.994093	63.417000
2336.551569	64.283000
2338.108751	64.010000
2339.663986	63.786000
2341.218926	63.047000
2342.773573	64.241000
2344.327926	64.167000
2345.881985	63.771000
2347.435750	62.953000
2348.987572	63.289000
2350.537450	64.100000
2352.090336	64.034000
2353.637980	65.196000
2355.188631	64.196000
2356.735692	63.538000
2358.284110	63.913000
2359.832236	65.042000
2361.376774	64.092000
2362.922671	65.714000
2364.466628	63.202000
2366.011943	63.021000
2367.553673	64.684000
2369.096760	64.552000
2370.637912	63.781000
2372.178774	64.971000
2373.719347	65.502000
2375.259631	63.898000
2376.799625	67.136000
2378.336042	64.953000
2379.875460	65.555000
2381.411301	66.534000
2382.948498	65.139000
2384.482120	64.987000
2386.018743	65.558000
2387.553434	65.665000
2389.086196	64.083000
2390.618671	65.214000
2392.149219	65.650000
2393.682764	66.002000
2395.211098	66.265000
2396.740788	67.255000
2398.270193	68.071000
2399.799312	67.601000
2401.328147	67.815000
2402.851776	66.854000
2404.380042	68.425000
2405.903104	67.497000
2407.430800	68.971000
2408.951657	69.093000
2410.477147	68.672000
2411.999076	69.111000
2413.522361	69.068000
2415.043725	66.888000
2416.563169	71.657000
2418.083968	70.096000
2419.602848	71.801000
2421.121446	70.726000
2422.638127	70.995000
2424.156162	71.458000
2425.673916	72.388000
2427.188119	70.985000
2428.702041	70.406000
2430.215683	72.037000
2431.730680	72.438000
2433.242128	72.904000
2434.754931	70.407000
2436.265821	74.179000
2437.776431	74.109000
2439.285130	73.798000
2440.796816	72.946000
2442.304957	72.036000
2443.812821	72.068000
2445.320407	74.106000
2446.824452	75.358000
2448.331483	75.222000
2449.836605	76.613000
2451.341450	76.774000
2452.844388	78.904000
2454.347049	76.513000
2455.849434	79.814000
2457.349914	79.913000
2458.851747	80.313000
2460.351676	79.068000
2461.851329	79.179000
2463.350706	77.271000
2464.848181	80.680000
2466.343755	79.170000
2467.842308	78.649000
2469.337332	78.763000
2470.833710	79.126000
2472.326561	77.221000
2473.820764	77.960000
2475.314694	76.877000
2476.805101	76.877000
2478.298484	77.354000
2479.789970	77.923000
2481.279559	77.958000
2482.768876	79.058000
2484.256298	77.852000
2485.746695	76.141000
2487.233573	78.482000
2488.721803	78.507000
2490.206517	77.693000
2491.690960	75.833000
2493.176755	77.700000
2494.660657	75.603000
2496.145911	75.764000
2497.626031	76.697000
2499.109123	75.055000
2500.590325	75.021000
2502.071258	75.953000
2503.550302	75.295000
2505.029077	75.492000
2506.507584	73.998000
2507.985823	73.317000
2509.463793	73.929000
2510.938259	73.304000
2512.415693	73.349000
2513.889624	71.851000
2515.364906	71.927000
2516.839920	72.569000
2518.311433	71.726000
2519.784296	72.570000
2521.255277	70.668000
2522.727608	71.512000
2524.194826	70.724000
2525.665009	69.093000
2527.133312	69.761000
2528.601350	69.223000
2530.069123	67.622000
2531.536631	68.946000
2533.003874	68.878000
2534.467625	70.554000
2535.932726	69.797000
2537.395950	68.779000
2538.860524	70.066000
2540.321608	68.454000
2541.784042	67.974000
2543.246213	68.878000
2544.704898	68.647000
2546.168155	69.066000
2547.626315	69.560000
2549.085824	68.236000
2550.540240	69.894000
2551.999225	68.243000
2553.456339	70.156000
2554.911582	69.198000
2556.366564	69.437000
2557.819676	68.831000
2559.274137	68.218000
2560.726729	69.963000
2562.179061	68.098000
2563.629525	67.447000
2565.082945	67.986000
2566.531283	68.384000
2567.982577	69.664000
2569.432004	68.901000
2570.877959	69.273000
2572.326870	68.219000
2573.772309	69.834000
2575.219097	68.578000
2576.664021	67.840000
2578.108688	68.062000
2579.554702	69.719000
2580.997249	68.817000
2582.441144	68.731000
2583.881574	68.539000
2585.323351	69.859000
2586.763269	67.572000
2588.204534	70.165000
2589.642338	69.603000
2591.083091	69.167000
2592.518781	69.504000
2593.957421	68.350000
2595.394204	68.777000
2596.829130	68.466000
2598.267005	67.998000
2599.699821	68.770000
2601.133985	67.941000
2602.566295	69.314000
2603.999951	69.327000
2605.431754	69.324000
2606.863304	68.251000
2608.294600	68.706000
2609.724044	70.754000
2611.153237	70.720000
2612.580578	68.201000
2614.009266	68.990000
2615.437701	70.216000
2616.862689	68.069000
2618.289024	68.163000
2619.713510	68.577000
2621.139342	69.152000
2622.561730	70.736000
2623.985464	70.241000
2625.407351	69.938000
2626.828989	69.480000
2628.248781	69.381000
2629.669919	67.436000
2631.090807	68.828000
2632.508257	70.361000
2633.928646	68.519000
2635.345598	69.303000
2636.762302	68.796000
2638.178757	69.337000
2639.594964	69.346000
2641.010922	68.988000
2642.425040	68.170000
2643.838911	68.929000
2645.250942	70.777000
2646.664318	67.638000
2648.074264	67.905000
2649.487145	70.281000
2650.896599	68.424000
2652.305806	66.171000
2653.713177	70.660000
2655.123482	66.872000
2656.531951	70.729000
2657.938585	69.132000
2659.344974	70.471000
2660.749529	69.020000
2662.155428	70.319000
2663.559494	70.892000
2664.963316	72.934000
2666.366893	70.625000
2667.768638	72.126000
2669.171727	70.862000
2670.571399	70.996000
2671.972413	69.234000
2673.370012	67.900000
2674.770541	66.781000
2676.167655	68.070000
2677.566112	67.406000
2678.962741	65.839000
2680.359128	66.210000
2681.755274	66.577000
2683.149593	66.212000
2684.545255	65.554000
2685.937507	65.366000
2687.331103	66.573000
2688.722874	66.060000
2690.115987	65.860000
2691.507277	65.317000
2692.896744	65.162000
2694.285971	65.081000
2695.674959	62.683000
2697.065289	66.134000
2698.450634	65.703000
2699.838903	65.214000
2701.225352	66.510000
2702.611562	65.640000
2703.997534	65.631000
2705.380106	65.013000
2706.764021	65.741000
2708.147698	65.586000
2709.531137	67.567000
2710.911180	64.450000
2712.292565	66.744000
2713.672134	65.663000
2715.053045	67.163000
2716.432141	65.885000
2717.809422	64.564000
2719.188045	66.312000
2720.564855	66.589000
2721.941429	67.718000
2723.317767	65.585000
2724.692293	66.461000
2726.068160	67.105000
2727.440640	65.964000
2728.816036	67.599000
2730.186472	67.287000
2731.558249	65.303000
2732.929791	66.231000
2734.299525	67.524000
2735.670600	65.669000
2737.039867	67.120000
2738.408900	65.805000
2739.776126	68.369000
2741.143120	68.077000
2742.509881	69.713000
2743.876409	67.282000
2745.241132	67.992000
2746.605624	67.417000
2747.969883	66.674000
2749.333910	68.547000
2750.697706	69.203000
2752.058128	69.184000
2753.421461	66.886000
2754.779851	69.106000
2756.141151	68.834000
2757.499080	67.821000
2758.859919	69.045000
2760.218957	67.862000
2761.574627	68.498000
2762.933205	68.046000
2764.288417	68.466000
2765.643399	67.264000
2766.996584	69.300000
2768.352676	69.403000
2769.705404	68.657000
2771.057903	69.179000
2772.410174	69.203000
2773.763784	67.087000
2775.114032	70.448000
2776.462487	68.884000
2777.813846	70.845000
2779.161846	69.715000
2780.511185	69.793000
2781.858731	68.226000
2783.206050	69.826000
2784.553143	70.437000
2785.898445	68.047000
2787.243521	69.991000
2788.588371	68.802000
2789.932994	68.418000
2791.274266	69.552000
2792.616876	69.789000
2793.959260	69.387000
2795.301420	68.090000
2796.640230	70.407000
2797.981939	68.347000
2799.320301	69.970000
2800.660000	68.525000
2801.997913	69.335000
2803.334042	69.904000
2804.669947	71.524000
2806.007190	71.439000
2807.342649	71.769000
2808.677885	70.797000
2810.011338	70.640000
2811.346129	70.197000
2812.677578	71.722000
2814.011923	70.922000
2815.341370	71.234000
2816.672154	73.387000
2818.002716	70.678000
2819.331499	70.437000
2820.661618	73.168000
2821.989959	70.909000
2823.318079	71.662000
2824.644422	72.910000
2825.972100	71.585000
2827.296446	71.316000
2828.622127	75.091000
2829.946033	72.226000
2831.269720	72.909000
2832.594742	70.466000
2833.916434	72.452000
2835.237908	70.656000
2836.559163	72.944000
2837.880199	72.655000
2839.199463	72.768000
2840.520062	73.550000
2841.838889	72.212000
2843.157498	71.282000
2844.474336	71.834000
2845.790958	73.981000
2847.107361	73.685000
2848.421996	71.689000
2849.737965	73.156000
2851.050614	72.859000
2852.364599	73.734000
2853.678366	71.920000
2854.991918	71.669000
2856.303702	74.558000
2857.613720	74.134000
2858.925073	73.061000
2860.233111	74.066000
2861.542484	72.877000
2862.851641	75.525000
2864.160583	73.779000
2865.467762	73.693000
2866.773177	74.179000
2868.079927	74.613000
2869.384914	72.680000
2870.689688	75.598000
2871.992700	72.826000
2873.298594	75.541000
2874.599632	73.527000
2875.902005	72.944000
2877.202618	75.153000
2878.504565	75.766000
2879.806299	74.766000
2881.104728	74.754000
2882.404492	75.248000
2883.702497	75.209000
2885.000291	75.824000
2886.296329	75.477000
2887.593700	75.348000
2888.889315	75.259000
2890.184719	73.731000
2891.479913	74.341000
2892.771808	74.649000
2894.066580	73.945000
2895.358055	72.846000
2896.650863	74.251000
2897.943461	76.429000
2899.232765	76.100000
2900.523401	73.879000
2901.812286	74.908000
2903.102504	75.127000
2904.389430	74.261000
2905.677688	75.764000
2906.964196	74.362000
2908.250497	74.658000
2909.536589	74.594000
2910.820933	75.798000
2912.108149	75.816000
2913.390537	74.950000
2914.674258	77.320000
2915.956233	73.527000
2917.238001	74.492000
2918.518023	75.130000
2919.800915	74.378000
2921.082062	74.684000
2922.359927	75.435000
2923.640661	74.383000
2924.918114	75.579000
2926.195361	76.882000
2927.470867	75.373000
2928.749240	76.948000
2930.022798	76.586000
2931.299224	75.247000
2932.573909	76.003000
2933.846854	74.508000
2935.121129	75.134000
2936.393665	75.105000
2937.665997	75.277000
2938.935055	75.650000
2940.206979	75.845000
2941.477165	74.068000
2942.747148	75.385000
2944.016927	75.811000
2945.284969	77.081000
2946.551276	75.032000
2947.817380	76.666000
2949.084814	76.194000
2950.350514	76.432000
2951.616011	76.077000
2952.881306	77.098000
2954.143336	75.069000
2955.406697	75.267000
2956.669855	76.973000
2957.931282	77.705000
2959.194038	76.712000
2960.455063	76.814000
2961.714356	75.468000
2962.973450	77.010000
2964.232343	74.990000
2965.491036	77.392000
2966.749529	75.558000
2968.006293	76.369000
2969.262857	75.075000
2970.517694	76.426000
2971.773860	76.176000
2973.026770	76.982000
2974.281010	78.039000
2975.535051	78.682000
2976.787366	76.819000
2978.039483	78.577000
2979.289875	77.491000
2980.543122	77.545000
2981.791592	74.915000
2983.042916	78.431000
2984.290992	78.435000
2985.538870	77.363000
2986.786551	76.109000
2988.034036	77.692000
2989.279799	78.867000
2990.525365	78.263000
2991.772259	76.904000
2993.015909	78.045000
2994.260887	78.560000
2995.502622	79.734000
2996.747208	78.525000
2997.990074	80.911000
2999.229700	77.025000
3000.472176	79.144000
3001.711413	76.985000
3002.951977	78.769000
3004.190824	77.979000
3005.429477	78.451000
3006.666414	80.209000
3007.904678	80.409000
3009.141228	78.986000
3010.377583	79.185000
3011.613745	78.052000
3012.848194	79.533000
3014.082449	78.846000
3015.316511	80.020000
3016.548861	77.986000
3017.779499	79.447000
3019.012983	78.140000
3020.244755	79.945000
3021.474817	80.389000
3022.704687	79.711000
3023.932847	79.248000
3025.162333	79.710000
3026.390111	79.019000
3027.617697	81.522000
3028.846609	78.798000
3030.070779	78.835000
3031.297792	79.979000
3032.521581	80.863000
3033.746697	79.108000
3034.970106	80.657000
3036.193326	78.479000
3037.414840	81.873000
3038.639195	80.275000
3039.858815	78.702000
3041.079760	80.669000
3042.300517	80.593000
3043.519570	80.865000
3044.739949	80.558000
3045.957111	79.890000
3047.175598	81.262000
3048.392384	80.666000
3049.608981	79.640000
3050.825390	80.547000
3052.038587	80.732000
3053.254621	80.630000
3054.467443	80.511000
3055.683102	82.900000
3056.894038	80.131000
3058.106299	80.901000
3059.318374	80.542000
3060.530262	81.585000
3061.740452	82.003000
3062.950456	82.316000
3064.160275	83.418000
3065.368397	81.058000
3066.576333	80.962000
3067.782575	81.058000
3068.990140	81.547000
3070.196012	81.359500
3071.401698	81.172000
3072.607199	82.619000
3073.811007	83.090000
3075.016139	80.610000
3076.219579	83.387000
3077.421326	82.783000
3078.622890	81.329000
3079.824270	83.642000
3081.025466	81.345000
3082.224972	83.638000
3083.424294	82.060000
3084.624940	81.142000
3085.823896	83.679000
3087.019658	82.624000
3088.218249	82.831000
3089.413646	81.568000
3090.610366	82.226000
3091.803894	81.521000
3093.000251	83.231000
3094.194920	82.690000
3095.386399	83.168000
3096.582209	82.033000
3097.773326	84.199000
3098.965765	84.536000
3100.155017	82.326000
3101.347095	84.630000
3102.537488	83.749000
3103.724696	82.393000
3104.913227	82.658000
3106.103080	83.593000
3107.289748	84.263000
3108.476237	81.773000
3109.662546	82.971000
3110.850177	83.499000
3112.034627	84.366000
3113.217396	85.480000
3114.402989	83.414000
3115.586901	82.535000
3116.769135	82.853000
3117.951190	81.858000
3119.133068	84.066000
3120.314767	82.064000
3121.494788	83.068000
3122.673133	82.824000
3123.854299	83.206000
3125.032289	81.316000
3126.210102	83.612000
3127.387738	82.737000
3128.563699	82.722000
3129.739483	83.103000
3130.916589	84.011000
3132.092020	83.664000
3133.265778	82.133000
3134.437864	81.765000
3135.611270	84.557000
3136.784501	85.272000
3137.956059	84.390000
3139.128939	85.253000
3140.298651	82.636000
3141.469684	83.225000
3142.639046	85.542000
3143.806739	85.098000
3144.977247	84.428000
3146.143096	83.479000
3147.313255	86.985000
3148.478756	85.492000
3149.644084	83.493000
3150.809238	85.066000
3151.974218	84.995000
3153.140519	84.425000
3154.302166	85.213000
3155.465134	83.185000
3156.627928	84.105000
3157.790550	81.814000
3158.951507	83.455000
3160.112291	82.806000
3161.272903	81.860000
3162.431852	81.953000
3163.590628	82.938000
3164.749233	83.142000
3165.907666	84.083000
3167.065927	81.539000
3168.222526	81.956000
3169.377464	82.480000
3170.533721	82.170000
3171.688318	81.081000
3172.842743	82.724000
3173.995509	81.930000
3175.148105	81.867000
3176.300530	81.771000
3177.452786	82.358000
3178.604872	81.680000
3179.753811	82.534000
3180.905557	82.692000
3182.055645	83.375000
3183.204077	82.731000
3184.352340	84.183000
3185.500433	85.199000
3186.648358	85.087000
3187.794628	84.172000
3188.940729	84.935000
3190.085175	85.248000
3191.229454	85.455000
3192.373565	86.521000
3193.518994	84.833000
3194.661283	82.927000
3195.803406	84.328000
3196.945361	85.829000
3198.087150	86.401000
3199.228771	84.570000
3200.367256	86.121000
3201.507059	85.047000
3202.648180	83.815000
3203.786166	83.077000
3204.922503	87.166000
3206.058674	84.046000
3207.196163	86.514000
3208.332002	84.625000
3209.469159	87.088000
3210.601703	85.538000
3211.738529	86.201000
3212.870743	84.601000
3214.004275	85.925000
3215.137641	86.449000
3216.267880	87.168000
3217.400917	85.340000
3218.530828	85.120000
3219.662056	84.860000
3220.790158	83.586000
3221.921057	82.862000
3223.050313	83.187000
3224.177924	83.232000
3225.302414	83.563000
3226.431179	83.854000
3227.556822	83.290000
3228.682302	82.330000
3229.806141	84.042000
3230.932774	82.959000
3232.054810	83.972000
3233.178162	83.857000
3234.301352	84.379000
3235.424380	82.676000
3236.545768	84.643000
3237.666995	83.947000
3238.786583	83.722000
3239.906010	84.276000
3241.023799	85.968000
3242.144381	85.123000
3243.261848	86.432000
3244.379156	85.388000
3245.496302	86.289000
3246.611813	86.068000
3247.728639	86.984000
3248.842354	86.164000
3249.958860	88.898000
3251.073730	85.529000
3252.185492	88.971000
3253.297095	88.093000
3254.410012	87.657000
3255.522771	89.105000
3256.632423	87.713000
3257.743390	87.907000
3258.854197	87.991000
3259.963374	88.900000
3261.070919	87.731000
3262.179779	88.042000
3263.288480	88.909000
3264.394079	87.547000
3265.500992	88.894000
3266.606277	88.059000
3267.712875	89.159000
3268.816373	89.902000
3269.921185	90.069000
3271.025840	88.882000
3272.127396	88.617000
3273.228797	88.721000
3274.331511	88.739000
3275.434068	89.555000
3276.533530	89.646000
3277.635774	89.125000
3278.734923	91.253000
3279.832448	89.538000
3280.929817	89.445000
3282.029969	89.274000
3283.127027	90.685000
3284.223930	90.283000
3285.320679	89.899000
3286.412868	88.943000
3287.509306	91.480000
3288.604123	88.702000
3289.698784	89.263000
3290.791824	89.744000
3291.884710	89.497000
3292.975975	89.826000
3294.068553	89.565000
3295.159510	88.635000
3296.248848	90.496000
3297.338033	89.088000
3298.428531	91.214000
3299.515944	90.108000
3300.603205	90.490000
3301.691778	88.496000
3302.780198	89.071000
3303.864071	88.540000
3304.952186	90.827000
3306.037220	89.863000
3307.120637	92.622000
3308.205367	89.454000
3309.288482	90.562000
3310.372908	90.596000
3311.454256	90.924000
3312.536916	90.761000
3313.617962	89.447000
3314.698857	91.492000
3315.778139	90.382000
3316.857270	90.663000
3317.937712	89.830000
3319.015081	90.244000
3320.093760	91.401000
3321.170829	90.921000
3322.247747	91.222000
3323.323054	91.160000
3324.398212	90.943000
3325.474681	92.042000
3326.548080	91.528000
3327.621330	92.088000
3328.695891	91.958000
3329.768842	91.188000
3330.840186	91.601000
3331.912840	93.149000
3332.982427	91.552000
3334.053325	91.562000
3335.122616	91.297000
3336.193218	90.005000
3337.262213	92.062000
3338.329602	91.162000
3339.395386	91.202000
3340.465396	89.806000
3341.532343	91.173000
3342.596228	91.604000
3343.662881	90.539000
3344.727929	91.241000
3345.791374	91.673000
3346.854673	91.453000
3347.917826	91.035000
3348.980832	90.742000
3350.043691	90.989000
3351.104949	90.691000
3352.163150	91.127000
3353.225572	91.196000
3354.284937	92.324000
3355.344157	90.839000
3356.404687	92.823000
3357.460707	91.245000
3358.519492	93.259000
3359.573769	92.113000
3360.630809	92.875000
3361.686252	93.181000
3362.743003	93.470000
3363.798157	93.386000
3364.851713	94.038000
3365.903672	93.084000
3366.958393	91.730000
3368.010065	94.134000
3369.061594	93.808000
3370.114432	93.078000
3371.164222	94.807000
3372.215320	93.769000
3373.263373	94.293000
3374.314186	92.208000
3375.361953	93.960000
3376.409578	93.831000
3377.457060	92.966000
3378.502950	93.506000
3379.550148	93.598000
3380.594304	92.571000
3381.641218	94.235000
3382.686540	93.284000
3383.728822	93.475000
3384.770962	94.418000
3385.814410	95.444000
3386.857718	93.811000
3387.899435	93.696000
3388.941011	93.982000
3389.982447	95.181000
3391.022293	95.384000
3392.060552	95.285000
3393.100118	94.812000
3394.139543	94.656000
3395.177381	94.703000
3396.213633	96.374000
3397.249744	94.939000
3398.287163	95.616000
3399.321549	93.700000
3400.357242	96.291000
3401.392796	94.770000
3402.425319	94.908000
3403.460595	94.437000
3404.492840	92.652000
3405.524947	95.350000
3406.555470	95.701000
3407.587301	94.919000
3408.618992	96.929000
3409.647657	95.318000
3410.676183	97.885000
3411.706017	96.056000
3412.735712	95.969000
3413.762382	94.684000
3414.790359	96.530000
3415.815311	95.519000
3416.843013	95.965000
3417.867692	95.328000
3418.893677	96.283000
3419.918082	96.759000
3420.942351	95.538000
3421.965041	96.992000
3422.987595	96.947000
3424.011455	98.558000
3425.032295	97.897000
3426.053000	96.068000
3427.075010	96.723000
3428.094002	93.902000
3429.112859	96.451000
3430.133021	95.425000
3431.150167	95.354000
