-118.702670	16.073077
-116.033069	18.474725
-113.366404	21.257043
-110.700491	24.123876
-108.037511	26.779071
-105.373100	28.926474
-102.711620	30.269930
-100.048711	27.430769
-97.390908	25.511888
-94.731676	26.012587
-92.073192	24.808392
-89.417633	22.591608
-86.760644	18.668531
-84.108754	17.600000
-81.455434	14.346853
-78.805033	15.268531
-76.153204	9.124476
-73.506465	8.531469
-70.858296	6.152448
-68.210870	2.541259
-65.566359	3.373427
-62.920418	8.827972
-60.279559	13.472727
-57.637271	16.948252
-54.997892	17.062937
-52.357084	20.790210
-49.717015	21.591608
-47.082020	27.202797
-44.445595	29.451748
-41.812073	33.393007
-39.177123	33.741259
-36.547239	36.883916
-33.913761	39.363636
-31.285346	40.626573
-28.657665	36.588811
-26.028555	28.867133
-23.404503	-1.058741
-20.776860	-97.634965
-18.154272	-278.738462
-15.532414	-222.016783
-12.911287	445.938462
-10.290891	1400.432168
-7.673382	2186.000000
-5.054445	2722.728671
-2.438394	3006.047552
0.176930	3034.137063
2.791525	2805.541259
5.403239	2329.001399
8.016381	1624.120280
10.624489	753.446154
13.236178	-66.538462
15.842837	-416.072727
18.450925	-222.149650
21.058287	-6.405594
23.660625	31.008392
26.266542	32.295105
28.867436	33.593007
31.469758	32.960839
34.067062	32.029371
36.667943	31.211189
39.263808	34.934266
41.861101	39.419580
44.457675	40.566434
47.049240	42.955245
49.642234	45.809790
52.232366	43.475524
54.823925	46.837762
57.412626	44.573427
60.002753	42.834965
62.587881	42.755245
65.174437	43.124476
67.760278	43.882517
70.343266	43.951049
72.927681	41.874126
75.504967	40.580420
78.085818	39.346853
80.663822	38.275524
83.241114	34.805594
85.819834	34.429371
88.393571	33.798601
90.968735	34.206993
93.541056	37.366434
96.112670	42.784615
98.681443	52.369231
101.251643	57.472727
103.819004	64.241958
106.387792	75.738462
108.953743	89.208392
111.516859	104.962238
114.083531	127.913287
116.640981	156.215385
119.204117	205.892308
121.762294	299.177622
124.324025	469.646154
126.880799	757.909091
129.438999	1214.704895
131.992247	1828.566434
134.544797	2618.800000
137.100897	3527.514685
139.652049	4488.879720
142.202504	5447.675524
144.752261	6300.351049
147.299199	6983.124476
149.845442	7486.220979
152.393110	7803.181818
154.940082	7939.723077
157.482118	7956.839161
160.023462	7926.601399
162.564112	7854.876923
165.106187	7788.141259
167.645452	7735.254545
170.181907	7694.518881
172.717672	7674.710490
175.254862	7629.662937
177.791361	7587.258741
180.325054	7555.632168
182.855943	7521.636364
185.386144	7484.755245
187.917771	7459.804196
190.446596	7441.304895
192.972622	7422.669930
195.497962	7410.766434
198.024727	7416.833566
200.548696	7415.040559
203.071979	7410.946853
205.594578	7400.688112
208.114384	7388.190210
210.633507	7372.772028
213.151947	7365.759441
215.671812	7366.454545
218.184674	7364.337063
220.701068	7356.636364
223.216781	7379.120280
225.727603	7389.507692
228.239850	7410.429371
230.749314	7424.746853
233.258100	7441.436364
235.766208	7446.703497
238.275740	7450.493706
240.780391	7460.453147
243.284366	7476.082517
245.789765	7489.481119
248.290289	7512.963636
250.794336	7524.265734
253.291413	7555.123077
255.792012	7564.225175
258.289840	7584.896503
260.786995	7594.827972
263.283478	7604.114685
265.775097	7605.606993
268.270236	7607.135664
270.762608	7604.823776
273.254310	7592.574825
275.743249	7584.163636
278.233611	7591.751049
280.721212	7574.546853
283.206053	7583.893706
285.694409	7587.027972
288.175825	7596.809790
290.660755	7613.029371
293.140839	7626.588811
295.624436	7639.472727
298.103191	7637.602797
300.583368	7631.566434
303.060794	7610.944056
305.537556	7605.945455
308.013654	7604.990210
310.487004	7611.566434
312.959693	7635.959441
315.431720	7651.556643
317.903085	7667.556643
320.371707	7674.000000
322.839669	7675.172028
325.309054	7663.271329
327.773616	7640.400000
330.241682	7620.345455
332.704927	7593.246154
335.167516	7578.344056
337.629448	7560.331469
340.090723	7556.200000
342.549263	7544.044755
345.009226	7510.576224
347.466457	7467.753846
349.923033	7422.780420
352.378955	7388.081119
354.832147	7317.064336
357.286762	7260.858741
359.736575	7221.125874
362.189884	7167.711888
364.638394	7109.674126
367.086254	7039.532867
369.535536	6985.030769
371.980023	6907.651748
374.425933	6834.370629
376.871194	6772.155245
379.313736	6715.815385
381.755630	6656.903497
384.196876	6582.362238
386.635408	6532.679720
389.075360	6497.868531
391.512599	6431.762238
393.947127	6373.482517
396.385141	6326.984615
398.818380	6276.597203
401.253039	6219.598601
403.682926	6191.205594
406.116298	6162.265734
408.544900	6128.969231
410.972860	6098.469930
413.402241	6074.065734
415.826858	6049.967832
418.252895	6031.788811
420.678293	6001.800000
423.103050	5990.840559
425.523048	5987.160839
427.944468	5970.018182
430.363192	5965.135664
432.783335	5960.927273
435.200784	5947.651748
437.619654	5939.776224
440.035829	5924.310490
442.447258	5914.696503
444.862163	5892.113287
447.274378	5874.444755
449.685960	5869.286713
452.096907	5865.436364
454.505167	5860.004196
456.912796	5848.064336
459.319792	5831.685315
461.726157	5834.450350
464.129839	5809.560839
466.532891	5803.072727
468.935313	5776.156643
471.337105	5769.302098
473.736219	5752.839161
476.136753	5739.365035
478.536658	5734.342657
480.931841	5720.447552
483.330489	5696.851748
485.724418	5682.765035
488.117721	5667.029371
490.510399	5660.553846
492.902451	5626.208392
495.295921	5605.271329
497.684679	5577.626573
500.070771	5552.472727
502.458283	5529.023776
504.845172	5506.531469
507.229396	5492.798601
509.615040	5479.683916
511.998022	5466.545455
514.378342	5462.275524
516.760083	5459.071329
519.139164	5463.627972
521.519663	5453.381818
523.897506	5440.756643
526.272692	5430.272727
528.647261	5410.763636
531.023249	5402.646154
533.396584	5373.482517
535.771336	5352.076923
538.141402	5323.071329
540.510854	5280.190210
542.881723	5232.994406
545.247911	5185.944056
547.615518	5127.209790
549.980479	5062.664336
552.344828	5000.706294
554.708563	4956.426573
557.073716	4899.100699
559.434197	4847.159441
561.796095	4784.360839
564.155354	4747.686713
566.511974	4687.737063
568.872040	4621.138462
571.225414	4565.507692
573.582233	4511.103497
575.936417	4443.173427
578.289992	4391.928671
580.642960	4322.634965
582.993295	4271.380420
585.345048	4211.355245
587.690124	4166.037762
590.040663	4118.503497
592.384530	4075.745455
594.733858	4018.900699
597.078537	3980.800000
599.420592	3962.420979
601.764064	3939.320280
604.104913	3915.167832
606.445159	3903.426573
608.782785	3881.043357
611.123846	3880.545455
613.460270	3889.346853
615.798110	3892.440559
618.133333	3898.851748
620.465939	3903.706294
622.799963	3896.475524
625.131372	3900.230769
627.462183	3899.318881
629.792396	3888.793007
632.122012	3883.268531
634.447004	3873.725874
636.777438	3865.068531
639.103251	3851.475524
641.426456	3841.730070
643.751078	3840.426573
646.073094	3844.823776
648.394516	3838.721678
650.713335	3836.969231
653.033571	3853.681119
655.353212	3862.239161
657.670254	3880.107692
659.986703	3902.934266
662.300554	3925.268531
664.615821	3946.725874
666.928491	3964.233566
669.242576	3999.402797
671.552061	4035.660140
673.862962	4073.671329
676.171270	4107.767832
678.478989	4149.517483
680.788124	4190.216783
683.092666	4226.467133
685.396622	4259.106294
687.699991	4288.303497
690.004776	4312.769231
692.304973	4333.791608
694.606586	4363.699301
696.907613	4400.892308
699.204059	4425.925874
701.501920	4457.602797
703.799197	4490.527273
706.095891	4517.875524
708.388009	4559.862937
710.683538	4598.285315
712.974493	4625.655944
715.266863	4673.269930
717.556657	4707.948252
719.845872	4740.302098
722.134507	4783.952448
724.420569	4821.381818
726.708045	4841.005594
728.992951	4865.504895
731.277279	4891.664336
733.559038	4923.876923
735.842211	4963.725874
738.124807	5004.078322
740.402847	5037.678322
742.682301	5093.001399
744.961180	5123.409790
747.239484	5172.934266
749.513237	5223.667133
751.788405	5271.109091
754.062999	5299.067133
756.335034	5338.811189
758.608482	5382.262937
760.879372	5426.429371
763.147706	5472.742657
765.417453	5521.172028
767.684645	5562.303497
769.951268	5619.549650
772.217320	5659.608392
774.480821	5711.755245
776.745734	5749.330070
779.010079	5801.457343
781.269893	5832.948252
783.531121	5873.148252
785.791781	5914.875524
788.049895	5947.261538
790.305464	5978.212587
792.564423	6012.425175
794.816884	6035.798601
797.074712	6066.220979
799.328021	6091.986014
801.578790	6110.384615
803.830971	6147.162238
806.080613	6182.609790
808.331667	6204.692308
810.578210	6225.437762
812.826166	6243.151049
815.071586	6270.486713
817.318419	6286.511888
819.564689	6299.660140
821.806456	6304.604196
824.051605	6337.127273
826.290283	6366.672727
828.532342	6384.562238
830.769903	6419.025175
833.008876	6449.636364
835.245322	6486.763636
837.483179	6509.141259
839.718511	6534.742657
841.951320	6585.155245
844.185539	6634.125874
846.417237	6680.265734
848.648380	6745.062937
850.878968	6817.744056
853.109002	6888.921678
855.338481	6961.983217
857.563480	7045.269930
859.791852	7153.475524
862.015746	7256.913287
864.241051	7368.446154
866.461880	7497.899301
868.686081	7639.034965
870.905809	7779.348252
873.126947	7909.513287
875.347535	8038.380420
877.565614	8160.696503
879.785102	8286.530070
882.000124	8398.351049
884.214598	8500.481119
886.428525	8593.914685
888.641904	8668.756643
890.854737	8741.370629
893.067022	8800.601399
895.276806	8845.316084
897.486044	8863.426573
899.694737	8857.570629
901.900930	8844.379021
904.108533	8811.040559
906.313639	8758.535664
908.518201	8670.427972
910.720268	8563.864336
912.923744	8412.793007
915.124726	8268.278322
917.325166	8101.556643
919.527015	7935.688112
921.722473	7770.523077
923.921289	7598.481119
926.115668	7423.834965
928.313404	7258.902098
930.506704	7101.332867
932.701413	6945.857343
934.893635	6790.492308
937.085320	6648.797203
939.276467	6524.019580
941.465131	6437.875524
943.653259	6364.327273
945.838905	6312.805594
948.027905	6287.855944
950.212480	6267.857343
952.396521	6258.223776
954.583913	6261.124476
956.763000	6276.812587
958.945438	6283.313287
961.127342	6283.946853
963.306771	6279.013986
965.483728	6289.751049
967.662093	6302.248951
969.841865	6291.788811
972.015288	6274.065734
974.192057	6254.580420
976.364419	6211.288112
978.538189	6161.204196
980.707555	6098.878322
982.880265	6016.448951
985.050510	5936.225175
987.220225	5843.608392
989.389412	5749.081119
991.554202	5653.896503
993.722334	5577.650350
995.886070	5482.366434
998.051214	5406.111888
1000.213898	5331.239161
1002.376057	5250.558042
1004.535759	5165.299301
1006.694936	5079.970629
1008.855520	4995.457343
1011.013649	4921.711888
1013.171255	4844.829371
1015.328337	4762.411189
1017.484895	4684.240559
1019.637074	4621.802797
1021.790660	4570.426573
1023.943724	4515.213986
1026.094339	4476.506294
1028.246360	4434.913287
1030.394009	4392.209790
1032.544989	4348.002797
1034.691598	4306.111888
1036.837688	4259.644755
1038.983260	4215.097902
1041.130237	4153.991608
1043.270925	4108.952448
1045.414942	4064.041958
1047.556520	4032.875524
1049.697580	3996.250350
1051.840046	3976.535664
1053.976231	3959.788811
1056.115743	3940.972028
1058.250899	3918.538462
1060.389380	3881.457343
1062.523508	3845.323077
1064.657122	3812.800000
1066.792140	3770.411189
1068.922810	3737.601399
1071.054884	3702.769231
1073.184528	3661.377622
1075.313661	3634.939860
1077.442283	3605.594406
1079.570393	3576.397203
1081.696077	3546.862937
1083.821251	3513.085315
1085.947829	3466.230769
1088.070069	3426.763636
1090.193714	3393.595804
1092.313024	3357.377622
1094.437563	3327.353846
1096.555858	3292.226573
1098.675556	3248.309091
1100.792837	3217.699301
1102.909610	3167.767832
1105.025877	3117.927273
1107.139729	3077.165035
1109.254984	3031.909091
1111.365917	2983.690909
1113.480162	2937.362238
1115.590086	2892.563636
1117.701413	2854.366434
1119.812237	2819.769231
1121.918744	2773.369231
1124.028560	2732.534266
1126.134062	2699.738462
1128.240968	2657.296503
1130.341658	2618.324476
1132.447560	2589.293706
1134.549153	2550.465734
1136.652148	2510.295105
1138.754644	2476.377622
1140.850932	2433.454545
1142.952427	2403.086713
1145.049620	2373.373427
1147.146314	2343.067133
1149.242511	2320.461538
1151.338209	2297.173427
1153.433410	2270.506294
1155.526214	2245.805594
1157.620420	2227.165035
1159.708435	2196.323077
1161.801648	2172.699301
1163.888674	2149.777622
1165.978998	2121.349650
1168.065034	2100.911888
1170.154368	2073.681119
1172.237521	2054.923077
1174.322077	2037.376224
1176.408034	2016.486713
1178.489709	1990.282517
1180.572785	1966.271329
1182.653476	1956.650350
1184.733676	1939.760839
1186.813384	1923.276923
1188.892601	1909.790210
1190.969435	1893.023776
1193.043889	1880.846154
1195.121635	1868.829371
1197.195110	1859.565035
1199.269987	1855.732867
1201.340596	1839.925874
1203.412606	1825.328671
1205.482240	1814.563636
1207.553275	1809.332867
1209.623822	1799.448951
1211.690109	1789.586014
1213.757796	1788.346853
1215.823110	1785.148252
1217.889825	1792.994406
1219.952284	1789.132867
1222.018029	1784.696503
1224.079519	1788.886713
1226.142410	1780.724476
1228.202932	1782.496503
1230.262972	1775.825175
1232.322528	1763.925874
1234.379720	1758.737063
1236.436429	1748.043357
1238.490776	1744.072727
1240.548403	1743.330070
1242.603668	1744.641958
1244.654693	1741.902098
1246.707117	1748.226573
1248.759061	1759.167832
1250.808647	1758.248951
1252.857754	1765.351049
1254.906382	1761.720280
1256.954532	1758.541259
1259.002204	1756.871329
1261.045645	1755.313287
1263.092362	1756.460140
1265.136725	1758.909091
1267.180611	1760.490909
1269.222147	1756.054545
1271.261333	1763.552448
1273.303792	1768.681119
1275.342028	1763.363636
1277.381663	1761.047552
1279.420822	1759.812587
1281.455764	1759.924476
1283.492104	1763.539860
1285.526100	1765.107692
1287.561493	1763.790210
1289.592673	1767.602797
1291.625252	1768.138462
1293.657359	1765.932867
1295.687125	1771.818182
1297.718288	1771.605594
1299.745244	1771.097902
1301.773599	1774.977622
1303.797748	1785.181818
1305.825163	1794.773427
1307.848375	1804.089510
1309.872985	1810.560839
1311.895260	1817.359441
1313.918933	1825.669930
1315.940273	1825.776224
1317.961146	1822.296503
1319.981551	1823.868531
1321.997763	1819.458741
1324.015372	1822.406993
1326.030653	1824.205594
1328.049193	1822.055944
1330.063543	1828.993007
1332.075568	1828.917483
1334.090851	1829.746853
1336.101948	1832.586014
1338.114441	1841.474126
1340.122752	1844.036364
1342.134319	1851.520280
1344.139847	1860.216783
1346.148630	1857.173427
1348.153235	1869.187413
1350.161094	1873.306294
1352.168491	1873.875524
1354.169857	1884.981818
1356.172619	1877.542657
1358.174922	1878.100699
1360.176765	1884.809790
1362.178148	1893.555245
1364.177217	1889.868531
1366.175828	1885.827972
1368.173981	1876.513287
1370.171676	1873.441958
1372.165208	1879.072727
1374.160135	1883.083916
1376.154606	1880.546853
1378.148620	1882.174825
1380.140327	1876.241958
1382.131578	1887.236364
1384.120524	1890.499301
1386.110865	1894.338462
1388.100752	1888.644755
1390.088334	1880.801399
1392.075463	1881.155245
1394.060290	1880.482517
1396.046512	1880.106294
1398.030433	1882.804196
1400.013902	1875.450350
1401.996919	1871.142657
1403.977638	1873.741259
1405.959751	1879.304895
1407.939567	1875.868531
1409.918933	1877.211189
1411.894160	1872.980420
1413.872625	1866.032168
1415.848797	1870.103497
1417.824519	1867.278322
1419.799792	1871.345455
1421.772775	1875.591608
1423.745309	1874.067133
1425.717395	1873.201399
1427.689034	1870.576224
1429.656544	1866.440559
1431.629128	1862.499301
1433.593906	1854.727273
1435.563757	1850.481119
1437.529483	1850.179021
1439.496603	1846.076923
1441.461439	1846.983217
1443.422155	1853.381818
1445.387939	1860.269930
1447.347768	1871.938462
1449.308991	1875.977622
1451.271605	1875.976224
1453.230105	1878.675524
1455.188163	1870.998601
1457.145779	1859.520280
1459.102952	1849.054545
1461.057850	1835.797203
1463.014141	1816.767832
1464.968157	1814.486713
1466.921732	1816.914685
1468.873035	1821.100699
1470.825730	1828.013986
1472.776154	1833.517483
1474.726139	1834.198601
1476.675685	1835.485315
1478.622962	1826.949650
1480.567971	1824.227972
1482.514373	1813.419580
1484.460337	1808.283916
1486.405864	1800.634965
1488.349125	1806.209790
1490.291950	1804.146853
1492.232512	1801.518881
1494.174466	1803.818182
1496.114157	1807.469930
1498.053413	1803.107692
1499.992235	1803.121678
1501.928797	1803.187413
1503.866750	1808.907692
1505.802444	1803.854545
1507.737705	1805.088112
1509.670709	1794.460140
1511.603281	1799.462937
1513.535421	1790.050350
1515.467129	1786.647552
1517.396584	1788.076923
1519.327429	1781.834965
1521.257842	1777.994406
1523.184183	1779.511888
1525.111914	1780.966434
1527.037396	1778.822378
1528.962448	1772.717483
1530.887070	1775.718881
1532.811264	1774.850350
1534.733211	1783.278322
1536.656548	1783.854545
1538.577638	1789.048951
1540.496484	1788.013986
1542.416720	1783.949650
1544.334712	1784.721678
1546.252278	1789.117483
1548.167603	1787.311888
1550.084317	1782.188811
1551.996975	1773.742657
1553.912838	1776.897902
1555.826462	1770.439161
1557.737847	1768.372028
1559.650622	1767.137063
1561.559347	1767.434965
1563.469461	1765.788811
1565.379152	1768.005594
1567.288420	1768.731469
1569.195453	1777.146853
1571.100254	1777.046154
1573.006444	1777.574825
1574.910403	1767.935664
1576.813940	1772.899301
1578.717057	1766.043357
1580.617944	1763.594406
1582.520220	1760.679720
1584.420267	1761.667133
1586.321703	1760.212587
1588.219104	1761.352448
1590.116088	1756.786014
1592.012653	1759.142657
1593.910605	1753.103497
1595.802723	1747.924476
1597.698035	1738.647552
1599.592928	1739.558042
1601.485601	1738.062937
1603.377856	1739.090909
1605.267892	1738.300699
1607.157512	1736.820979
1609.046717	1742.348252
1610.935506	1753.867133
1612.822079	1758.844755
1614.710039	1762.060140
1616.593982	1759.127273
1618.479312	1759.181818
1620.364229	1757.033566
1622.246932	1748.380420
1624.131022	1748.015385
1626.011100	1745.998601
1627.892566	1737.857343
1629.771820	1730.851748
1631.652462	1737.572028
1633.527299	1732.918881
1635.407117	1739.619580
1637.282930	1739.689510
1639.158334	1742.134266
1641.035123	1746.102098
1642.906115	1741.674126
1644.780290	1737.128671
1646.650465	1741.657343
1648.523821	1739.502098
1650.394974	1733.372028
1652.263925	1726.030769
1654.134262	1725.439161
1656.000606	1715.902098
1657.868335	1724.359441
1659.733865	1722.840559
1661.600781	1717.074126
1663.463707	1714.002797
1665.328020	1710.906294
1667.190136	1701.711888
1669.051847	1701.060140
1670.914943	1693.278322
1672.775845	1689.662937
1674.634554	1691.111888
1676.492859	1692.625175
1678.352548	1702.758042
1680.206471	1710.068531
1682.063567	1713.316084
1683.920259	1707.830769
1685.772976	1709.279720
1687.628864	1702.405594
1689.480778	1689.618182
1691.332291	1684.732867
1693.183403	1674.963636
1695.034114	1667.352448
1696.884425	1660.107692
1698.732552	1662.183217
1700.582063	1674.013986
1702.425824	1669.823776
1704.274536	1671.103497
1706.117501	1665.987413
1707.963632	1670.229371
1709.805802	1668.909091
1711.651137	1672.981818
1713.490730	1671.979021
1715.331709	1667.260140
1717.174070	1664.731469
1719.012474	1661.623776
1720.852262	1667.062937
1722.689875	1659.907692
1724.527093	1650.876923
1726.362137	1646.358042
1728.198564	1637.713287
1730.032818	1635.376224
1731.866679	1632.300699
1733.700145	1634.398601
1735.529665	1632.455944
1737.362345	1630.426573
1739.191079	1632.833566
1741.022972	1633.193007
1742.850922	1634.474126
1744.678480	1629.706294
1746.505647	1634.678322
1748.332422	1635.854545
1750.158805	1626.765035
1751.981252	1621.483916
1753.806854	1621.718881
1755.628520	1624.384615
1757.451569	1622.885315
1759.272457	1622.671329
1761.092955	1616.490909
1762.914835	1617.897902
1764.731015	1623.823776
1766.550347	1625.703497
1768.365752	1629.386014
1770.184308	1624.941259
1771.998938	1611.811189
1773.813181	1610.296503
1775.627038	1609.384615
1777.440508	1606.181818
1779.251824	1603.067133
1781.064522	1603.981818
1782.876834	1598.640559
1784.685227	1602.397203
1786.495002	1607.121678
1788.300861	1605.791608
1790.109867	1599.752448
1791.914959	1598.089510
1793.721432	1592.703497
1795.527520	1594.724476
1797.329699	1586.509091
1799.135021	1578.406993
1800.936435	1573.902098
1802.739230	1570.243357
1804.538118	1561.790210
1806.338387	1558.639161
1808.138274	1559.935664
1809.936019	1557.302098
1811.733384	1559.173427
1813.530368	1564.717483
1815.326972	1559.153846
1817.121437	1565.310490
1818.917282	1563.800000
1820.707471	1558.658741
1822.502557	1551.471329
1824.291990	1548.107692
1826.084561	1546.829371
1827.874996	1545.604196
1829.663296	1548.493706
1831.454732	1547.079720
1833.240523	1547.339860
1835.027692	1543.797203
1836.812731	1538.310490
1838.600902	1537.320280
1840.385188	1530.433566
1842.167345	1522.050350
1843.950881	1511.019580
1845.732288	1509.461538
1847.515073	1509.946853
1849.293979	1507.086713
1851.074263	1508.758042
1852.852422	1513.467133
1854.631958	1513.605594
1856.409370	1517.586014
1858.184659	1519.281119
1859.961325	1518.545455
1861.735869	1522.297902
1863.511790	1522.072727
1865.282092	1516.260140
1867.055521	1514.594406
1868.826830	1510.587413
1870.597768	1511.016783
1872.370084	1512.387413
1874.136786	1509.815385
1875.906613	1506.545455
1877.672577	1507.941259
1879.441665	1504.574825
1881.206891	1505.113287
1882.971749	1507.388811
1884.737983	1500.149650
1886.500359	1494.948252
1888.262368	1497.826573
1890.024010	1496.647552
1891.785284	1502.362238
1893.546192	1497.148252
1895.306732	1494.783217
1897.065164	1496.700699
1898.823229	1491.521678
1900.579187	1486.678322
1902.336521	1488.928671
1904.093490	1484.469930
1905.848352	1480.033566
1907.601109	1477.641958
1909.353503	1477.900699
1911.107273	1473.605594
1912.858939	1470.755245
1914.608502	1464.558042
1916.359442	1460.096503
1918.110018	1452.412587
1919.856756	1441.250350
1921.604869	1442.342657
1923.350883	1437.062937
1925.098273	1428.581818
1926.843564	1431.416783
1928.586758	1432.556643
1930.331328	1431.377622
1932.073801	1435.861538
1933.815914	1439.478322
1935.557668	1444.218881
1937.299061	1442.555245
1939.038361	1441.174126
1940.777302	1435.209790
1942.515884	1432.344755
1944.252375	1422.085315
1945.988507	1420.895804
1947.726015	1423.598601
1949.459700	1421.762937
1951.194760	1421.278322
1952.927731	1422.308392
1954.660346	1422.630769
1956.392604	1424.052448
1958.124506	1425.760839
1959.854323	1431.065734
1961.582054	1433.206993
1963.311160	1433.779021
1965.039910	1432.699301
1966.766577	1436.660140
1968.492890	1428.700699
1970.220577	1422.763636
1971.942727	1422.194406
1973.667978	1420.558042
1975.389422	1414.688112
1977.113966	1416.223776
1978.836431	1418.672727
1980.555092	1422.854545
1982.276852	1422.995804
1983.994811	1422.762238
1985.714142	1420.152448
1987.429674	1416.650350
1989.150026	1412.204196
1990.866580	1411.895105
1992.579337	1411.064336
1994.295190	1412.675524
1996.008971	1412.465734
1997.722402	1417.606993
1999.433762	1415.225175
2001.146494	1413.050350
2002.855435	1413.104895
2004.567470	1414.600000
2006.273995	1412.714685
2007.983613	1408.117483
2009.691163	1401.165035
2011.398366	1397.986014
2013.103503	1394.724476
2014.808293	1392.124476
2016.514456	1390.391608
2018.216835	1389.724476
2019.920587	1383.532867
2021.622276	1380.067133
2023.323619	1376.967832
2025.024618	1375.257343
2026.723555	1376.837762
2028.423864	1376.400000
2030.120397	1371.669930
2031.818302	1377.321678
2033.514149	1373.188811
2035.213081	1370.145455
2036.906527	1368.292308
2038.601344	1366.612587
2040.295818	1368.337063
2041.986525	1364.706294
2043.680314	1363.541259
2045.370338	1369.823776
2047.061731	1378.889510
2048.751072	1382.062937
2050.441784	1376.137063
2052.128732	1368.928671
2053.815340	1354.341259
2055.503319	1342.532867
2057.187538	1329.875524
2058.873127	1315.745455
2060.558377	1311.895105
2062.241579	1304.496503
2063.926151	1307.408392
2065.605259	1313.054545
2067.289154	1319.276923
2068.967587	1321.286713
2070.649098	1324.064336
2072.326857	1324.528671
2074.004280	1325.611189
2075.683072	1330.702098
2077.359821	1325.478322
2079.034529	1319.236364
2080.710607	1313.773427
2082.384643	1308.146853
2084.058345	1301.758042
2085.731711	1296.085315
2087.403038	1290.808392
2089.074031	1287.613986
2090.744690	1289.710490
2092.415015	1293.165035
2094.085006	1296.723077
2095.752960	1306.061538
2097.420582	1308.148252
2099.086170	1312.503497
2100.753126	1313.251748
2102.418049	1319.089510
2104.082640	1317.130070
2105.745199	1318.502098
2107.409126	1314.447552
2109.071022	1309.730070
2110.732587	1300.984615
2112.393822	1298.573427
2114.053027	1294.958042
2115.711903	1294.576224
2117.370448	1288.699301
2119.028664	1282.777622
2120.683157	1281.503497
2122.340714	1285.089510
2123.997941	1283.993007
2125.651448	1287.665734
2127.306322	1290.058741
2128.957477	1285.800000
2130.611695	1285.523077
2132.262195	1291.800000
2133.914063	1297.288112
2135.560522	1292.552448
2137.211735	1288.474126
2138.859236	1288.921678
2140.508103	1287.420979
2142.154951	1281.910490
2143.801474	1281.889510
2145.447671	1280.544056
2147.090159	1276.806993
2148.735706	1270.710490
2150.377546	1266.058741
2152.022443	1261.102098
2153.663635	1261.110490
2155.304503	1254.910490
2156.945048	1259.791608
2158.583580	1263.061538
2160.223478	1261.369231
2161.859676	1259.264336
2163.497240	1265.472727
2165.134482	1262.321678
2166.769714	1257.183217
2168.404624	1251.352448
2170.039213	1245.532867
2171.673481	1240.923077
2173.304055	1240.565035
2174.937681	1235.448951
2176.567614	1234.264336
2178.198914	1226.896503
2179.828208	1222.839161
2181.457183	1217.349650
2183.085838	1220.941259
2184.714174	1215.562238
2186.340507	1211.965035
2187.966522	1208.177622
2189.590536	1205.893706
2191.215915	1204.502098
2192.839293	1207.676923
2194.464036	1207.165035
2196.085098	1202.304895
2197.705843	1194.549650
2199.327952	1193.337063
2200.948064	1183.685315
2202.566180	1182.707692
2204.183980	1175.499301
2205.801464	1166.565035
2207.418634	1159.991608
2209.035487	1159.019580
2210.652026	1159.040559
2212.266571	1163.212587
2213.879125	1161.173427
2215.493042	1166.386014
2217.104968	1173.851748
2218.718257	1183.395804
2220.329555	1180.440559
2221.938865	1184.990210
2223.549537	1181.650350
2225.158221	1182.893706
2226.766593	1182.427972
2228.372978	1181.496503
2229.980725	1179.573427
2231.586487	1181.945455
2233.191937	1175.770629
2234.795402	1179.727273
2236.400230	1174.286713
2238.003074	1170.907692
2239.603935	1163.555245
2241.206159	1165.791608
2242.806401	1167.518881
2244.408005	1172.605594
2246.005956	1168.953846
2247.605270	1173.055944
2249.202604	1177.034965
2250.799630	1179.040559
2252.398017	1171.327273
2253.992757	1168.471329
2255.585519	1155.151049
2257.179644	1151.834965
2258.775130	1149.913287
2260.366971	1150.453147
2261.958506	1148.648951
2263.551402	1141.907692
2265.138990	1134.181818
2266.731273	1136.465734
2268.318249	1129.826573
2269.908254	1129.572028
2271.492954	1123.602797
2273.082348	1121.218182
2274.666439	1116.932867
2276.251892	1118.990210
2277.835376	1115.545455
2279.421885	1115.632168
2281.004761	1110.904895
2282.587334	1104.819580
2284.169603	1100.381818
2285.748242	1103.288112
2287.329906	1103.275524
2288.907941	1110.198601
2290.488999	1106.289510
2292.066430	1110.534266
2293.641898	1110.890909
2295.220388	1110.993007
2296.795254	1110.296503
2298.369819	1111.606993
2299.944083	1102.285315
2301.518047	1099.219580
2303.091711	1095.781818
2304.665075	1100.218182
2306.234820	1100.672727
2307.804266	1101.089510
2309.376730	1093.632168
2310.943920	1094.408392
2312.514127	1091.521678
2314.080721	1093.356643
2315.648673	1093.679720
2317.214671	1085.457343
2318.780371	1076.500699
2320.345773	1081.061538
2321.909222	1090.158042
2323.474030	1096.707692
2325.035229	1093.707692
2326.599443	1093.707692
2328.158396	1092.509091
2329.720362	1093.488112
2331.280378	1095.906294
2332.840098	1093.137063
2334.397870	1094.090909
2335.955346	1084.239161
2337.512528	1077.241958
2339.067762	1083.569231
2340.622702	1085.367832
2342.177349	1080.275524
2343.731702	1075.945455
2345.285761	1078.065734
2346.839527	1079.537063
2348.391348	1082.390210
2349.941226	1079.688112
2351.494113	1073.384615
2353.041756	1073.264336
2354.592407	1063.454545
2356.139468	1054.200000
2357.687886	1051.530070
2359.236013	1044.313287
2360.780551	1043.714685
2362.326447	1043.292308
2363.870404	1050.832168
2365.415719	1053.986014
2366.957449	1057.455944
2368.500537	1056.130070
2370.041688	1061.577622
2371.582550	1063.579021
2373.123123	1059.100699
2374.663407	1053.556643
2376.203402	1056.440559
2377.739818	1049.439161
2379.279236	1051.058741
2380.815077	1046.092308
2382.352275	1047.376224
2383.885897	1039.356643
2385.422519	1034.460140
2386.957211	1033.447552
2388.489972	1035.341259
2390.022448	1028.563636
2391.552995	1022.324476
2393.086540	1022.290909
2394.614874	1029.198601
2396.144564	1025.034965
2397.673969	1031.654545
2399.203089	1034.808392
2400.731923	1038.434965
2402.255553	1035.706294
2403.783818	1037.177622
2405.306880	1043.451748
2406.834577	1047.186014
2408.355434	1042.362238
2409.880923	1042.464336
2411.402853	1038.758042
2412.926137	1041.158042
2414.447501	1038.588811
2415.966945	1040.264336
2417.487744	1038.320280
2419.006624	1034.658741
2420.525223	1033.674126
2422.041903	1039.005594
2423.559939	1045.502098
2425.077693	1047.321678
2426.591895	1040.471329
2428.105818	1040.643357
2429.619460	1034.016783
2431.134456	1033.979021
2432.645905	1033.030769
2434.158707	1025.234965
2435.669597	1020.555245
2437.180208	1020.699301
2438.688907	1017.674126
2440.200592	1017.499301
2441.708734	1013.142657
2443.216598	1012.218182
2444.724183	1014.981818
2446.228229	1014.169231
2447.735259	1013.363636
2449.240381	1011.981818
2450.745226	1011.316084
2452.248164	1004.758042
2453.750825	1005.846154
2455.253211	1004.377622
2456.753690	996.558042
2458.255524	990.551049
2459.755452	982.822378
2461.255105	983.208392
2462.754483	981.041958
2464.251958	976.450350
2465.747531	976.972028
2467.246084	978.116084
2468.741109	976.260140
2470.237486	976.393007
2471.730337	977.376224
2473.224541	972.062937
2474.718471	970.202797
2476.208877	968.046154
2477.702261	967.244755
2479.193747	968.637762
2480.683336	970.099301
2482.172653	977.153846
2483.660074	975.946853
2485.150471	977.190210
2486.637350	970.574825
2488.125580	973.363636
2489.610293	969.956643
2491.094736	964.215385
2492.580531	963.832168
2494.064434	961.660140
2495.549687	963.058741
2497.029807	964.167832
2498.512899	964.535664
2499.994102	968.797203
2501.475035	964.797203
2502.954078	965.703497
2504.432854	966.130070
2505.911361	970.683916
2507.389599	971.121678
2508.867570	968.745455
2510.342035	964.006993
2511.819470	962.482517
2513.293400	959.916084
2514.768682	953.984615
2516.243696	953.641958
2517.715209	956.556643
2519.188073	955.885315
2520.659054	954.790210
2522.131385	955.572028
2523.598602	957.660140
2525.068786	953.025175
2526.537089	948.562238
2528.005126	948.969231
2529.472899	948.313287
2530.940407	944.232168
2532.407651	944.969231
2533.871402	947.871329
2535.336503	953.089510
2536.799727	953.338462
2538.264300	953.911888
2539.725385	958.302098
2541.187819	959.566434
2542.649990	953.001399
2544.108674	957.388811
2545.571931	960.711888
2547.030091	963.345455
2548.489601	963.878322
2549.944016	971.457343
2551.403002	969.674126
2552.860116	965.886713
2554.315358	956.511888
2555.770340	951.220979
2557.223452	946.844755
2558.677913	944.142657
2560.130505	935.876923
2561.582837	939.867133
2563.033301	943.152448
2564.486722	946.304895
2565.935060	949.180420
2567.386353	954.289510
2568.835780	951.289510
2570.281736	947.875524
2571.730646	948.432168
2573.176085	948.577622
2574.622873	948.443357
2576.067797	949.430769
2577.512464	947.903497
2578.958478	952.072727
2580.401025	951.359441
2581.844920	945.878322
2583.285350	944.558042
2584.727128	940.366434
2586.167046	940.427972
2587.608311	942.601399
2589.046114	937.212587
2590.486867	932.274126
2591.922558	925.271329
2593.361197	921.956643
2594.797980	922.738462
2596.232907	920.895105
2597.670781	921.620979
2599.103598	920.616783
2600.537762	923.918881
2601.970071	929.058741
2603.403728	931.253147
2604.835530	937.022378
2606.267080	932.688112
2607.698376	934.041958
2609.127821	930.939860
2610.557013	928.409790
2611.984354	922.412587
2613.413042	915.613986
2614.841477	910.261538
2616.266466	912.587413
2617.692800	914.141259
2619.117287	916.630769
2620.543118	915.525874
2621.965507	928.229371
2623.389240	925.878322
2624.811128	931.720280
2626.232765	928.923077
2627.652558	927.240559
2629.073696	916.581818
2630.494584	910.476923
2631.912033	906.288112
2633.332422	903.625175
2634.749374	899.151049
2636.166078	895.159441
2637.582533	894.963636
2638.998740	903.650350
2640.414699	900.580420
2641.828817	907.173427
2643.242687	908.678322
2644.654718	910.232168
2646.068094	905.535664
2647.478040	911.976224
2648.890922	913.503497
2650.300375	910.380420
2651.709582	907.766434
2653.116953	904.737063
2654.527258	909.258741
2655.935727	908.675524
2657.342362	908.103497
2658.748750	909.681119
2660.153306	906.436364
2661.559205	901.324476
2662.963270	900.065734
2664.367092	905.549650
2665.770669	902.450350
2667.172415	904.860140
2668.575504	899.959441
2669.975175	901.827972
2671.376190	906.699301
2672.773789	901.283916
2674.174317	904.247552
2675.571431	905.276923
2676.969888	902.387413
2678.366517	903.001399
2679.762905	905.637762
2681.159050	906.299301
2682.553369	903.560839
2683.949031	902.959441
2685.341284	896.503497
2686.734879	892.159441
2688.126650	888.443357
2689.519764	883.004196
2690.911053	886.283916
2692.300521	887.069930
2693.689748	887.822378
2695.078735	891.034965
2696.469065	893.369231
2697.854411	895.932867
2699.242680	893.033566
2700.629129	891.106294
2702.015339	887.288112
2703.401310	888.082517
2704.783883	887.401399
2706.167798	891.201399
2707.551474	895.464336
2708.934913	890.664336
2710.314956	884.251748
2711.696341	885.318881
2713.075910	884.145455
2714.456821	882.082517
2715.835917	879.462937
2717.213199	877.211189
2718.591822	872.697902
2719.968631	876.223776
2721.345205	878.745455
2722.721543	875.588811
2724.096069	876.930070
2725.471936	875.475524
2726.844416	871.076923
2728.219813	877.455944
2729.590249	876.250350
2730.962025	874.872727
2732.333568	871.816783
2733.703302	867.966434
2735.074376	865.260140
2736.443643	862.903497
2737.812676	860.405594
2739.179903	851.366434
2740.546896	852.118881
2741.913657	856.864336
2743.280185	855.998601
2744.644909	864.952448
2746.009400	864.904895
2747.373659	862.878322
2748.737687	864.537063
2750.101482	868.816783
2751.461905	869.892308
2752.825237	865.321678
2754.183627	865.304895
2755.544927	866.601399
2756.902857	868.780420
2758.263695	872.766434
2759.622733	866.780420
2760.978403	868.427972
2762.336982	858.724476
2763.692193	851.293706
2765.047175	847.565035
2766.400360	847.027972
2767.756452	843.879720
2769.109180	845.158042
2770.461679	851.959441
2771.813951	853.549650
2773.167560	850.078322
2774.517808	849.213986
2775.866263	846.801399
2777.217622	844.779021
2778.565622	841.346853
2779.914961	838.779021
2781.262507	834.420979
2782.609827	833.531469
2783.956919	831.945455
2785.302221	835.928671
2786.647297	834.409790
2787.992147	825.665734
2789.336771	820.427972
2790.678043	824.327273
2792.020652	832.794406
2793.363037	834.837762
2794.705196	844.381818
2796.044006	847.892308
2797.385716	849.788811
2798.724077	848.734266
2800.063776	848.777622
2801.401689	845.093706
2802.737818	834.500699
2804.073724	823.811189
2805.410967	816.451748
2806.746425	816.205594
2808.081661	819.537063
2809.415115	818.579021
2810.749905	819.924476
2812.081354	818.685315
2813.415699	823.121678
2814.745146	824.827972
2816.075930	822.931469
2817.406492	823.731469
2818.735275	820.530070
2820.065395	815.618182
2821.393736	818.826573
2822.721855	824.888112
2824.048198	827.475524
2825.375876	834.331469
2826.700222	833.798601
2828.025904	828.945455
2829.349810	830.941259
2830.673496	829.478322
2831.998518	825.050350
2833.320211	823.486713
2834.641685	816.230769
2835.962939	811.841958
2837.283975	814.433566
2838.603239	813.973427
2839.923838	812.781818
2841.242665	816.471329
2842.561274	813.379021
2843.878113	807.689510
2845.194734	810.162238
2846.511138	808.763636
2847.825772	805.139860
2849.141741	807.013986
2850.454391	807.027972
2851.768375	812.114685
2853.082143	815.440559
2854.395694	821.795804
2855.707479	824.840559
2857.017497	827.106294
2858.328850	829.018182
2859.636888	831.321678
2860.946260	833.148252
2862.255417	832.710490
2863.564359	829.538462
2864.871538	830.559441
2866.176953	830.625175
2867.483703	834.226573
2868.788691	832.481119
2870.093464	832.675524
2871.396477	823.439161
2872.702370	818.823776
2874.003409	816.468531
2875.305781	816.718881
2876.606395	808.916084
2877.908341	808.647552
2879.210075	805.816783
2880.508505	803.419580
2881.808268	802.930070
2883.106274	804.795804
2884.404068	802.558042
2885.700105	801.855944
2886.997476	805.488112
2888.293092	810.777622
2889.588496	811.225175
2890.883689	813.826573
2892.175585	810.062937
2893.470356	814.983217
2894.761832	816.745455
2896.054640	814.307692
2897.347238	812.400000
2898.636541	811.994406
2899.927178	808.946853
2901.216063	809.302098
2902.506280	812.822378
2903.793206	805.850350
2905.081464	798.262937
2906.367973	796.215385
2907.654273	791.735664
2908.940365	793.832168
2910.224709	798.075524
2911.511925	798.282517
2912.794314	802.271329
2914.078035	807.737063
2915.360009	809.716084
2916.641777	814.490909
2917.921799	811.475524
2919.204691	810.450350
2920.485838	805.788811
2921.763703	805.234965
2923.044437	800.983217
2924.321890	800.966434
2925.599138	800.762238
2926.874643	797.039161
2928.153016	801.204196
2929.426575	801.444755
2930.703001	802.707692
2931.977685	804.662937
2933.250630	805.679720
2934.524906	813.373427
2935.797441	812.970629
2937.069773	811.871329
2938.338832	809.502098
2939.610756	811.967832
2940.880942	806.302098
2942.150924	800.332867
2943.420703	797.699301
2944.688746	789.741259
2945.955052	788.317483
2947.221156	784.969231
2948.488591	782.576224
2949.754290	783.037762
2951.019788	776.460140
2952.285083	775.351049
2953.547113	777.669930
2954.810473	783.857343
2956.073632	785.110490
2957.335058	788.117483
2958.597815	787.050350
2959.858839	786.988811
2961.118133	790.637762
2962.377226	793.636364
2963.636120	792.125874
2964.894812	792.980420
2966.153305	788.760839
2967.410069	788.672727
2968.666634	789.893706
2969.921470	792.615385
2971.177636	792.606993
2972.430547	791.897902
2973.684786	791.047552
2974.938827	785.549650
2976.191142	783.836364
2977.443259	781.005594
2978.693651	779.924476
2979.946898	783.868531
2981.195368	784.030769
2982.446693	787.934266
2983.694768	792.500699
2984.942646	791.636364
2986.190328	791.559441
2987.437812	795.075524
2988.683575	796.772028
2989.929141	792.630769
2991.176036	798.404196
2992.419686	794.236364
2993.664663	798.148252
2994.906398	798.717483
2996.150984	794.927273
2997.393851	795.921678
2998.633477	793.243357
2999.875953	785.682517
3001.115189	782.088112
3002.355753	783.541259
3003.594600	781.264336
3004.833253	783.625175
3006.070190	785.779021
3007.308455	783.262937
3008.545004	787.083916
3009.781360	789.458741
3011.017522	789.552448
3012.251970	789.292308
3013.486225	783.004196
3014.720287	780.429371
3015.952637	774.358042
3017.183275	773.672727
3018.416759	767.188811
3019.648532	764.818182
3020.878593	765.819580
3022.108463	769.591608
3023.336623	769.337063
3024.566110	777.697902
3025.793887	773.186014
3027.021473	771.843357
3028.250385	770.619580
3029.474555	777.299301
3030.701568	772.255944
3031.925358	777.629371
3033.150473	774.844755
3034.373883	772.667133
3035.597102	774.530070
3036.818616	773.629371
3038.042971	769.674126
3039.262591	770.709091
3040.483537	765.822378
3041.704293	772.320280
3042.923347	774.344056
3044.143725	778.134266
3045.360887	776.753846
3046.579374	781.321678
3047.796160	780.048951
3049.012757	782.162238
3050.229167	784.541259
3051.442363	783.265734
3052.658397	779.759441
3053.871219	776.847552
3055.086878	779.839161
3056.297814	780.244755
3057.510076	775.774825
3058.722150	773.006993
3059.934038	768.124476
3061.144229	765.146853
3062.354233	765.783916
3063.564051	769.732867
3064.772173	771.904196
3065.980110	770.274126
3067.186351	771.795105
3068.393917	772.279720
3069.599788	777.964336
3070.805474	774.476923
3072.010976	777.727972
3073.214784	774.309091
3074.419916	771.293007
3075.623355	768.681119
3076.825102	766.217483
3078.026666	766.397203
3079.228046	766.193007
3080.429242	765.579021
3081.628748	766.148252
3082.828071	764.692308
3084.028717	766.720280
3085.227673	765.022378
3086.423434	764.741259
3087.622025	761.995804
3088.817422	761.132867
3090.014143	758.492308
3091.207671	753.857343
3092.404027	752.623776
3093.598696	754.144056
3094.790175	752.606993
3095.985986	750.160839
3097.177102	745.990210
3098.369542	742.738462
3099.558793	740.769231
3100.750871	741.826573
3101.941265	746.972028
3103.128473	748.062937
3104.317003	750.846154
3105.506856	752.916084
3106.693524	754.054545
3107.880013	756.422378
3109.066323	753.970629
3110.253954	748.724476
3111.438403	747.165035
3112.621173	747.411189
3113.806765	747.893706
3114.990678	753.167832
3116.172911	758.095105
3117.354967	757.047552
3118.536844	761.826573
3119.718543	759.433566
3120.898565	750.383217
3122.076910	751.265734
3123.258075	745.812587
3124.436065	744.114685
3125.613878	746.703497
3126.791514	746.426573
3127.967475	746.183217
3129.143260	753.609790
3130.320365	760.267133
3131.495797	758.562238
3132.669555	758.825175
3133.841640	753.195804
3135.015046	749.040559
3136.188277	746.488112
3137.359836	742.015385
3138.532715	741.124476
3139.702427	742.472727
3140.873460	739.636364
3142.042822	744.600000
3143.210515	750.051748
3144.381023	752.709091
3145.546872	745.268531
3146.717031	742.166434
3147.882532	746.613986
3149.047860	744.001399
3150.213014	739.152448
3151.377995	735.723077
3152.544295	729.760839
3153.705942	728.535664
3154.868910	730.193007
3156.031705	732.755245
3157.194326	725.408392
3158.355283	727.307692
3159.516068	724.293706
3160.676680	726.867133
3161.835628	731.190210
3162.994405	730.925874
3164.153009	733.997203
3165.311442	727.511888
3166.469703	718.639161
3167.626303	716.032168
3168.781241	717.841958
3169.937498	708.574825
3171.092094	706.075524
3172.246520	710.344056
3173.399285	709.306294
3174.551881	710.179021
3175.704307	712.997203
3176.856562	720.879720
3178.008648	724.455944
3179.157587	723.366434
3180.309333	717.423776
3181.459422	726.060140
3182.607853	726.436364
3183.756116	726.958042
3184.904210	727.521678
3186.052135	727.120280
3187.198404	727.090909
3188.344505	729.569231
3189.488952	732.984615
3190.633230	738.732867
3191.777341	734.795804
3192.922770	732.664336
3194.065060	726.836364
3195.207182	729.488112
3196.349138	725.061538
3197.490926	720.530070
3198.632547	715.710490
3199.771033	713.020979
3200.910836	714.398601
3202.051956	718.896503
3203.189943	726.601399
3204.326279	727.323077
3205.462451	722.076923
3206.599939	721.212587
3207.735779	716.734266
3208.872936	716.267133
3210.005480	718.068531
3211.142305	714.577622
3212.274520	719.058741
3213.408051	715.127273
3214.541417	723.039161
3215.671657	725.093706
3216.804694	725.615385
3217.934605	718.921678
3219.065832	712.959441
3220.193934	710.572028
3221.324834	700.553846
3222.454089	698.966434
3223.581701	694.440559
3224.706190	689.377622
3225.834955	686.676923
3226.960598	678.984615
3228.086078	686.548252
3229.209917	686.387413
3230.336551	688.805594
3231.458587	692.882517
3232.581939	697.162238
3233.705128	702.383217
3234.828156	703.504895
3235.949544	710.058741
3237.070771	708.906294
3238.190359	704.071329
3239.309786	702.744056
3240.427576	705.973427
3241.548157	713.011189
3242.665625	712.358042
3243.782932	713.661538
3244.900079	712.509091
3246.015589	708.639161
3247.132415	709.517483
3248.246130	711.233566
3249.362636	709.296503
3250.477506	705.632168
3251.589268	701.995804
3252.700871	708.904895
3253.813789	708.683916
3254.926547	706.492308
3256.036199	704.412587
3257.147166	707.205594
3258.257974	705.227972
3259.367150	707.206993
3260.474695	711.906294
3261.583555	715.370629
3262.692256	718.689510
3263.797855	722.727273
3264.904769	721.718881
3266.010053	725.779021
3267.116651	718.671329
3268.220149	715.514685
3269.324961	715.103497
3270.429616	721.567832
3271.531173	722.669930
3272.632573	721.177622
3273.735287	720.151049
3274.837845	723.076923
3275.937306	722.566434
3277.039551	716.120280
3278.138700	710.763636
3279.236224	709.433566
3280.333594	700.304895
3281.433745	698.549650
3282.530804	701.658741
3283.627707	707.446154
3284.724455	708.812587
3285.816644	707.865734
3286.913083	709.029371
3288.007899	712.200000
3289.102560	710.169231
3290.195600	707.106294
3291.288486	709.451748
3292.379751	705.381818
3293.472329	699.976224
3294.563287	699.780420
3295.652625	699.781818
3296.741810	701.383217
3297.832307	705.402797
3298.919721	705.777622
3300.006981	705.117483
3301.095554	708.360839
3302.183974	706.363636
3303.267848	706.853147
3304.355963	707.639161
3305.440996	707.587413
3306.524414	706.390210
3307.609144	710.033566
3308.692258	712.654545
3309.776684	715.952448
3310.858033	722.822378
3311.940693	724.047552
3313.021738	723.215385
3314.102633	723.869930
3315.181915	721.990210
3316.261046	715.593007
3317.341489	711.675524
3318.418857	711.883916
3319.497537	710.604196
3320.574605	709.731469
3321.651523	711.138462
3322.726831	712.236364
3323.801989	714.327273
3324.878458	717.013986
3325.951857	714.907692
3327.025106	713.511888
3328.099667	712.181818
3329.172619	709.419580
3330.243962	708.608392
3331.316616	703.370629
3332.386203	700.387413
3333.457101	696.124476
3334.526393	693.860140
3335.596994	693.639161
3336.665989	692.127273
3337.733379	698.395804
3338.799163	696.241958
3339.869173	698.497902
3340.936120	703.688112
3342.000005	706.525874
3343.066657	702.440559
3344.131706	702.220979
3345.195151	702.535664
3346.258450	699.489510
3347.321602	696.637762
3348.384608	700.093706
3349.447468	703.815385
3350.508725	705.976224
3351.566926	704.479720
3352.629348	705.524476
3353.688714	703.074126
3354.747934	704.190210
3355.808463	703.546853
3356.864484	704.349650
3357.923268	699.213986
3358.977545	695.047552
3360.034586	695.295105
3361.090028	692.071329
3362.146780	691.693706
3363.201933	686.054545
3364.255489	683.851748
3365.307448	678.762238
3366.362170	679.324476
3367.413842	681.618182
3368.465370	683.486713
3369.518208	686.744056
3370.567998	691.423776
3371.619097	694.416783
3372.667149	699.735664
3373.717962	695.604196
3374.765729	698.629371
3375.813354	698.755245
3376.860837	700.591608
3377.906727	690.924476
3378.953925	694.204196
3379.998080	689.412587
3381.044995	686.995804
3382.090317	686.661538
3383.132598	688.881119
3384.174738	686.099301
3385.218187	684.660140
3386.261494	683.218182
3387.303211	685.819580
3388.344788	687.986014
3389.386223	692.349650
3390.426070	684.172028
3391.464328	690.039161
3392.503894	691.660140
3393.543320	690.535664
3394.581158	694.113287
3395.617409	698.647552
3396.653520	699.500699
3397.690939	699.046154
3398.725325	700.102098
3399.761019	703.879720
3400.796573	700.974825
3401.829095	697.295105
3402.864371	689.223776
3403.896617	689.447552
3404.928723	689.016783
3405.959247	683.264336
3406.991077	684.387413
3408.022769	688.415385
3409.051433	684.759441
3410.079960	682.609790
3411.109793	684.321678
3412.139489	690.860140
3413.166159	689.613986
3414.194135	691.907692
3415.219087	697.380420
3416.246790	699.065734
3417.271468	698.941259
3418.297453	700.313287
3419.321859	700.623776
3420.346128	699.050350
3421.368818	693.619580
3422.391372	690.580420
3423.415232	689.011189
3424.436072	682.932867
3425.456776	679.319081
3426.478786	676.202498
3427.497778	673.835564
3428.516635	672.470729
3429.536798	672.360440
3430.553944	673.757143
