-118.702670	-0.200000
-116.033069	24.400000
-113.366404	12.000000
-110.700491	2.600000
-108.037511	25.800000
-105.373100	0.800000
-102.711620	31.400000
-100.048711	27.200000
-97.390908	25.800000
-94.731676	-8.600000
-92.073192	36.800000
-89.417633	21.600000
-86.760644	12.400000
-84.108754	27.200000
-81.455434	26.600000
-78.805033	1.400000
-76.153204	29.600000
-73.506465	-3.600000
-70.858296	6.200000
-68.210870	-11.200000
-65.566359	4.600000
-62.920418	4.400000
-60.279559	20.000000
-57.637271	2.200000
-54.997892	16.400000
-52.357084	23.600000
-49.717015	48.400000
-47.082020	24.000000
-44.445595	42.200000
-41.812073	23.800000
-39.177123	20.400000
-36.547239	18.800000
-33.913761	49.800000
-31.285346	14.600000
-28.657665	58.400000
-26.028555	29.600000
-23.404503	52.800000
-20.776860	58.200000
-18.154272	57.800000
-15.532414	34.200000
-12.911287	95.000000
-10.290891	195.600000
-7.673382	639.600000
-5.054445	2009.800000
-2.438394	4875.400000
0.176930	6324.400000
2.791525	3564.200000
5.403239	550.400000
8.016381	85.600000
10.624489	78.800000
13.236178	36.400000
15.842837	37.000000
18.450925	38.200000
21.058287	38.200000
23.660625	45.000000
26.266542	27.000000
28.867436	26.200000
31.469758	25.400000
34.067062	8.800000
36.667943	27.000000
39.263808	33.200000
41.861101	33.800000
44.457675	50.600000
47.049240	51.000000
49.642234	53.600000
52.232366	42.000000
54.823925	52.400000
57.412626	38.800000
60.002753	57.400000
62.587881	38.200000
65.174437	37.000000
67.760278	64.600000
70.343266	45.000000
72.927681	40.600000
75.504967	51.200000
78.085818	30.200000
80.663822	49.400000
83.241114	44.400000
85.819834	52.200000
88.393571	41.200000
90.968735	59.600000
93.541056	26.000000
96.112670	42.000000
98.681443	66.600000
101.251643	45.400000
103.819004	68.600000
106.387792	100.800000
108.953743	88.600000
111.516859	127.200000
114.083531	129.200000
116.640981	192.400000
119.204117	266.600000
121.762294	336.400000
124.324025	492.800000
126.880799	738.200000
129.438999	1098.000000
131.992247	1638.400000
134.544797	2363.200000
137.100897	3389.400000
139.652049	4536.000000
142.202504	5645.000000
144.752261	6492.200000
147.299199	7187.400000
149.845442	7672.200000
152.393110	7828.600000
154.940082	7935.000000
157.482118	7806.800000
160.023462	7894.200000
162.564112	7922.800000
165.106187	7757.600000
167.645452	7731.600000
170.181907	7677.200000
172.717672	7698.800000
175.254862	7580.600000
177.791361	7667.400000
180.325054	7648.400000
182.855943	7546.200000
185.386144	7438.000000
187.917771	7515.800000
190.446596	7543.800000
192.972622	7520.000000
195.497962	7480.400000
198.024727	7472.400000
200.548696	7459.600000
203.071979	7425.200000
205.594578	7396.400000
208.114384	7345.800000
210.633507	7365.600000
213.151947	7320.800000
215.671812	7350.400000
218.184674	7358.800000
220.701068	7447.200000
223.216781	7500.000000
225.727603	7378.800000
228.239850	7451.800000
230.749314	7472.200000
233.258100	7443.600000
235.766208	7554.800000
238.275740	7587.400000
240.780391	7502.200000
243.284366	7529.200000
245.789765	7591.200000
248.290289	7554.600000
250.794336	7595.800000
253.291413	7606.400000
255.792012	7626.800000
258.289840	7606.200000
260.786995	7602.800000
263.283478	7614.800000
265.775097	7660.400000
268.270236	7710.600000
270.762608	7647.800000
273.254310	7700.600000
275.743249	7668.800000
278.233611	7679.000000
280.721212	7611.600000
283.206053	7622.800000
285.694409	7625.800000
288.175825	7696.200000
290.660755	7712.200000
293.140839	7659.400000
295.624436	7625.400000
298.103191	7683.800000
300.583368	7696.200000
303.060794	7723.400000
305.537556	7627.000000
308.013654	7704.200000
310.487004	7669.000000
312.959693	7632.600000
315.431720	7619.200000
317.903085	7698.200000
320.371707	7699.400000
322.839669	7855.600000
325.309054	7617.800000
327.773616	7740.800000
330.241682	7667.800000
332.704927	7668.600000
335.167516	7715.400000
337.629448	7672.200000
340.090723	7709.200000
342.549263	7641.600000
345.009226	7534.600000
347.466457	7555.000000
349.923033	7514.800000
352.378955	7534.600000
354.832147	7362.000000
357.286762	7231.800000
359.736575	7266.400000
362.189884	7265.000000
364.638394	7088.800000
367.086254	7074.600000
369.535536	7019.000000
371.980023	6990.600000
374.425933	6878.800000
376.871194	6825.000000
379.313736	6780.800000
381.755630	6714.400000
384.196876	6671.400000
386.635408	6538.600000
389.075360	6471.800000
391.512599	6485.000000
393.947127	6432.200000
396.385141	6465.600000
398.818380	6288.400000
401.253039	6304.800000
403.682926	6230.000000
406.116298	6230.600000
408.544900	6139.000000
410.972860	6174.000000
413.402241	6168.200000
415.826858	6123.200000
418.252895	6175.000000
420.678293	6052.000000
423.103050	6106.800000
425.523048	6012.000000
427.944468	6077.000000
430.363192	6050.600000
432.783335	6020.200000
435.200784	6043.000000
437.619654	6022.000000
440.035829	5970.000000
442.447258	6029.400000
444.862163	5939.800000
447.274378	5920.800000
449.685960	5978.000000
452.096907	5927.800000
454.505167	5935.200000
456.912796	5901.200000
459.319792	5888.000000
461.726157	5890.600000
464.129839	5914.600000
466.532891	5852.000000
468.935313	5797.200000
471.337105	5793.400000
473.736219	5836.800000
476.136753	5812.800000
478.536658	5792.000000
480.931841	5763.400000
483.330489	5808.800000
485.724418	5751.400000
488.117721	5622.600000
490.510399	5684.600000
492.902451	5656.800000
495.295921	5595.200000
497.684679	5642.000000
500.070771	5529.600000
502.458283	5562.400000
504.845172	5609.200000
507.229396	5553.000000
509.615040	5565.600000
511.998022	5532.800000
514.378342	5507.400000
516.760083	5610.400000
519.139164	5548.000000
521.519663	5575.600000
523.897506	5522.800000
526.272692	5492.600000
528.647261	5571.200000
531.023249	5490.400000
533.396584	5400.200000
535.771336	5449.400000
538.141402	5331.400000
540.510854	5405.400000
542.881723	5320.600000
545.247911	5225.600000
547.615518	5246.600000
549.980479	5130.800000
552.344828	5069.200000
554.708563	4999.000000
557.073716	4960.400000
559.434197	4977.600000
561.796095	4836.800000
564.155354	4793.800000
566.511974	4719.600000
568.872040	4689.000000
571.225414	4652.400000
573.582233	4647.600000
575.936417	4503.200000
578.289992	4478.800000
580.642960	4444.000000
582.993295	4319.000000
585.345048	4292.400000
587.690124	4216.400000
590.040663	4113.800000
592.384530	4190.200000
594.733858	4132.400000
597.078537	4100.800000
599.420592	4011.600000
601.764064	4056.400000
604.104913	3913.600000
606.445159	3955.000000
608.782785	3994.000000
611.123846	3966.200000
613.460270	3968.600000
615.798110	3989.600000
618.133333	3956.000000
620.465939	3984.000000
622.799963	4021.800000
625.131372	3945.400000
627.462183	4005.000000
629.792396	3899.000000
632.122012	3916.000000
634.447004	3948.000000
636.777438	3916.000000
639.103251	3930.200000
641.426456	3968.000000
643.751078	3903.200000
646.073094	3964.000000
648.394516	3930.000000
650.713335	3963.800000
653.033571	3942.600000
655.353212	3930.800000
657.670254	4024.800000
659.986703	3959.200000
662.300554	3996.000000
664.615821	3995.600000
666.928491	4015.400000
669.242576	4115.800000
671.552061	4138.000000
673.862962	4105.400000
676.171270	4164.000000
678.478989	4145.000000
680.788124	4266.600000
683.092666	4319.400000
685.396622	4365.600000
687.699991	4362.200000
690.004776	4412.800000
692.304973	4422.800000
694.606586	4425.400000
696.907613	4420.200000
699.204059	4503.400000
701.501920	4527.000000
703.799197	4471.200000
706.095891	4547.200000
708.388009	4577.600000
710.683538	4624.200000
712.974493	4689.000000
715.266863	4754.400000
717.556657	4700.800000
719.845872	4777.400000
722.134507	4805.800000
724.420569	4843.200000
726.708045	4909.600000
728.992951	4887.000000
731.277279	5018.200000
733.559038	5015.000000
735.842211	5032.400000
738.124807	5080.400000
740.402847	5110.800000
742.682301	5164.000000
744.961180	5205.400000
747.239484	5284.600000
749.513237	5294.000000
751.788405	5398.400000
754.062999	5466.800000
756.335034	5466.600000
758.608482	5520.800000
760.879372	5612.600000
763.147706	5632.000000
765.417453	5609.600000
767.684645	5608.800000
769.951268	5674.000000
772.217320	5702.000000
774.480821	5788.000000
776.745734	5786.000000
779.010079	5902.000000
781.269893	5934.400000
783.531121	6001.400000
785.791781	6000.400000
788.049895	6000.600000
790.305464	5987.600000
792.564423	6144.400000
794.816884	5980.800000
797.074712	6149.400000
799.328021	6195.800000
801.578790	6215.400000
803.830971	6248.400000
806.080613	6168.200000
808.331667	6227.800000
810.578210	6290.600000
812.826166	6286.800000
815.071586	6274.800000
817.318419	6293.200000
819.564689	6360.800000
821.806456	6367.000000
824.051605	6417.200000
826.290283	6415.000000
828.532342	6372.000000
830.769903	6406.200000
833.008876	6619.000000
835.245322	6516.600000
837.483179	6582.200000
839.718511	6554.400000
841.951320	6662.800000
844.185539	6721.200000
846.417237	6723.800000
848.648380	6822.800000
850.878968	6817.400000
853.109002	6972.800000
855.338481	7060.400000
857.563480	7151.400000
859.791852	7260.600000
862.015746	7394.400000
864.241051	7470.600000
866.461880	7606.800000
868.686081	7670.000000
870.905809	7800.000000
873.126947	7994.000000
875.347535	8083.600000
877.565614	8329.400000
879.785102	8301.600000
882.000124	8481.600000
884.214598	8604.400000
886.428525	8690.400000
888.641904	8693.600000
890.854737	8871.800000
893.067022	8872.400000
895.276806	9051.400000
897.486044	8902.200000
899.694737	8893.800000
901.900930	9016.800000
904.108533	8922.000000
906.313639	8853.800000
908.518201	8673.400000
910.720268	8695.800000
912.923744	8477.600000
915.124726	8425.600000
917.325166	8263.200000
919.527015	8050.400000
921.722473	7972.000000
923.921289	7657.800000
926.115668	7579.800000
928.313404	7356.600000
930.506704	7184.400000
932.701413	7024.400000
934.893635	6935.600000
937.085320	6826.200000
939.276467	6683.000000
941.465131	6516.600000
943.653259	6507.000000
945.838905	6375.000000
948.027905	6365.000000
950.212480	6392.000000
952.396521	6430.600000
954.583913	6349.800000
956.763000	6403.800000
958.945438	6316.000000
961.127342	6348.200000
963.306771	6410.800000
965.483728	6346.200000
967.662093	6403.000000
969.841865	6334.000000
972.015288	6359.600000
974.192057	6336.200000
976.364419	6237.200000
978.538189	6259.000000
980.707555	6144.000000
982.880265	6097.400000
985.050510	6008.400000
987.220225	5899.400000
989.389412	5838.800000
991.554202	5794.000000
993.722334	5709.000000
995.886070	5618.800000
998.051214	5477.200000
1000.213898	5437.200000
1002.376057	5324.600000
1004.535759	5325.800000
1006.694936	5158.400000
1008.855520	5078.800000
1011.013649	4988.800000
1013.171255	4927.400000
1015.328337	4817.000000
1017.484895	4796.400000
1019.637074	4771.600000
1021.790660	4660.400000
1023.943724	4539.800000
1026.094339	4548.200000
1028.246360	4489.200000
1030.394009	4484.600000
1032.544989	4401.200000
1034.691598	4330.600000
1036.837688	4401.200000
1038.983260	4393.200000
1041.130237	4155.400000
1043.270925	4107.200000
1045.414942	4131.800000
1047.556520	4080.200000
1049.697580	4145.600000
1051.840046	4084.600000
1053.976231	4036.200000
1056.115743	3994.200000
1058.250899	3922.800000
1060.389380	3938.600000
1062.523508	3883.600000
1064.657122	3820.800000
1066.792140	3847.600000
1068.922810	3784.200000
1071.054884	3827.600000
1073.184528	3819.400000
1075.313661	3727.800000
1077.442283	3668.800000
1079.570393	3687.200000
1081.696077	3631.400000
1083.821251	3604.400000
1085.947829	3583.600000
1088.070069	3541.000000
1090.193714	3461.600000
1092.313024	3437.600000
1094.437563	3379.600000
1096.555858	3313.800000
1098.675556	3283.600000
1100.792837	3275.400000
1102.909610	3242.200000
1105.025877	3264.400000
1107.139729	3158.400000
1109.254984	3107.600000
1111.365917	3056.400000
1113.480162	3050.400000
1115.590086	2969.400000
1117.701413	2891.800000
1119.812237	2861.800000
1121.918744	2886.200000
1124.028560	2857.200000
1126.134062	2802.800000
1128.240968	2804.400000
1130.341658	2715.800000
1132.447560	2615.600000
1134.549153	2607.000000
1136.652148	2626.800000
1138.754644	2546.200000
1140.850932	2475.400000
1142.952427	2503.600000
1145.049620	2465.200000
1147.146314	2442.800000
1149.242511	2361.200000
1151.338209	2379.000000
1153.433410	2375.000000
1155.526214	2341.600000
1157.620420	2296.400000
1159.708435	2301.800000
1161.801648	2243.800000
1163.888674	2219.200000
1165.978998	2200.600000
1168.065034	2195.400000
1170.154368	2174.600000
1172.237521	2151.600000
1174.322077	2111.400000
1176.408034	2090.800000
1178.489709	2106.800000
1180.572785	2083.600000
1182.653476	2035.000000
1184.733676	2057.600000
1186.813384	1979.600000
1188.892601	1982.600000
1190.969435	2004.200000
1193.043889	1964.800000
1195.121635	1932.400000
1197.195110	1918.000000
1199.269987	1917.400000
1201.340596	1899.800000
1203.412606	1905.800000
1205.482240	1938.600000
1207.553275	1912.600000
1209.623822	1878.600000
1211.690109	1877.200000
1213.757796	1889.000000
1215.823110	1829.400000
1217.889825	1846.400000
1219.952284	1847.200000
1222.018029	1846.400000
1224.079519	1839.200000
1226.142410	1894.400000
1228.202932	1845.800000
1230.262972	1843.400000
1232.322528	1872.800000
1234.379720	1889.800000
1236.436429	1861.400000
1238.490776	1807.800000
1240.548403	1858.600000
1242.603668	1886.000000
1244.654693	1862.600000
1246.707117	1822.800000
1248.759061	1825.000000
1250.808647	1857.800000
1252.857754	1849.200000
1254.906382	1859.400000
1256.954532	1832.600000
1259.002204	1826.200000
1261.045645	1855.200000
1263.092362	1857.400000
1265.136725	1852.200000
1267.180611	1833.600000
1269.222147	1844.800000
1271.261333	1848.200000
1273.303792	1815.000000
1275.342028	1832.800000
1277.381663	1852.000000
1279.420822	1883.000000
1281.455764	1872.800000
1283.492104	1811.200000
1285.526100	1860.000000
1287.561493	1830.000000
1289.592673	1855.200000
1291.625252	1848.000000
1293.657359	1866.600000
1295.687125	1892.600000
1297.718288	1880.400000
1299.745244	1894.600000
1301.773599	1855.600000
1303.797748	1882.000000
1305.825163	1856.600000
1307.848375	1887.400000
1309.872985	1850.000000
1311.895260	1869.000000
1313.918933	1879.400000
1315.940273	1884.200000
1317.961146	1924.600000
1319.981551	1912.600000
1321.997763	1892.200000
1324.015372	1892.200000
1326.030653	1922.000000
1328.049193	1945.000000
1330.063543	1925.400000
1332.075568	1914.600000
1334.090851	1904.800000
1336.101948	1896.200000
1338.114441	1890.200000
1340.122752	1930.000000
1342.134319	1875.200000
1344.139847	1904.200000
1346.148630	1910.600000
1348.153235	1911.400000
1350.161094	1953.600000
1352.168491	1932.000000
1354.169857	1952.000000
1356.172619	1975.400000
1358.174922	1988.000000
1360.176765	1979.600000
1362.178148	1940.000000
1364.177217	1988.600000
1366.175828	1951.600000
1368.173981	1945.800000
1370.171676	1927.400000
1372.165208	1924.200000
1374.160135	1985.200000
1376.154606	1995.600000
1378.148620	1927.800000
1380.140327	1957.800000
1382.131578	2023.600000
1384.120524	1972.600000
1386.110865	1930.200000
1388.100752	1975.000000
1390.088334	1931.000000
1392.075463	1958.800000
1394.060290	1982.600000
1396.046512	1967.200000
1398.030433	1955.400000
1400.013902	1960.000000
1401.996919	1960.000000
1403.977638	2015.800000
1405.959751	1959.400000
1407.939567	2003.600000
1409.918933	1907.600000
1411.894160	1963.200000
1413.872625	1947.200000
1415.848797	1946.800000
1417.824519	1934.600000
1419.799792	1941.200000
1421.772775	1920.000000
1423.745309	1974.400000
1425.717395	1930.400000
1427.689034	1914.200000
1429.656544	1924.400000
1431.629128	1940.400000
1433.593906	1904.000000
1435.563757	1944.400000
1437.529483	1933.600000
1439.496603	1941.200000
1441.461439	1946.200000
1443.422155	1948.400000
1445.387939	1935.600000
1447.347768	1932.600000
1449.308991	1909.800000
1451.271605	1931.800000
1453.230105	1938.600000
1455.188163	1930.000000
1457.145779	1912.000000
1459.102952	1925.000000
1461.057850	1886.600000
1463.014141	1920.200000
1464.968157	1968.400000
1466.921732	1882.000000
1468.873035	1930.800000
1470.825730	1891.200000
1472.776154	1893.600000
1474.726139	1873.400000
1476.675685	1927.000000
1478.622962	1889.000000
1480.567971	1902.800000
1482.514373	1876.600000
1484.460337	1857.800000
1486.405864	1909.400000
1488.349125	1905.200000
1490.291950	1907.000000
1492.232512	1889.400000
1494.174466	1893.200000
1496.114157	1894.400000
1498.053413	1880.400000
1499.992235	1861.400000
1501.928797	1904.200000
1503.866750	1853.000000
1505.802444	1878.400000
1507.737705	1907.800000
1509.670709	1897.600000
1511.603281	1863.400000
1513.535421	1895.800000
1515.467129	1881.600000
1517.396584	1884.800000
1519.327429	1858.600000
1521.257842	1901.200000
1523.184183	1868.600000
1525.111914	1891.000000
1527.037396	1896.000000
1528.962448	1911.600000
1530.887070	1866.600000
1532.811264	1828.600000
1534.733211	1833.200000
1536.656548	1851.400000
1538.577638	1855.000000
1540.496484	1918.000000
1542.416720	1867.400000
1544.334712	1856.000000
1546.252278	1868.600000
1548.167603	1887.600000
1550.084317	1813.600000
1551.996975	1871.200000
1553.912838	1860.600000
1555.826462	1880.200000
1557.737847	1870.800000
1559.650622	1852.400000
1561.559347	1875.600000
1563.469461	1888.200000
1565.379152	1823.000000
1567.288420	1860.600000
1569.195453	1825.600000
1571.100254	1897.200000
1573.006444	1880.000000
1574.910403	1867.200000
1576.813940	1849.600000
1578.717057	1848.600000
1580.617944	1853.600000
1582.520220	1859.400000
1584.420267	1840.400000
1586.321703	1912.800000
1588.219104	1829.000000
1590.116088	1892.800000
1592.012653	1834.000000
1593.910605	1871.200000
1595.802723	1833.400000
1597.698035	1850.400000
1599.592928	1854.000000
1601.485601	1826.400000
1603.377856	1796.600000
1605.267892	1824.400000
1607.157512	1819.400000
1609.046717	1849.600000
1610.935506	1821.000000
1612.822079	1780.400000
1614.710039	1797.400000
1616.593982	1895.000000
1618.479312	1836.400000
1620.364229	1816.000000
1622.246932	1790.000000
1624.131022	1837.200000
1626.011100	1822.200000
1627.892566	1899.400000
1629.771820	1776.400000
1631.652462	1796.600000
1633.527299	1815.600000
1635.407117	1817.200000
1637.282930	1819.400000
1639.158334	1796.600000
1641.035123	1774.000000
1642.906115	1848.800000
1644.780290	1841.800000
1646.650465	1794.200000
1648.523821	1839.400000
1650.394974	1766.000000
1652.263925	1853.400000
1654.134262	1790.400000
1656.000606	1784.600000
1657.868335	1770.200000
1659.733865	1765.600000
1661.600781	1826.000000
1663.463707	1764.200000
1665.328020	1761.800000
1667.190136	1734.600000
1669.051847	1770.000000
1670.914943	1753.600000
1672.775845	1799.000000
1674.634554	1763.000000
1676.492859	1755.400000
1678.352548	1743.200000
1680.206471	1738.000000
1682.063567	1792.000000
1683.920259	1787.200000
1685.772976	1791.200000
1687.628864	1782.400000
1689.480778	1775.400000
1691.332291	1712.400000
1693.183403	1746.400000
1695.034114	1795.600000
1696.884425	1737.400000
1698.732552	1775.800000
1700.582063	1780.800000
1702.425824	1762.800000
1704.274536	1755.600000
1706.117501	1744.400000
1707.963632	1749.000000
1709.805802	1703.200000
1711.651137	1712.200000
1713.490730	1733.800000
1715.331709	1704.200000
1717.174070	1732.400000
1719.012474	1746.200000
1720.852262	1732.000000
1722.689875	1727.000000
1724.527093	1689.800000
1726.362137	1702.800000
1728.198564	1751.400000
1730.032818	1659.400000
1731.866679	1697.000000
1733.700145	1684.800000
1735.529665	1718.800000
1737.362345	1710.200000
1739.191079	1720.000000
1741.022972	1738.000000
1742.850922	1728.400000
1744.678480	1663.400000
1746.505647	1719.000000
1748.332422	1709.000000
1750.158805	1719.000000
1751.981252	1737.000000
1753.806854	1692.600000
1755.628520	1689.800000
1757.451569	1692.800000
1759.272457	1688.400000
1761.092955	1664.400000
1762.914835	1729.800000
1764.731015	1672.600000
1766.550347	1666.000000
1768.365752	1657.800000
1770.184308	1627.200000
1771.998938	1685.600000
1773.813181	1667.400000
1775.627038	1651.200000
1777.440508	1696.800000
1779.251824	1655.400000
1781.064522	1678.400000
1782.876834	1700.800000
1784.685227	1684.200000
1786.495002	1697.600000
1788.300861	1626.200000
1790.109867	1716.600000
1791.914959	1678.000000
1793.721432	1670.600000
1795.527520	1671.600000
1797.329699	1630.000000
1799.135021	1632.200000
1800.936435	1646.800000
1802.739230	1616.200000
1804.538118	1641.200000
1806.338387	1654.800000
1808.138274	1673.400000
1809.936019	1621.800000
1811.733384	1670.200000
1813.530368	1623.600000
1815.326972	1634.600000
1817.121437	1609.600000
1818.917282	1637.400000
1820.707471	1654.000000
1822.502557	1597.800000
1824.291990	1616.800000
1826.084561	1607.400000
1827.874996	1609.000000
1829.663296	1630.200000
1831.454732	1616.000000
1833.240523	1603.800000
1835.027692	1602.200000
1836.812731	1595.400000
1838.600902	1552.400000
1840.385188	1579.400000
1842.167345	1582.200000
1843.950881	1618.000000
1845.732288	1606.800000
1847.515073	1590.200000
1849.293979	1620.200000
1851.074263	1616.800000
1852.852422	1594.200000
1854.631958	1611.800000
1856.409370	1581.000000
1858.184659	1529.200000
1859.961325	1570.600000
1861.735869	1600.000000
1863.511790	1630.200000
1865.282092	1596.400000
1867.055521	1529.600000
1868.826830	1567.200000
1870.597768	1601.800000
1872.370084	1602.200000
1874.136786	1601.200000
1875.906613	1596.000000
1877.672577	1609.800000
1879.441665	1593.000000
1881.206891	1524.800000
1882.971749	1536.200000
1884.737983	1552.600000
1886.500359	1564.200000
1888.262368	1524.600000
1890.024010	1539.800000
1891.785284	1569.200000
1893.546192	1567.400000
1895.306732	1574.200000
1897.065164	1577.600000
1898.823229	1499.200000
1900.579187	1506.400000
1902.336521	1497.000000
1904.093490	1550.800000
1905.848352	1525.600000
1907.601109	1557.200000
1909.353503	1518.200000
1911.107273	1485.200000
1912.858939	1514.400000
1914.608502	1503.600000
1916.359442	1504.800000
1918.110018	1541.200000
1919.856756	1496.800000
1921.604869	1515.800000
1923.350883	1508.000000
1925.098273	1507.200000
1926.843564	1510.800000
1928.586758	1514.200000
1930.331328	1502.200000
1932.073801	1469.000000
1933.815914	1477.600000
1935.557668	1507.400000
1937.299061	1510.600000
1939.038361	1494.800000
1940.777302	1519.000000
1942.515884	1481.000000
1944.252375	1494.800000
1945.988507	1473.500000
1947.726015	1452.200000
1949.459700	1545.800000
1951.194760	1454.800000
1952.927731	1513.200000
1954.660346	1475.600000
1956.392604	1495.000000
1958.124506	1483.600000
1959.854323	1492.000000
1961.582054	1472.800000
1963.311160	1485.400000
1965.039910	1494.200000
1966.766577	1498.800000
1968.492890	1443.400000
1970.220577	1478.400000
1971.942727	1471.800000
1973.667978	1461.400000
1975.389422	1452.800000
1977.113966	1477.000000
1978.836431	1484.000000
1980.555092	1489.400000
1982.276852	1488.400000
1983.994811	1491.600000
1985.714142	1474.000000
1987.429674	1462.400000
1989.150026	1510.400000
1990.866580	1493.600000
1992.579337	1481.800000
1994.295190	1444.000000
1996.008971	1471.600000
1997.722402	1506.600000
1999.433762	1463.400000
2001.146494	1445.200000
2002.855435	1444.600000
2004.567470	1477.800000
2006.273995	1452.800000
2007.983613	1482.000000
2009.691163	1461.800000
2011.398366	1489.400000
2013.103503	1478.800000
2014.808293	1494.200000
2016.514456	1408.600000
2018.216835	1450.400000
2019.920587	1472.600000
2021.622276	1448.200000
2023.323619	1465.800000
2025.024618	1468.600000
2026.723555	1422.400000
2028.423864	1481.800000
2030.120397	1434.600000
2031.818302	1437.800000
2033.514149	1394.400000
2035.213081	1424.200000
2036.906527	1412.600000
2038.601344	1426.200000
2040.295818	1411.200000
2041.986525	1461.000000
2043.680314	1430.800000
2045.370338	1463.600000
2047.061731	1484.000000
2048.751072	1442.400000
2050.441784	1425.600000
2052.128732	1415.400000
2053.815340	1406.000000
2055.503319	1399.800000
2057.187538	1385.600000
2058.873127	1400.200000
2060.558377	1393.400000
2062.241579	1357.000000
2063.926151	1371.400000
2065.605259	1393.000000
2067.289154	1393.600000
2068.967587	1396.000000
2070.649098	1395.400000
2072.326857	1357.800000
2074.004280	1375.200000
2075.683072	1392.000000
2077.359821	1365.800000
2079.034529	1361.000000
2080.710607	1399.800000
2082.384643	1388.200000
2084.058345	1373.400000
2085.731711	1377.800000
2087.403038	1380.400000
2089.074031	1353.600000
2090.744690	1372.000000
2092.415015	1348.000000
2094.085006	1431.800000
2095.752960	1395.600000
2097.420582	1372.000000
2099.086170	1324.400000
2100.753126	1367.200000
2102.418049	1402.200000
2104.082640	1377.400000
2105.745199	1385.600000
2107.409126	1386.400000
2109.071022	1338.800000
2110.732587	1374.000000
2112.393822	1389.200000
2114.053027	1348.800000
2115.711903	1360.800000
2117.370448	1334.200000
2119.028664	1360.200000
2120.683157	1359.200000
2122.340714	1387.400000
2123.997941	1397.400000
2125.651448	1350.800000
2127.306322	1365.800000
2128.957477	1347.800000
2130.611695	1326.600000
2132.262195	1357.400000
2133.914063	1342.400000
2135.560522	1365.200000
2137.211735	1310.400000
2138.859236	1371.200000
2140.508103	1310.200000
2142.154951	1365.800000
2143.801474	1334.600000
2145.447671	1352.400000
2147.090159	1319.200000
2148.735706	1360.600000
2150.377546	1342.800000
2152.022443	1305.800000
2153.663635	1280.600000
2155.304503	1319.200000
2156.945048	1330.400000
2158.583580	1292.200000
2160.223478	1282.800000
2161.859676	1290.600000
2163.497240	1310.800000
2165.134482	1325.000000
2166.769714	1296.200000
2168.404624	1308.200000
2170.039213	1290.200000
2171.673481	1317.200000
2173.304055	1280.600000
2174.937681	1286.200000
2176.567614	1275.800000
2178.198914	1294.000000
2179.828208	1287.400000
2181.457183	1301.600000
2183.085838	1273.000000
2184.714174	1281.800000
2186.340507	1245.200000
2187.966522	1258.000000
2189.590536	1294.000000
2191.215915	1274.600000
2192.839293	1268.600000
2194.464036	1210.600000
2196.085098	1256.000000
2197.705843	1261.600000
2199.327952	1235.400000
2200.948064	1207.200000
2202.566180	1242.800000
2204.183980	1242.800000
2205.801464	1234.800000
2207.418634	1279.600000
2209.035487	1188.400000
2210.652026	1243.400000
2212.266571	1195.800000
2213.879125	1246.800000
2215.493042	1211.600000
2217.104968	1245.600000
2218.718257	1190.200000
2220.329555	1274.200000
2221.938865	1220.400000
2223.549537	1275.200000
2225.158221	1233.400000
2226.766593	1212.800000
2228.372978	1207.000000
2229.980725	1212.000000
2231.586487	1263.000000
2233.191937	1233.200000
2234.795402	1182.000000
2236.400230	1217.800000
2238.003074	1263.600000
2239.603935	1250.000000
2241.206159	1225.200000
2242.806401	1212.600000
2244.408005	1215.200000
2246.005956	1230.000000
2247.605270	1193.400000
2249.202604	1233.000000
2250.799630	1211.400000
2252.398017	1238.000000
2253.992757	1212.600000
2255.585519	1214.000000
2257.179644	1198.000000
2258.775130	1226.000000
2260.366971	1215.600000
2261.958506	1209.000000
2263.551402	1197.800000
2265.138990	1225.600000
2266.731273	1171.400000
2268.318249	1231.600000
2269.908254	1198.400000
2271.492954	1163.800000
2273.082348	1167.200000
2274.666439	1193.800000
2276.251892	1163.400000
2277.835376	1162.000000
2279.421885	1174.800000
2281.004761	1169.000000
2282.587334	1149.600000
2284.169603	1172.000000
2285.748242	1142.200000
2287.329906	1195.200000
2288.907941	1146.000000
2290.488999	1147.600000
2292.066430	1146.200000
2293.641898	1144.800000
2295.220388	1155.600000
2296.795254	1148.000000
2298.369819	1121.800000
2299.944083	1123.800000
2301.518047	1127.600000
2303.091711	1176.400000
2304.665075	1101.600000
2306.234820	1123.400000
2307.804266	1170.800000
2309.376730	1128.000000
2310.943920	1164.800000
2312.514127	1149.000000
2314.080721	1143.800000
2315.648673	1128.200000
2317.214671	1144.000000
2318.780371	1168.200000
2320.345773	1135.200000
2321.909222	1113.000000
2323.474030	1142.400000
2325.035229	1141.200000
2326.599443	1165.600000
2328.158396	1183.000000
2329.720362	1130.000000
2331.280378	1120.600000
2332.840098	1160.200000
2334.397870	1173.200000
2335.955346	1121.200000
2337.512528	1144.000000
2339.067762	1098.600000
2340.622702	1142.400000
2342.177349	1109.600000
2343.731702	1157.800000
2345.285761	1110.200000
2346.839527	1168.000000
2348.391348	1111.800000
2349.941226	1137.600000
2351.494113	1139.000000
2353.041756	1152.200000
2354.592407	1124.600000
2356.139468	1116.000000
2357.687886	1119.000000
2359.236013	1100.600000
2360.780551	1117.400000
2362.326447	1115.600000
2363.870404	1095.600000
2365.415719	1121.600000
2366.957449	1080.800000
2368.500537	1130.200000
2370.041688	1111.400000
2371.582550	1100.000000
2373.123123	1107.400000
2374.663407	1111.000000
2376.203402	1079.600000
2377.739818	1119.400000
2379.279236	1092.200000
2380.815077	1119.400000
2382.352275	1102.800000
2383.885897	1087.600000
2385.422519	1123.800000
2386.957211	1100.200000
2388.489972	1089.800000
2390.022448	1102.000000
2391.552995	1101.200000
2393.086540	1070.600000
2394.614874	1127.400000
2396.144564	1095.600000
2397.673969	1052.200000
2399.203089	1093.600000
2400.731923	1086.800000
2402.255553	1084.000000
2403.783818	1058.600000
2405.306880	1137.800000
2406.834577	1111.600000
2408.355434	1095.400000
2409.880923	1102.000000
2411.402853	1109.000000
2412.926137	1079.600000
2414.447501	1079.200000
2415.966945	1091.800000
2417.487744	1107.600000
2419.006624	1061.200000
2420.525223	1081.200000
2422.041903	1095.800000
2423.559939	1069.600000
2425.077693	1074.200000
2426.591895	1106.200000
2428.105818	1097.400000
2429.619460	1063.400000
2431.134456	1093.200000
2432.645905	1060.400000
2434.158707	1071.200000
2435.669597	1076.000000
2437.180208	1072.200000
2438.688907	1083.600000
2440.200592	1044.800000
2441.708734	1065.000000
2443.216598	1029.400000
2444.724183	1076.000000
2446.228229	1015.800000
2447.735259	1052.600000
2449.240381	1057.600000
2450.745226	1040.200000
2452.248164	1062.800000
2453.750825	1032.400000
2455.253211	1028.200000
2456.753690	1015.400000
2458.255524	1044.600000
2459.755452	1041.000000
2461.255105	996.200000
2462.754483	1034.600000
2464.251958	1041.400000
2465.747531	1055.200000
2467.246084	1037.400000
2468.741109	1045.000000
2470.237486	992.600000
2471.730337	1009.000000
2473.224541	1020.400000
2474.718471	1034.600000
2476.208877	1037.800000
2477.702261	991.800000
2479.193747	1006.800000
2480.683336	1039.000000
2482.172653	1032.000000
2483.660074	1021.400000
2485.150471	997.800000
2486.637350	1021.800000
2488.125580	997.200000
2489.610293	1013.600000
2491.094736	979.000000
2492.580531	1019.800000
2494.064434	1024.400000
2495.549687	1032.600000
2497.029807	1004.800000
2498.512899	1008.800000
2499.994102	982.800000
2501.475035	1043.400000
2502.954078	1054.600000
2504.432854	1005.800000
2505.911361	1024.200000
2507.389599	1017.800000
2508.867570	988.400000
2510.342035	1017.600000
2511.819470	981.400000
2513.293400	1023.800000
2514.768682	1013.000000
2516.243696	1010.800000
2517.715209	988.800000
2519.188073	1025.200000
2520.659054	1022.200000
2522.131385	1035.600000
2523.598602	1016.400000
2525.068786	1042.400000
2526.537089	1008.000000
2528.005126	986.200000
2529.472899	1013.000000
2530.940407	1039.800000
2532.407651	1009.400000
2533.871402	1002.000000
2535.336503	980.600000
2536.799727	990.800000
2538.264300	999.600000
2539.725385	1038.600000
2541.187819	955.000000
2542.649990	1008.800000
2544.108674	992.000000
2545.571931	1026.400000
2547.030091	1025.800000
2548.489601	1034.800000
2549.944016	1024.200000
2551.403002	1034.400000
2552.860116	1028.600000
2554.315358	1022.600000
2555.770340	994.800000
2557.223452	1008.400000
2558.677913	954.000000
2560.130505	960.400000
2561.582837	991.800000
2563.033301	1030.400000
2564.486722	1012.800000
2565.935060	1005.600000
2567.386353	977.200000
2568.835780	999.600000
2570.281736	1010.000000
2571.730646	968.200000
2573.176085	951.400000
2574.622873	1006.600000
2576.067797	996.200000
2577.512464	1003.200000
2578.958478	965.400000
2580.401025	987.000000
2581.844920	973.800000
2583.285350	965.200000
2584.727128	964.200000
2586.167046	979.400000
2587.608311	952.400000
2589.046114	956.000000
2590.486867	984.200000
2591.922558	996.600000
2593.361197	949.000000
2594.797980	962.600000
2596.232907	938.400000
2597.670781	944.800000
2599.103598	963.200000
2600.537762	963.800000
2601.970071	987.200000
2603.403728	974.800000
2604.835530	965.000000
2606.267080	992.400000
2607.698376	977.600000
2609.127821	958.000000
2610.557013	934.000000
2611.984354	990.600000
2613.413042	901.400000
2614.841477	979.600000
2616.266466	982.400000
2617.692800	954.200000
2619.117287	961.600000
2620.543118	950.400000
2621.965507	941.200000
2623.389240	990.000000
2624.811128	956.200000
2626.232765	959.400000
2627.652558	941.000000
2629.073696	983.600000
2630.494584	955.000000
2631.912033	956.000000
2633.332422	921.200000
2634.749374	938.200000
2636.166078	950.000000
2637.582533	948.600000
2638.998740	952.800000
2640.414699	928.000000
2641.828817	926.400000
2643.242687	937.200000
2644.654718	929.000000
2646.068094	969.000000
2647.478040	913.000000
2648.890922	960.600000
2650.300375	943.600000
2651.709582	936.600000
2653.116953	955.800000
2654.527258	979.000000
2655.935727	952.600000
2657.342362	950.000000
2658.748750	917.800000
2660.153306	956.800000
2661.559205	936.000000
2662.963270	939.200000
2664.367092	982.000000
2665.770669	945.400000
2667.172415	945.600000
2668.575504	938.400000
2669.975175	926.600000
2671.376190	959.000000
2672.773789	938.200000
2674.174317	940.600000
2675.571431	930.600000
2676.969888	966.400000
2678.366517	970.200000
2679.762905	930.600000
2681.159050	937.400000
2682.553369	980.200000
2683.949031	954.000000
2685.341284	956.000000
2686.734879	938.000000
2688.126650	926.400000
2689.519764	934.400000
2690.911053	945.200000
2692.300521	916.400000
2693.689748	918.000000
2695.078735	901.600000
2696.469065	953.200000
2697.854411	938.800000
2699.242680	928.600000
2700.629129	943.200000
2702.015339	945.200000
2703.401310	943.800000
2704.783883	949.000000
2706.167798	920.000000
2707.551474	938.800000
2708.934913	868.400000
2710.314956	939.000000
2711.696341	927.000000
2713.075910	897.000000
2714.456821	883.400000
2715.835917	922.800000
2717.213199	941.800000
2718.591822	911.000000
2719.968631	905.200000
2721.345205	927.400000
2722.721543	892.400000
2724.096069	916.200000
2725.471936	900.000000
2726.844416	916.200000
2728.219813	951.600000
2729.590249	900.800000
2730.962025	928.400000
2732.333568	896.200000
2733.703302	868.000000
2735.074376	931.600000
2736.443643	886.800000
2737.812676	923.200000
2739.179903	905.000000
2740.546896	925.200000
2741.913657	877.000000
2743.280185	901.200000
2744.644909	926.800000
2746.009400	912.800000
2747.373659	901.200000
2748.737687	925.000000
2750.101482	906.400000
2751.461905	925.800000
2752.825237	935.800000
2754.183627	881.600000
2755.544927	934.200000
2756.902857	904.400000
2758.263695	864.200000
2759.622733	911.000000
2760.978403	870.600000
2762.336982	897.200000
2763.692193	902.800000
2765.047175	893.400000
2766.400360	880.200000
2767.756452	912.200000
2769.109180	882.200000
2770.461679	895.400000
2771.813951	903.800000
2773.167560	907.200000
2774.517808	886.800000
2775.866263	905.200000
2777.217622	892.400000
2778.565622	877.200000
2779.914961	858.400000
2781.262507	899.600000
2782.609827	854.800000
2783.956919	869.800000
2785.302221	871.600000
2786.647297	901.600000
2787.992147	875.800000
2789.336771	870.600000
2790.678043	894.200000
2792.020652	863.200000
2793.363037	873.800000
2794.705196	833.000000
2796.044006	909.400000
2797.385716	883.200000
2798.724077	870.000000
2800.063776	879.800000
2801.401689	930.000000
2802.737818	842.000000
2804.073724	855.000000
2805.410967	877.600000
2806.746425	866.400000
2808.081661	896.600000
2809.415115	838.800000
2810.749905	893.400000
2812.081354	860.400000
2813.415699	903.600000
2814.745146	850.800000
2816.075930	879.800000
2817.406492	829.600000
2818.735275	855.200000
2820.065395	907.800000
2821.393736	878.400000
2822.721855	853.200000
2824.048198	899.000000
2825.375876	850.200000
2826.700222	840.800000
2828.025904	856.200000
2829.349810	894.200000
2830.673496	821.600000
2831.998518	851.000000
2833.320211	831.200000
2834.641685	817.400000
2835.962939	848.000000
2837.283975	869.800000
2838.603239	854.800000
2839.923838	860.400000
2841.242665	871.800000
2842.561274	859.000000
2843.878113	830.600000
2845.194734	834.400000
2846.511138	848.000000
2847.825772	836.600000
2849.141741	812.400000
2850.454391	880.600000
2851.768375	846.800000
2853.082143	815.000000
2854.395694	824.200000
2855.707479	871.400000
2857.017497	840.000000
2858.328850	864.600000
2859.636888	840.000000
2860.946260	878.600000
2862.255417	835.800000
2863.564359	886.400000
2864.871538	835.800000
2866.176953	862.800000
2867.483703	840.200000
2868.788691	838.200000
2870.093464	847.600000
2871.396477	852.800000
2872.702370	858.200000
2874.003409	851.200000
2875.305781	847.800000
2876.606395	864.600000
2877.908341	860.400000
2879.210075	842.400000
2880.508505	816.200000
2881.808268	836.800000
2883.106274	836.800000
2884.404068	883.200000
2885.700105	807.800000
2886.997476	833.000000
2888.293092	821.000000
2889.588496	836.800000
2890.883689	841.200000
2892.175585	820.200000
2893.470356	825.600000
2894.761832	887.200000
2896.054640	867.400000
2897.347238	843.800000
2898.636541	838.800000
2899.927178	866.800000
2901.216063	837.600000
2902.506280	849.400000
2903.793206	822.200000
2905.081464	840.600000
2906.367973	881.600000
2907.654273	870.400000
2908.940365	842.800000
2910.224709	824.200000
2911.511925	829.600000
2912.794314	812.800000
2914.078035	824.600000
2915.360009	850.000000
2916.641777	830.200000
2917.921799	832.000000
2919.204691	845.000000
2920.485838	824.600000
2921.763703	832.000000
2923.044437	857.400000
2924.321890	806.000000
2925.599138	844.000000
2926.874643	820.800000
2928.153016	880.400000
2929.426575	778.600000
2930.703001	871.600000
2931.977685	828.600000
2933.250630	834.000000
2934.524906	849.800000
2935.797441	835.600000
2937.069773	850.600000
2938.338832	839.200000
2939.610756	850.800000
2940.880942	823.400000
2942.150924	820.800000
2943.420703	847.800000
2944.688746	853.000000
2945.955052	829.200000
2947.221156	802.600000
2948.488591	814.600000
2949.754290	820.400000
2951.019788	831.800000
2952.285083	836.200000
2953.547113	853.800000
2954.810473	816.600000
2956.073632	825.400000
2957.335058	788.600000
2958.597815	865.800000
2959.858839	833.400000
2961.118133	834.000000
2962.377226	834.200000
2963.636120	818.000000
2964.894812	815.400000
2966.153305	824.000000
2967.410069	801.600000
2968.666634	846.200000
2969.921470	777.600000
2971.177636	807.200000
2972.430547	823.600000
2973.684786	787.800000
2974.938827	829.200000
2976.191142	819.800000
2977.443259	799.200000
2978.693651	838.600000
2979.946898	846.400000
2981.195368	796.000000
2982.446693	846.800000
2983.694768	835.400000
2984.942646	830.400000
2986.190328	823.000000
2987.437812	829.600000
2988.683575	811.600000
2989.929141	777.200000
2991.176036	810.400000
2992.419686	818.600000
2993.664663	839.200000
2994.906398	808.400000
2996.150984	833.000000
2997.393851	802.800000
2998.633477	799.800000
2999.875953	806.200000
3001.115189	773.600000
3002.355753	813.600000
3003.594600	821.200000
3004.833253	774.600000
3006.070190	784.400000
3007.308455	802.600000
3008.545004	841.800000
3009.781360	783.000000
3011.017522	794.400000
3012.251970	793.200000
3013.486225	840.400000
3014.720287	817.000000
3015.952637	811.400000
3017.183275	787.400000
3018.416759	817.000000
3019.648532	792.200000
3020.878593	792.200000
3022.108463	802.800000
3023.336623	790.200000
3024.566110	807.200000
3025.793887	806.400000
3027.021473	836.800000
3028.250385	835.800000
3029.474555	785.800000
3030.701568	812.400000
3031.925358	793.000000
3033.150473	820.200000
3034.373883	823.800000
3035.597102	795.400000
3036.818616	768.200000
3038.042971	786.000000
3039.262591	790.600000
3040.483537	807.200000
3041.704293	763.800000
3042.923347	814.400000
3044.143725	801.400000
3045.360887	791.800000
3046.579374	810.800000
3047.796160	801.000000
3049.012757	793.400000
3050.229167	809.400000
3051.442363	809.000000
3052.658397	810.600000
3053.871219	801.000000
3055.086878	795.200000
3056.297814	806.600000
3057.510076	777.400000
3058.722150	796.800000
3059.934038	752.600000
3061.144229	824.200000
3062.354233	788.200000
3063.564051	787.600000
3064.772173	768.000000
3065.980110	794.800000
3067.186351	790.400000
3068.393917	831.800000
3069.599788	806.200000
3070.805474	780.600000
3072.010976	812.600000
3073.214784	764.000000
3074.419916	793.400000
3075.623355	780.400000
3076.825102	783.600000
3078.026666	788.400000
3079.228046	788.600000
3080.429242	778.000000
3081.628748	770.400000
3082.828071	782.000000
3084.028717	789.800000
3085.227673	767.600000
3086.423434	796.600000
3087.622025	764.000000
3088.817422	774.000000
3090.014143	764.200000
3091.207671	793.600000
3092.404027	763.800000
3093.598696	781.800000
3094.790175	743.800000
3095.985986	791.400000
3097.177102	781.000000
3098.369542	797.000000
3099.558793	779.600000
3100.750871	744.200000
3101.941265	792.200000
3103.128473	789.000000
3104.317003	774.200000
3105.506856	787.200000
3106.693524	794.800000
3107.880013	783.800000
3109.066323	762.600000
3110.253954	798.000000
3111.438403	770.800000
3112.621173	790.800000
3113.806765	757.800000
3114.990678	785.800000
3116.172911	737.600000
3117.354967	801.800000
3118.536844	762.200000
3119.718543	781.400000
3120.898565	762.200000
3122.076910	750.600000
3123.258075	781.200000
3124.436065	784.200000
3125.613878	778.200000
3126.791514	770.200000
3127.967475	797.600000
3129.143260	781.200000
3130.320365	788.400000
3131.495797	755.600000
3132.669555	739.000000
3133.841640	752.200000
3135.015046	781.000000
3136.188277	788.600000
3137.359836	751.400000
3138.532715	784.000000
3139.702427	757.400000
3140.873460	777.200000
3142.042822	749.600000
3143.210515	741.000000
3144.381023	750.800000
3145.546872	780.800000
3146.717031	792.000000
3147.882532	749.800000
3149.047860	750.200000
3150.213014	771.000000
3151.377995	730.800000
3152.544295	760.000000
3153.705942	750.600000
3154.868910	746.400000
3156.031705	725.000000
3157.194326	751.000000
3158.355283	758.600000
3159.516068	751.200000
3160.676680	749.000000
3161.835628	756.200000
3162.994405	737.200000
3164.153009	751.600000
3165.311442	733.600000
3166.469703	712.400000
3167.626303	737.200000
3168.781241	749.000000
3169.937498	743.600000
3171.092094	779.000000
3172.246520	675.800000
3173.399285	732.400000
3174.551881	723.400000
3175.704307	716.000000
3176.856562	757.800000
3178.008648	759.200000
3179.157587	744.000000
3180.309333	728.600000
3181.459422	717.800000
3182.607853	771.400000
3183.756116	715.800000
3184.904210	740.800000
3186.052135	768.800000
3187.198404	786.200000
3188.344505	720.800000
3189.488952	752.000000
3190.633230	710.200000
3191.777341	751.400000
3192.922770	738.400000
3194.065060	745.600000
3195.207182	739.600000
3196.349138	745.600000
3197.490926	732.400000
3198.632547	748.200000
3199.771033	764.000000
3200.910836	735.200000
3202.051956	704.200000
3203.189943	738.400000
3204.326279	753.600000
3205.462451	765.400000
3206.599939	762.200000
3207.735779	744.400000
3208.872936	761.600000
3210.005480	732.000000
3211.142305	703.800000
3212.274520	738.600000
3213.408051	710.000000
3214.541417	737.400000
3215.671657	727.600000
3216.804694	712.800000
3217.934605	712.800000
3219.065832	712.400000
3220.193934	679.400000
3221.324834	741.000000
3222.454089	752.800000
3223.581701	749.600000
3224.706190	722.800000
3225.834955	751.000000
3226.960598	690.800000
3228.086078	703.000000
3229.209917	685.600000
3230.336551	715.000000
3231.458587	707.800000
3232.581939	722.600000
3233.705128	743.800000
3234.828156	715.600000
3235.949544	723.000000
3237.070771	784.000000
3238.190359	693.600000
3239.309786	712.200000
3240.427576	724.600000
3241.548157	698.600000
3242.665625	695.000000
3243.782932	715.800000
3244.900079	717.400000
3246.015589	728.400000
3247.132415	742.000000
3248.246130	753.600000
3249.362636	738.200000
3250.477506	724.400000
3251.589268	719.600000
3252.700871	772.800000
3253.813789	733.800000
3254.926547	731.600000
3256.036199	747.200000
3257.147166	729.600000
3258.257974	747.200000
3259.367150	704.400000
3260.474695	753.200000
3261.583555	726.800000
3262.692256	738.400000
3263.797855	723.000000
3264.904769	757.400000
3266.010053	746.800000
3267.116651	719.200000
3268.220149	734.200000
3269.324961	697.200000
3270.429616	754.000000
3271.531173	784.600000
3272.632573	708.000000
3273.735287	721.800000
3274.837845	747.800000
3275.937306	782.400000
3277.039551	736.000000
3278.138700	700.600000
3279.236224	732.200000
3280.333594	734.000000
3281.433745	725.200000
3282.530804	704.400000
3283.627707	740.200000
3284.724455	716.800000
3285.816644	716.200000
3286.913083	766.400000
3288.007899	735.600000
3289.102560	703.800000
3290.195600	709.400000
3291.288486	739.400000
3292.379751	701.000000
3293.472329	757.200000
3294.563287	723.000000
3295.652625	696.800000
3296.741810	706.200000
3297.832307	708.200000
3298.919721	707.800000
3300.006981	731.600000
3301.095554	722.000000
3302.183974	715.200000
3303.267848	722.800000
3304.355963	729.200000
3305.440996	748.000000
3306.524414	707.800000
3307.609144	722.800000
3308.692258	708.400000
3309.776684	722.800000
3310.858033	723.000000
3311.940693	745.000000
3313.021738	704.800000
3314.102633	726.400000
3315.181915	759.800000
3316.261046	719.400000
3317.341489	758.200000
3318.418857	739.000000
3319.497537	741.800000
3320.574605	743.200000
3321.651523	734.000000
3322.726831	710.000000
3323.801989	743.800000
3324.878458	705.600000
3325.951857	751.400000
3327.025106	753.000000
3328.099667	711.200000
3329.172619	729.400000
3330.243962	724.600000
3331.316616	714.200000
3332.386203	707.600000
3333.457101	704.800000
3334.526393	715.000000
3335.596994	738.000000
3336.665989	713.600000
3337.733379	724.000000
3338.799163	700.800000
3339.869173	679.200000
3340.936120	717.800000
3342.000005	746.200000
3343.066657	713.600000
3344.131706	690.400000
3345.195151	708.600000
3346.258450	707.200000
3347.321602	762.600000
3348.384608	709.400000
3349.447468	730.200000
3350.508725	705.400000
3351.566926	710.800000
3352.629348	721.400000
3353.688714	715.600000
3354.747934	730.000000
3355.808463	674.600000
3356.864484	703.200000
3357.923268	688.800000
3358.977545	696.600000
3360.034586	705.200000
3361.090028	719.200000
3362.146780	704.000000
3363.201933	696.200000
3364.255489	735.800000
3365.307448	695.600000
3366.362170	707.200000
3367.413842	705.200000
3368.465370	687.200000
3369.518208	700.200000
3370.567998	698.200000
3371.619097	720.600000
3372.667149	733.800000
3373.717962	705.000000
3374.765729	701.800000
3375.813354	687.800000
3376.860837	721.000000
3377.906727	695.800000
3378.953925	672.400000
3379.998080	711.000000
3381.044995	668.000000
3382.090317	672.200000
3383.132598	700.000000
3384.174738	746.200000
3385.218187	691.800000
3386.261494	687.200000
3387.303211	702.600000
3388.344788	737.400000
3389.386223	699.000000
3390.426070	728.000000
3391.464328	685.200000
3392.503894	725.600000
3393.543320	719.400000
3394.581158	721.200000
3395.617409	712.000000
3396.653520	729.800000
3397.690939	694.000000
3398.725325	711.800000
3399.761019	728.800000
3400.796573	719.000000
3401.829095	692.600000
3402.864371	720.600000
3403.896617	705.800000
3404.928723	690.400000
3405.959247	709.400000
3406.991077	713.600000
3408.022769	704.400000
3409.051433	736.600000
3410.079960	702.800000
3411.109793	704.600000
3412.139489	706.200000
3413.166159	702.800000
3414.194135	698.200000
3415.219087	702.400000
3416.246790	686.600000
3417.271468	731.000000
3418.297453	716.400000
3419.321859	742.600000
3420.346128	698.800000
3421.368818	710.000000
3422.391372	708.600000
3423.415232	708.400000
3424.436072	692.400000
3425.456776	676.000000
3426.478786	724.800000
3427.497778	701.600000
3428.516635	672.000000
3429.536798	712.400000
3430.553944	681.200000
