-116.707459	-5.333333
-114.037859	31.333333
-111.371194	4.000000
-108.705281	-5.666667
-106.042300	-5.333333
-103.377890	32.666667
-100.716410	-0.666667
-98.053501	11.333333
-95.395698	22.000000
-92.736466	24.333333
-90.077982	-1.666667
-87.422422	17.000000
-84.765434	36.000000
-82.113544	34.666667
-79.460224	26.333333
-76.809823	31.666667
-74.157993	14.666667
-71.511254	25.000000
-68.863086	14.000000
-66.215660	52.000000
-63.571148	6.666667
-60.925208	7.333333
-58.284349	1.666667
-55.642061	5.333333
-53.002682	5.666667
-50.361873	-12.666667
-47.721805	8.666667
-45.086809	-7.666667
-42.450385	-6.333333
-39.816863	-0.333333
-37.181913	-12.000000
-34.552028	38.666667
-31.918551	18.333333
-29.290136	-19.333333
-26.662455	35.000000
-24.033345	39.333333
-21.409292	12.666667
-18.781650	38.666667
-16.159061	48.000000
-13.537204	68.333333
-10.916077	141.000000
-8.295680	265.000000
-5.678172	1071.666667
-3.059235	3176.333333
-0.443183	7779.000000
2.172140	13306.333333
4.786736	9137.666667
7.398449	1010.666667
10.011591	106.000000
12.619699	52.333333
15.231389	53.000000
17.838048	27.333333
20.446135	35.666667
23.053498	35.333333
25.655836	37.333333
28.261752	28.333333
30.862646	2.333333
33.464968	20.666667
36.062273	3.333333
38.663153	16.666667
41.259018	6.000000
43.856312	28.666667
46.452886	11.666667
49.044451	8.000000
51.637444	-14.666667
54.227576	33.666667
56.819136	32.000000
59.407836	-7.666667
61.997963	16.000000
64.583091	27.333333
67.169647	4.333333
69.755489	-1.666667
72.338477	-9.000000
74.922891	-1.000000
77.500177	43.333333
80.081029	32.666667
82.659032	23.333333
85.236325	9.000000
87.815044	9.666667
90.388781	-8.333333
92.963946	21.666667
95.536267	19.333333
98.107880	-14.000000
100.676653	12.333333
103.246853	6.333333
105.814215	-6.333333
108.383002	10.000000
110.948953	31.000000
113.512069	2.666667
116.078741	-2.000000
118.636192	43.666667
121.199328	11.000000
123.757504	45.333333
126.319235	55.333333
128.876009	101.000000
131.434210	143.000000
133.987457	205.000000
136.540007	277.333333
139.096107	393.000000
141.647259	513.333333
144.197714	657.666667
146.747471	674.000000
149.294409	806.000000
151.840652	798.666667
154.388320	875.000000
156.935292	863.666667
159.477329	795.666667
162.018672	836.666667
164.559322	796.333333
167.101398	809.000000
169.640662	845.000000
172.177118	863.666667
174.712882	848.000000
177.250072	838.000000
179.786571	832.666667
182.320264	744.666667
184.851153	777.333333
187.381355	768.000000
189.912981	758.333333
192.441806	783.333333
194.967832	787.333333
197.493172	784.000000
200.019937	768.333333
202.543906	808.000000
205.067190	836.000000
207.589789	780.666667
210.109595	767.000000
212.628718	822.666667
215.147158	817.000000
217.667022	805.333333
220.179885	825.333333
222.696279	865.666667
225.211991	863.000000
227.722813	833.666667
230.235060	836.333333
232.744525	847.333333
235.253311	896.333333
237.761418	798.333333
240.270950	871.333333
242.775601	863.000000
245.279576	880.333333
247.784975	842.333333
250.285499	930.000000
252.789547	872.000000
255.286623	882.333333
257.787223	857.666667
260.285051	850.000000
262.782206	858.666667
265.278688	853.666667
267.770307	871.000000
270.265446	883.666667
272.757818	874.666667
275.249520	877.333333
277.738459	897.000000
280.228822	918.333333
282.716422	919.333333
285.201263	916.000000
287.689619	958.666667
290.171035	898.666667
292.655965	955.000000
295.136050	996.000000
297.619647	1003.666667
300.098401	976.000000
302.578579	1062.666667
305.056004	1065.666667
307.532766	988.666667
310.008865	966.666667
312.482215	954.000000
314.954903	935.333333
317.426930	962.000000
319.898296	945.333333
322.366917	1004.666667
324.834880	959.000000
327.304264	928.666667
329.768826	902.333333
332.236892	901.666667
334.700138	880.333333
337.162726	815.000000
339.624658	802.333333
342.085933	846.666667
344.544474	797.333333
347.004437	807.333333
349.461667	801.333333
351.918243	812.000000
354.374165	763.666667
356.827357	771.666667
359.281972	755.333333
361.731785	746.333333
364.185094	774.666667
366.633605	743.333333
369.081464	751.333333
371.530746	712.333333
373.975234	694.000000
376.421144	680.333333
378.866404	742.333333
381.308946	718.333333
383.750840	695.666667
386.192087	679.000000
388.630618	651.000000
391.070571	659.000000
393.507810	649.333333
395.942337	650.666667
398.380352	657.666667
400.813590	678.000000
403.248249	698.666667
405.678136	687.666667
408.111508	700.333333
410.540110	686.666667
412.968070	641.333333
415.397452	639.666667
417.822068	641.000000
420.248106	639.000000
422.673503	632.333333
425.098260	615.333333
427.518259	613.333333
429.939679	634.000000
432.358402	632.666667
434.778546	633.333333
437.195995	586.666667
439.614864	586.333333
442.031040	572.000000
444.442468	599.000000
446.857374	533.666667
449.269589	536.000000
451.681170	551.333333
454.092117	465.000000
456.500378	494.666667
458.908006	498.333333
461.315002	489.000000
463.721367	473.666667
466.125049	470.333333
468.528101	481.000000
470.930523	484.333333
473.332315	459.333333
475.731430	502.666667
478.131964	498.000000
480.531869	498.333333
482.927051	504.666667
485.325700	523.333333
487.719629	527.000000
490.112932	581.333333
492.505609	543.333333
494.897661	634.666667
497.291131	706.000000
499.679889	749.333333
502.065981	941.000000
504.453493	1210.333333
506.840382	1609.000000
509.224607	2280.000000
511.610250	3101.333333
513.993232	4449.333333
516.373553	5835.333333
518.755293	6869.333333
521.134374	6856.333333
523.514874	6172.000000
525.892716	5110.666667
528.267903	4241.000000
530.642472	3532.000000
533.018459	3055.666667
535.391794	2641.666667
537.766546	2318.000000
540.136613	2049.666667
542.506064	1885.333333
544.876933	1675.000000
547.243122	1596.333333
549.610729	1477.666667
551.975690	1334.666667
554.340038	1314.666667
556.703773	1271.000000
559.068926	1164.666667
561.429407	1180.333333
563.791306	1156.666667
566.150564	1112.333333
568.507185	1025.000000
570.867250	1071.333333
573.220624	978.666667
575.577443	975.333333
577.931627	934.333333
580.285202	907.333333
582.638170	905.000000
584.988505	903.666667
587.340258	849.000000
589.685334	830.666667
592.035874	815.666667
594.379740	763.666667
596.729068	817.333333
599.073747	766.000000
601.415802	778.666667
603.759274	777.000000
606.100123	704.000000
608.440370	708.666667
610.777996	758.333333
613.119057	762.333333
615.455480	817.333333
617.793320	861.000000
620.128543	861.666667
622.461150	823.333333
624.795173	794.000000
627.126582	791.000000
629.457393	748.000000
631.787607	709.333333
634.117222	722.000000
636.442214	716.000000
638.772648	654.666667
641.098461	706.333333
643.421666	701.000000
645.746288	660.000000
648.068304	666.333333
650.389726	648.333333
652.708546	656.000000
655.028781	603.000000
657.348423	637.000000
659.665464	634.666667
661.981913	640.333333
664.295764	659.666667
666.611031	641.000000
668.923701	612.666667
671.237786	623.000000
673.547271	637.333333
675.858172	626.000000
678.166480	647.333333
680.474200	609.000000
682.783334	612.000000
685.087876	575.333333
687.391832	542.666667
689.695202	580.333333
691.999986	582.333333
694.300184	549.333333
696.601796	557.333333
698.902823	523.666667
701.199269	539.333333
703.497130	493.666667
705.794407	521.333333
708.091101	514.333333
710.383219	488.666667
712.678748	492.333333
714.969703	506.666667
717.262073	486.000000
719.551868	440.333333
721.841082	494.333333
724.129717	501.666667
726.415779	501.000000
728.703256	541.000000
730.988161	470.666667
733.272489	500.666667
735.554248	495.000000
737.837421	485.666667
740.120017	494.000000
742.398057	499.666667
744.677512	491.666667
746.956390	493.000000
749.234694	493.000000
751.508448	508.666667
753.783615	498.000000
756.058209	478.333333
758.330244	452.666667
760.603692	461.666667
762.874582	475.333333
765.142916	454.333333
767.412663	424.333333
769.679856	522.666667
771.946478	488.000000
774.212530	489.000000
776.476031	462.333333
778.740945	455.333333
781.005289	468.000000
783.265104	482.333333
785.526331	493.666667
787.786991	465.000000
790.045105	459.666667
792.300674	472.000000
794.559634	453.666667
796.812095	455.000000
799.069922	508.333333
801.323231	485.000000
803.574000	484.666667
805.826181	509.333333
808.075823	472.333333
810.326878	469.666667
812.573421	494.000000
814.821376	489.666667
817.066797	495.000000
819.313629	485.333333
821.559900	469.333333
823.801666	440.666667
826.046816	462.666667
828.285493	462.000000
830.527552	486.666667
832.765113	500.666667
835.004086	481.333333
837.240532	437.666667
839.478389	464.333333
841.713721	438.333333
843.946530	453.666667
846.180750	450.000000
848.412447	479.333333
850.643590	458.666667
852.874178	470.666667
855.104212	459.000000
857.333692	437.000000
859.558690	468.333333
861.787063	451.000000
864.010956	448.666667
866.236261	483.000000
868.457090	459.333333
870.681291	454.666667
872.901019	452.333333
875.122157	430.333333
877.342745	443.333333
879.560824	451.666667
881.780312	477.333333
883.995334	465.000000
886.209808	441.000000
888.423735	446.666667
890.637115	449.000000
892.849947	409.666667
895.062233	407.666667
897.272016	426.000000
899.481254	430.333333
901.689947	440.333333
903.896141	435.666667
906.103744	423.333333
908.308849	421.666667
910.513411	467.000000
912.715478	469.000000
914.918954	490.333333
917.119936	499.000000
919.320376	488.333333
921.522225	537.333333
923.717683	543.333333
925.916500	522.000000
928.110878	593.666667
930.308614	641.666667
932.501914	748.000000
934.696623	767.333333
936.888846	843.000000
939.080530	959.333333
941.271677	990.333333
943.460341	985.666667
945.648469	997.333333
947.834116	1024.000000
950.023115	979.666667
952.207691	1004.333333
954.391732	987.333333
956.579123	960.000000
958.758210	998.333333
960.940648	1046.333333
963.122552	1012.333333
965.301981	1074.000000
967.478938	1027.666667
969.657303	1074.333333
971.837075	1084.000000
974.010498	1029.666667
976.187267	1066.666667
978.359629	1053.000000
980.533399	1031.000000
982.702765	985.000000
984.875475	962.333333
987.045720	895.333333
989.215436	822.666667
991.384623	776.666667
993.549413	687.000000
995.717544	705.666667
997.881281	604.333333
1000.046424	617.000000
1002.209108	595.000000
1004.371267	584.333333
1006.530969	569.000000
1008.690146	576.333333
1010.850730	521.333333
1013.008859	529.000000
1015.166465	479.000000
1017.323547	477.333333
1019.480105	480.333333
1021.632284	491.333333
1023.785870	454.666667
1025.938934	429.000000
1028.089549	469.000000
1030.241571	419.000000
1032.389219	425.666667
1034.540199	435.000000
1036.686808	402.000000
1038.832898	391.666667
1040.978470	395.333333
1043.125447	430.333333
1045.266135	446.666667
1047.410153	442.000000
1049.551730	386.333333
1051.692791	410.000000
1053.835256	419.000000
1055.971442	411.333333
1058.110953	404.666667
1060.246110	427.333333
1062.384591	427.000000
1064.518718	406.000000
1066.652332	363.666667
1068.787351	400.333333
1070.918020	411.666667
1073.050094	386.666667
1075.179739	382.000000
1077.308872	423.666667
1079.437493	429.666667
1081.565603	401.333333
1083.691287	420.000000
1085.816461	378.666667
1087.943039	364.666667
1090.065279	346.333333
1092.188924	364.000000
1094.308234	376.666667
1096.432774	361.666667
1098.551068	366.666667
1100.670767	358.000000
1102.788047	395.666667
1104.904821	351.000000
1107.021088	389.000000
1109.134939	310.000000
1111.250195	364.666667
1113.361127	380.000000
1115.475372	355.333333
1117.585296	380.666667
1119.696624	391.000000
1121.807447	367.333333
1123.913954	355.333333
1126.023771	383.333333
1128.129273	352.000000
1130.236178	362.000000
1132.336868	351.666667
1134.442770	342.333333
1136.544363	387.000000
1138.647359	354.333333
1140.749854	366.666667
1142.846142	320.333333
1144.947637	328.666667
1147.044830	331.666667
1149.141525	314.666667
1151.237721	334.000000
1153.333420	380.333333
1155.428620	332.666667
1157.521424	341.666667
1159.615631	354.666667
1161.703646	340.666667
1163.796859	380.333333
1165.883884	361.666667
1167.974208	332.333333
1170.060244	376.666667
1172.149579	384.000000
1174.232732	328.666667
1176.317287	348.333333
1178.403244	340.333333
1180.484919	330.666667
1182.567996	359.666667
1184.648687	366.333333
1186.728886	337.666667
1188.808594	340.333333
1190.887811	388.333333
1192.964646	324.000000
1195.039100	345.000000
1197.116845	357.000000
1199.190321	327.333333
1201.265197	333.000000
1203.335806	367.000000
1205.407816	328.666667
1207.477451	384.666667
1209.548486	313.666667
1211.619033	305.000000
1213.685319	328.000000
1215.753006	327.666667
1217.818321	381.333333
1219.885036	327.666667
1221.947495	340.666667
1224.013239	358.333333
1226.074729	375.000000
1228.137620	312.000000
1230.198143	330.333333
1232.258182	307.000000
1234.317739	335.000000
1236.374930	350.000000
1238.431640	355.333333
1240.485986	360.666667
1242.543614	329.000000
1244.598879	353.333333
1246.649903	323.000000
1248.702327	367.333333
1250.754271	330.333333
1252.803857	347.666667
1254.852964	343.000000
1256.901593	319.666667
1258.949743	335.000000
1260.997414	317.333333
1263.040855	348.666667
1265.087572	325.000000
1267.131935	322.000000
1269.175822	361.000000
1271.217357	317.000000
1273.256543	356.000000
1275.299002	351.000000
1277.337238	348.666667
1279.376873	362.000000
1281.416033	366.333333
1283.450974	353.333333
1285.487314	318.333333
1287.521310	337.333333
1289.556703	326.666667
1291.587884	368.000000
1293.620462	353.000000
1295.652569	328.666667
1297.682335	344.000000
1299.713498	354.000000
1301.740455	357.333333
1303.768809	292.333333
1305.792958	327.000000
1307.820373	310.000000
1309.843585	345.333333
1311.868195	329.666667
1313.890471	309.000000
1315.914144	273.000000
1317.935484	328.000000
1319.956356	325.666667
1321.976761	321.000000
1323.992973	335.000000
1326.010582	339.333333
1328.025863	318.333333
1330.044403	348.333333
1332.058754	365.333333
1334.070779	364.000000
1336.086061	322.000000
1338.097158	339.666667
1340.109652	349.000000
1342.117963	380.666667
1344.129529	323.333333
1346.135057	392.000000
1348.143840	374.666667
1350.148445	365.666667
1352.156304	335.000000
1354.163701	363.000000
1356.165067	379.000000
1358.167829	386.333333
1360.170132	402.000000
1362.171975	389.000000
1364.173358	337.000000
1366.172428	357.333333
1368.171039	333.333333
1370.169192	342.333333
1372.166886	339.666667
1374.160418	334.666667
1376.155345	380.333333
1378.149816	330.333333
1380.143830	358.000000
1382.135537	291.000000
1384.126789	360.000000
1386.115735	318.666667
1388.106076	312.666667
1390.095962	285.000000
1392.083544	337.000000
1394.070673	340.333333
1396.055500	266.666667
1398.041722	319.000000
1400.025644	276.333333
1402.009113	328.000000
1403.992129	335.333333
1405.972848	326.666667
1407.954961	301.000000
1409.934778	329.333333
1411.914143	313.333333
1413.889370	318.666667
1415.867835	320.666667
1417.844007	341.333333
1419.819730	315.000000
1421.795003	321.333333
1423.767985	281.000000
1425.740519	280.666667
1427.712605	292.000000
1429.684244	306.666667
1431.651754	315.333333
1433.624338	301.666667
1435.589116	263.333333
1437.558967	307.666667
1439.524694	298.666667
1441.491813	338.000000
1443.456649	337.000000
1445.417365	318.000000
1447.383149	314.000000
1449.342978	296.333333
1451.304201	324.666667
1453.266816	328.666667
1455.225316	325.666667
1457.183373	342.333333
1459.140989	344.333333
1461.098162	312.666667
1463.053060	327.333333
1465.009351	336.000000
1466.963367	334.000000
1468.916942	301.000000
1470.868245	293.000000
1472.820941	301.000000
1474.771364	320.333333
1476.721349	348.333333
1478.670895	320.333333
1480.618172	296.333333
1482.563181	320.666667
1484.509583	279.333333
1486.455547	314.333333
1488.401074	290.666667
1490.344335	329.666667
1492.287161	321.333333
1494.227723	322.333333
1496.169676	302.666667
1498.109367	297.000000
1500.048624	337.666667
1501.987445	298.666667
1503.924007	285.000000
1505.861960	320.666667
1507.797654	325.666667
1509.732915	301.666667
1511.665920	327.000000
1513.598492	312.000000
1515.530632	322.333333
1517.462340	357.666667
1519.391794	345.333333
1521.322639	331.000000
1523.253052	326.000000
1525.179393	328.666667
1527.107125	343.666667
1529.032606	347.000000
1530.957658	336.666667
1532.882281	364.666667
1534.806475	321.000000
1536.728421	350.666667
1538.651758	367.666667
1540.572848	377.333333
1542.491694	380.000000
1544.411930	422.333333
1546.329923	382.000000
1548.247489	372.666667
1550.162813	465.666667
1552.079527	440.333333
1553.992186	447.666667
1555.908049	499.333333
1557.821672	465.333333
1559.733057	489.000000
1561.645832	532.666667
1563.554557	521.000000
1565.464671	590.333333
1567.374362	703.666667
1569.283630	792.666667
1571.190664	945.333333
1573.095465	1035.333333
1575.001655	1212.000000
1576.905613	1448.000000
1578.809150	1591.666667
1580.712267	1581.666667
1582.613154	1591.333333
1584.515430	1508.666667
1586.415478	1357.666667
1588.316913	1210.000000
1590.214315	1015.000000
1592.111298	857.333333
1594.007863	768.000000
1595.905816	665.000000
1597.797934	620.666667
1599.693245	556.333333
1601.588139	503.000000
1603.480811	490.666667
1605.373066	478.666667
1607.263102	449.333333
1609.152722	472.666667
1611.041927	417.666667
1612.930717	436.666667
1614.817289	451.000000
1616.705249	386.333333
1618.589192	464.000000
1620.474522	484.666667
1622.359439	451.666667
1624.242142	455.666667
1626.126232	385.666667
1628.006310	364.333333
1629.887776	388.000000
1631.767031	380.000000
1633.647672	359.666667
1635.522509	337.000000
1637.402327	386.000000
1639.278141	323.000000
1641.153544	341.666667
1643.030333	342.333333
1644.901326	341.333333
1646.775500	294.666667
1648.645675	296.333333
1650.519032	307.000000
1652.390184	326.333333
1654.259136	287.666667
1656.129472	293.666667
1657.995816	286.333333
1659.863545	293.333333
1661.729075	244.000000
1663.595991	262.666667
1665.458918	268.666667
1667.323230	293.000000
1669.185346	277.000000
1671.047057	264.333333
1672.910154	282.000000
1674.771055	260.666667
1676.629764	288.000000
1678.488069	256.000000
1680.347759	248.333333
1682.201681	281.333333
1684.058777	244.000000
1685.915470	261.666667
1687.768186	228.666667
1689.624074	244.666667
1691.475988	286.000000
1693.327501	273.666667
1695.178613	251.000000
1697.029325	268.666667
1698.879635	243.000000
1700.727762	250.333333
1702.577273	217.333333
1704.421035	268.333333
1706.269746	231.000000
1708.112711	244.333333
1709.958843	246.000000
1711.801012	237.000000
1713.646347	204.666667
1715.485941	239.666667
1717.326919	250.000000
1719.169280	220.666667
1721.007685	212.666667
1722.847473	262.666667
1724.685086	249.000000
1726.522303	223.333333
1728.357347	242.333333
1730.193774	232.666667
1732.028029	225.333333
1733.861889	245.000000
1735.695355	237.333333
1737.524876	250.000000
1739.357555	255.666667
1741.186290	240.666667
1743.018182	257.666667
1744.846132	262.000000
1746.673691	238.333333
1748.500857	255.666667
1750.327632	240.666667
1752.154015	247.333333
1753.976462	225.333333
1755.802064	238.333333
1757.623731	254.666667
1759.446780	226.666667
1761.267667	264.000000
1763.088166	266.000000
1764.910045	242.666667
1766.726226	250.666667
1768.545558	240.666667
1770.360963	235.000000
1772.179518	230.333333
1773.994148	247.333333
1775.808391	223.666667
1777.622248	218.000000
1779.435718	252.333333
1781.247035	266.666667
1783.059732	248.000000
1784.872044	251.666667
1786.680438	236.000000
1788.490212	229.333333
1790.296072	199.000000
1792.105077	219.666667
1793.910169	178.000000
1795.716642	212.333333
1797.522731	228.333333
1799.324909	240.666667
1801.130232	262.666667
1802.931646	232.000000
1804.734440	270.333333
1806.533328	235.333333
1808.333597	236.333333
1810.133484	195.666667
1811.931229	248.666667
1813.728594	203.333333
1815.525579	229.666667
1817.322183	267.000000
1819.116648	232.000000
1820.912492	229.666667
1822.702681	251.666667
1824.497767	250.000000
1826.287201	279.000000
1828.079771	225.333333
1829.870206	255.666667
1831.658507	221.000000
1833.449943	243.000000
1835.235733	252.666667
1837.022903	226.333333
1838.807941	234.666667
1840.596113	258.000000
1842.380399	247.000000
1844.162555	258.666667
1845.946091	237.333333
1847.727498	216.666667
1849.510284	248.666667
1851.289189	280.333333
1853.069474	206.333333
1854.847632	266.333333
1856.627169	233.666667
1858.404581	226.333333
1860.179869	207.333333
1861.956535	259.000000
1863.731079	234.666667
1865.507001	269.000000
1867.277302	240.333333
1869.050731	230.666667
1870.822040	252.666667
1872.592978	210.000000
1874.365294	243.666667
1876.131996	221.666667
1877.901824	212.333333
1879.667788	232.333333
1881.436875	260.000000
1883.202101	265.000000
1884.966959	219.333333
1886.733194	249.333333
1888.495570	216.000000
1890.257579	238.666667
1892.019220	211.000000
1893.780495	222.666667
1895.541402	202.666667
1897.301943	220.333333
1899.060374	218.333333
1900.818439	217.666667
1902.574397	221.000000
1904.331731	208.000000
1906.088700	217.333333
1907.843562	189.666667
1909.596320	226.333333
1911.348713	209.333333
1913.102483	235.666667
1914.854149	220.000000
1916.603713	201.000000
1918.354652	196.333333
1920.105229	212.333333
1921.851966	192.333333
1923.600080	230.333333
1925.346094	223.666667
1927.093483	229.666667
1928.838775	191.666667
1930.581969	241.000000
1932.326538	239.000000
1934.069012	192.666667
1935.811125	203.000000
1937.552878	201.000000
1939.294271	216.666667
1941.033571	262.666667
1942.772512	220.666667
1944.511094	227.666667
1946.247585	217.000000
1947.983718	222.333333
1949.721225	227.666667
1951.454910	214.666667
1953.189970	217.333333
1954.922941	229.000000
1956.655556	221.666667
1958.387815	198.333333
1960.119717	192.333333
1961.849533	210.000000
1963.577264	233.666667
1965.306370	242.000000
1967.035121	194.333333
1968.761788	224.000000
1970.488101	231.666667
1972.215787	185.666667
1973.937937	237.666667
1975.663188	237.333333
1977.384632	231.666667
1979.109177	218.333333
1980.831641	266.666667
1982.550303	235.000000
1984.272063	234.000000
1985.990021	263.666667
1987.709352	215.666667
1989.424884	225.000000
1991.145236	225.333333
1992.861790	196.000000
1994.574547	222.000000
1996.290400	211.666667
1998.004181	235.666667
1999.717612	198.333333
2001.428972	234.333333
2003.141704	223.666667
2004.850646	213.333333
2006.562680	261.000000
2008.269206	216.666667
2009.978823	244.000000
2011.686374	213.333333
2013.393576	214.333333
2015.098713	193.000000
2016.803504	232.666667
2018.509666	192.333333
2020.212046	227.333333
2021.915797	258.000000
2023.617486	221.000000
2025.318830	209.000000
2027.019828	200.333333
2028.718765	177.333333
2030.419074	206.333333
2032.115608	220.000000
2033.813513	199.666667
2035.509359	195.333333
2037.208291	203.000000
2038.901737	205.000000
2040.596554	210.000000
2042.291029	214.666667
2043.981735	184.666667
2045.675525	208.000000
2047.365548	167.333333
2049.056942	223.333333
2050.746283	194.333333
2052.436994	218.000000
2054.123942	214.000000
2055.810551	209.666667
2057.498529	199.666667
2059.182748	156.333333
2060.868338	214.666667
2062.553588	186.666667
2064.236789	195.666667
2065.921361	188.000000
2067.600470	206.666667
2069.284364	212.666667
2070.962797	193.000000
2072.644308	223.333333
2074.322067	189.000000
2075.999490	217.666667
2077.678282	228.000000
2079.355032	197.333333
2081.029740	219.000000
2082.705817	226.333333
2084.379853	190.000000
2086.053555	223.000000
2087.726921	201.000000
2089.398248	205.666667
2091.069241	242.666667
2092.739900	212.333333
2094.410225	189.000000
2096.080216	224.000000
2097.748171	191.000000
2099.415793	192.666667
2101.081380	181.333333
2102.748336	201.000000
2104.413259	195.333333
2106.077850	213.333333
2107.740409	188.333333
2109.404336	204.333333
2111.066232	187.666667
2112.727798	210.333333
2114.389032	194.000000
2116.048238	196.000000
2117.707113	131.333333
2119.365659	206.000000
2121.023874	200.000000
2122.678367	211.000000
2124.335924	193.333333
2125.993152	220.666667
2127.646658	203.000000
2129.301532	205.000000
2130.952687	175.333333
2132.606905	205.666667
2134.257406	190.666667
2135.909273	180.666667
2137.555732	205.333333
2139.206946	216.333333
2140.854446	202.666667
2142.503313	185.000000
2144.150161	178.666667
2145.796684	176.000000
2147.442881	219.666667
2149.085370	223.666667
2150.730917	215.000000
2152.372757	200.000000
2154.017654	189.666667
2155.658845	192.333333
2157.299714	198.000000
2158.940258	214.666667
2160.578790	215.333333
2162.218688	221.000000
2163.854886	192.666667
2165.492450	178.666667
2167.129692	218.666667
2168.764924	212.333333
2170.399835	235.000000
2172.034423	243.666667
2173.668691	195.000000
2175.299265	206.666667
2176.932891	214.666667
2178.562825	216.000000
2180.194124	197.000000
2181.823418	203.000000
2183.452393	250.000000
2185.081048	187.333333
2186.709384	180.333333
2188.335718	248.000000
2189.961733	204.666667
2191.585746	205.000000
2193.211125	202.666667
2194.834503	190.000000
2196.459246	217.000000
2198.080308	215.333333
2199.701053	218.666667
2201.323163	234.333333
2202.943275	181.000000
2204.561390	193.333333
2206.179190	194.333333
2207.796675	166.666667
2209.413844	200.666667
2211.030698	209.333333
2212.647236	214.333333
2214.261782	175.333333
2215.874335	207.666667
2217.488252	175.333333
2219.100178	168.000000
2220.713467	223.333333
2222.324766	245.333333
2223.934075	221.000000
2225.544748	204.000000
2227.153432	217.666667
2228.761803	170.000000
2230.368188	172.333333
2231.975936	184.666667
2233.581697	171.000000
2235.187147	217.333333
2236.790612	227.666667
2238.395440	189.000000
2239.998284	194.333333
2241.599145	206.000000
2243.201369	209.333333
2244.801611	190.000000
2246.403215	168.000000
2248.001166	198.333333
2249.600480	213.000000
2251.197814	191.000000
2252.794840	179.333333
2254.393228	199.333333
2255.987967	204.000000
2257.580729	214.666667
2259.174854	160.000000
2260.770340	202.000000
2262.362181	240.000000
2263.953716	210.333333
2265.546613	196.666667
2267.134200	179.666667
2268.726483	220.666667
2270.313460	229.666667
2271.903464	226.666667
2273.488164	171.333333
2275.077558	178.000000
2276.661650	165.000000
2278.247102	202.000000
2279.830586	228.333333
2281.417095	208.333333
2282.999971	179.666667
2284.582544	193.333333
2286.164813	189.666667
2287.743452	191.333333
2289.325116	173.000000
2290.903151	202.000000
2292.484209	175.333333
2294.061640	184.666667
2295.637108	194.000000
2297.215598	204.333333
2298.790464	187.000000
2300.365029	201.666667
2301.939294	209.666667
2303.513258	186.666667
2305.086921	192.333333
2306.660285	191.333333
2308.230030	176.666667
2309.799476	176.000000
2311.371940	163.000000
2312.939130	190.333333
2314.509338	195.000000
2316.075931	191.666667
2317.643884	207.666667
2319.209881	161.333333
2320.775581	182.000000
2322.340983	190.666667
2323.904432	217.000000
2325.469240	215.333333
2327.030440	210.666667
2328.594654	183.666667
2330.153606	225.333333
2331.715573	204.666667
2333.275588	171.333333
2334.835309	204.000000
2336.393080	204.000000
2337.950556	162.000000
2339.507738	189.333333
2341.062972	212.000000
2342.617913	206.000000
2344.172559	218.000000
2345.726912	152.333333
2347.280972	192.000000
2348.834737	206.333333
2350.386558	163.000000
2351.936437	152.666667
2353.489323	181.333333
2355.036966	194.333333
2356.587618	196.666667
2358.134678	181.666667
2359.683096	182.333333
2361.231223	194.000000
2362.775761	171.666667
2364.321657	188.000000
2365.865615	153.000000
2367.410930	175.000000
2368.952660	153.000000
2370.495747	182.666667
2372.036898	183.000000
2373.577760	189.333333
2375.118333	155.000000
2376.658617	178.000000
2378.198612	175.000000
2379.735029	177.000000
2381.274447	161.666667
2382.810287	182.333333
2384.347485	196.333333
2385.881107	180.666667
2387.417729	166.666667
2388.952421	221.333333
2390.485183	151.666667
2392.017658	203.000000
2393.548205	190.333333
2395.081750	202.666667
2396.610084	187.000000
2398.139774	181.666667
2399.669179	156.000000
2401.198299	213.333333
2402.727134	177.333333
2404.250763	227.666667
2405.779028	201.000000
2407.302091	193.666667
2408.829787	220.000000
2410.350644	164.333333
2411.876134	198.666667
2413.398063	204.000000
2414.921348	186.000000
2416.442711	186.666667
2417.962155	184.333333
2419.482954	165.666667
2421.001835	211.333333
2422.520433	224.333333
2424.037114	206.000000
2425.555149	169.666667
2427.072903	198.000000
2428.587106	215.666667
2430.101028	208.333333
2431.614670	200.666667
2433.129667	223.666667
2434.641115	223.000000
2436.153918	209.333333
2437.664807	226.333333
2439.175418	223.333333
2440.684117	248.333333
2442.195802	195.333333
2443.703944	218.000000
2445.211808	238.666667
2446.719394	242.000000
2448.223439	258.666667
2449.730469	249.333333
2451.235591	248.666667
2452.740436	242.333333
2454.243374	261.000000
2455.746036	256.000000
2457.248421	226.000000
2458.748901	221.000000
2460.250734	244.000000
2461.750662	220.333333
2463.250315	204.333333
2464.749693	234.000000
2466.247168	225.666667
2467.742741	241.333333
2469.241294	202.333333
2470.736319	222.666667
2472.232696	191.333333
2473.725547	231.666667
2475.219751	198.000000
2476.713681	235.333333
2478.204087	218.000000
2479.697471	232.666667
2481.188957	189.000000
2482.678546	202.000000
2484.167863	226.333333
2485.655284	251.000000
2487.145681	224.000000
2488.632560	199.333333
2490.120790	203.333333
2491.605503	210.666667
2493.089947	201.666667
2494.575741	188.333333
2496.059644	190.333333
2497.544897	167.333333
2499.025017	217.000000
2500.508110	202.333333
2501.989312	224.666667
2503.470245	216.333333
2504.949289	178.333333
2506.428064	167.333333
2507.906571	159.000000
2509.384810	187.333333
2510.862780	166.000000
2512.337245	216.000000
2513.814680	192.000000
2515.288611	197.333333
2516.763892	180.000000
2518.238906	152.666667
2519.710419	159.000000
2521.183283	199.000000
2522.654264	188.000000
2524.126595	185.333333
2525.593812	199.333333
2527.063996	175.000000
2528.532299	172.666667
2530.000337	217.666667
2531.468110	185.666667
2532.935618	166.000000
2534.402861	133.666667
2535.866612	226.000000
2537.331713	216.333333
2538.794937	186.666667
2540.259510	213.666667
2541.720595	193.000000
2543.183029	198.333333
2544.645200	193.666667
2546.103885	209.000000
2547.567141	176.666667
2549.025302	186.333333
2550.484811	186.666667
2551.939226	226.000000
2553.398212	177.666667
2554.855326	193.000000
2556.310569	215.666667
2557.765550	160.666667
2559.218663	209.000000
2560.673124	191.666667
2562.125715	205.000000
2563.578047	213.666667
2565.028512	208.666667
2566.481932	199.666667
2567.930270	171.666667
2569.381563	175.333333
2570.830991	193.000000
2572.276946	197.333333
2573.725856	192.666667
2575.171296	166.000000
2576.618083	232.666667
2578.063008	225.000000
2579.507674	203.000000
2580.953688	226.333333
2582.396236	241.000000
2583.840131	204.333333
2585.280561	213.333333
2586.722338	190.000000
2588.162256	225.666667
2589.603521	170.666667
2591.041324	184.666667
2592.482077	194.333333
2593.917768	210.333333
2595.356408	193.666667
2596.793190	207.000000
2598.228117	221.000000
2599.665991	226.000000
2601.098808	173.666667
2602.532972	223.333333
2603.965282	208.000000
2605.398938	209.333333
2606.830741	208.666667
2608.262290	212.666667
2609.693587	197.333333
2611.123031	206.333333
2612.552223	207.333333
2613.979565	238.000000
2615.408252	253.666667
2616.836688	201.666667
2618.261676	236.666667
2619.688011	241.333333
2621.112497	228.333333
2622.538329	257.333333
2623.960717	232.333333
2625.384451	272.333333
2626.806338	268.666667
2628.227976	257.333333
2629.647768	254.333333
2631.068906	279.666667
2632.489794	282.333333
2633.907244	269.666667
2635.327633	266.333333
2636.744585	339.000000
2638.161288	345.666667
2639.577743	343.333333
2640.993950	331.000000
2642.409909	322.333333
2643.824027	341.000000
2645.237897	378.666667
2646.649929	429.000000
2648.063304	379.666667
2649.473250	463.666667
2650.886132	455.000000
2652.295585	440.333333
2653.704792	440.666667
2655.112163	511.333333
2656.522468	559.333333
2657.930938	567.666667
2659.337572	599.000000
2660.743961	616.333333
2662.148516	659.000000
2663.554415	742.000000
2664.958481	788.666667
2666.362302	811.000000
2667.765879	850.000000
2669.167625	927.666667
2670.570714	987.666667
2671.970385	1061.666667
2673.371400	1101.333333
2674.768999	1176.666667
2676.169527	1193.000000
2677.566641	1247.666667
2678.965098	1264.000000
2680.361728	1354.000000
2681.758115	1322.666667
2683.154260	1314.333333
2684.548579	1337.000000
2685.944241	1326.000000
2687.336494	1278.333333
2688.730089	1307.333333
2690.121860	1197.666667
2691.514974	1154.000000
2692.906264	1097.333333
2694.295731	1053.333333
2695.684958	1025.000000
2697.073946	897.666667
2698.464275	871.333333
2699.849621	881.333333
2701.237890	786.000000
2702.624339	746.000000
2704.010549	709.000000
2705.396520	617.333333
2706.779093	575.333333
2708.163008	548.666667
2709.546685	593.333333
2710.930123	500.666667
2712.310167	523.666667
2713.691551	482.666667
2715.071121	453.000000
2716.452031	369.666667
2717.831127	410.666667
2719.208409	401.333333
2720.587032	359.666667
2721.963842	324.666667
2723.340415	335.333333
2724.716753	340.000000
2726.091280	347.000000
2727.467147	339.333333
2728.839627	286.000000
2730.215023	266.000000
2731.585459	289.000000
2732.957236	283.000000
2734.328778	245.000000
2735.698512	237.666667
2737.069587	279.333333
2738.438853	237.333333
2739.807886	224.666667
2741.175113	231.000000
2742.542106	247.666667
2743.908867	256.333333
2745.275396	204.333333
2746.640119	213.666667
2748.004610	236.666667
2749.368870	212.000000
2750.732897	222.000000
2752.096693	193.666667
2753.457115	195.333333
2754.820447	202.666667
2756.178837	218.333333
2757.540137	185.000000
2758.898067	175.333333
2760.258905	144.000000
2761.617944	215.000000
2762.973614	153.333333
2764.332192	195.666667
2765.687403	162.333333
2767.042385	172.333333
2768.395571	189.333333
2769.751662	198.333333
2771.104390	168.000000
2772.456890	161.666667
2773.809161	177.333333
2775.162770	206.666667
2776.513019	161.666667
2777.861473	177.000000
2779.212833	171.333333
2780.560833	182.333333
2781.910171	183.333333
2783.257717	192.666667
2784.605037	173.666667
2785.952130	189.333333
2787.297432	210.666667
2788.642507	162.666667
2789.987357	189.333333
2791.331981	172.666667
2792.673253	163.000000
2794.015863	190.333333
2795.358247	174.333333
2796.700406	207.000000
2798.039216	157.333333
2799.380926	180.666667
2800.719288	170.000000
2802.058986	161.000000
2803.396900	158.000000
2804.733029	182.000000
2806.068934	187.666667
2807.406177	211.000000
2808.741636	180.333333
2810.076872	164.000000
2811.410325	201.333333
2812.745115	174.666667
2814.076565	189.000000
2815.410910	180.000000
2816.740357	155.000000
2818.071141	181.000000
2819.401703	191.000000
2820.730486	190.666667
2822.060605	165.333333
2823.388946	139.000000
2824.717066	176.000000
2826.043408	153.333333
2827.371087	179.333333
2828.695432	164.333333
2830.021114	162.000000
2831.345020	145.000000
2832.668707	168.333333
2833.993729	154.666667
2835.315421	159.666667
2836.636895	189.000000
2837.958150	159.333333
2839.279186	127.666667
2840.598449	146.000000
2841.919048	157.000000
2843.237876	173.333333
2844.556485	150.000000
2845.873323	143.333333
2847.189944	163.333333
2848.506348	121.333333
2849.820982	186.333333
2851.136952	138.666667
2852.449601	165.333333
2853.763585	132.333333
2855.077353	164.000000
2856.390904	151.333333
2857.702689	157.666667
2859.012707	145.000000
2860.324060	171.666667
2861.632098	149.000000
2862.941470	182.000000
2864.250628	175.000000
2865.559570	172.666667
2866.866748	158.333333
2868.172164	144.000000
2869.478913	128.666667
2870.783901	131.000000
2872.088675	181.333333
2873.391687	165.333333
2874.697580	164.000000
2875.998619	137.333333
2877.300992	133.666667
2878.601605	148.333333
2879.903552	130.333333
2881.205285	110.666667
2882.503715	153.666667
2883.803478	148.666667
2885.101484	149.000000
2886.399278	164.000000
2887.695316	146.000000
2888.992687	122.333333
2890.288302	145.000000
2891.583706	145.666667
2892.878899	150.333333
2894.170795	99.000000
2895.465567	156.000000
2896.757042	133.666667
2898.049850	135.666667
2899.342448	150.000000
2900.631752	132.333333
2901.922388	150.666667
2903.211273	130.666667
2904.501490	154.666667
2905.788416	130.000000
2907.076674	127.666667
2908.363183	148.000000
2909.649483	152.333333
2910.935576	130.333333
2912.219920	185.666667
2913.507135	134.666667
2914.789524	147.000000
2916.073245	138.333333
2917.355220	131.333333
2918.636987	132.666667
2919.917010	127.666667
2921.199902	169.666667
2922.481049	172.666667
2923.758914	144.666667
2925.039648	128.666667
2926.317101	143.000000
2927.594348	140.000000
2928.869853	140.333333
2930.148226	129.666667
2931.421785	118.333333
2932.698211	175.000000
2933.972896	149.666667
2935.245840	169.666667
2936.520116	129.000000
2937.792652	167.000000
2939.064983	111.666667
2940.334042	137.666667
2941.605966	150.666667
2942.876152	131.333333
2944.146134	89.000000
2945.415913	152.000000
2946.683956	174.666667
2947.950262	124.000000
2949.216367	124.666667
2950.483801	143.333333
2951.749501	138.000000
2953.014998	162.333333
2954.280293	136.000000
2955.542323	114.000000
2956.805683	118.000000
2958.068842	131.333333
2959.330269	112.666667
2960.593025	116.000000
2961.854049	151.000000
2963.113343	128.000000
2964.372437	131.000000
2965.631330	152.666667
2966.890023	94.333333
2968.148516	149.333333
2969.405280	134.000000
2970.661844	128.333333
2971.916681	125.666667
2973.172846	91.333333
2974.425757	136.333333
2975.679997	114.333333
2976.934037	149.666667
2978.186353	120.666667
2979.438469	137.000000
2980.688861	131.000000
2981.942108	136.333333
2983.190578	113.333333
2984.441903	128.666667
2985.689978	126.666667
2986.937857	122.333333
2988.185538	138.000000
2989.433022	141.333333
2990.678785	144.000000
2991.924352	118.666667
2993.171246	151.000000
2994.414896	142.000000
2995.659874	136.333333
2996.901608	109.666667
2998.146194	106.666667
2999.389061	143.333333
3000.628687	109.333333
3001.871163	143.666667
3003.110399	171.333333
3004.350963	110.666667
3005.589810	109.666667
3006.828463	81.666667
3008.065400	140.000000
3009.303665	105.333333
3010.540214	145.000000
3011.776570	132.000000
3013.012732	148.333333
3014.247180	156.000000
3015.481436	121.333333
3016.715498	125.666667
3017.947848	140.333333
3019.178486	129.000000
3020.411970	119.666667
3021.643742	111.000000
3022.873804	139.666667
3024.103673	141.000000
3025.331833	120.666667
3026.561320	106.000000
3027.789097	173.000000
3029.016683	116.666667
3030.245596	126.000000
3031.469766	119.666667
3032.696779	132.666667
3033.920568	86.666667
3035.145684	96.666667
3036.369093	126.000000
3037.592312	110.666667
3038.813826	131.666667
3040.038181	125.000000
3041.257801	136.666667
3042.478747	110.666667
3043.699504	144.333333
3044.918557	136.333333
3046.138935	92.000000
3047.356097	138.666667
3048.574585	123.000000
3049.791370	132.000000
3051.007968	115.666667
3052.224377	134.333333
3053.437574	99.333333
3054.653608	78.000000
3055.866430	125.666667
3057.082089	112.666667
3058.293025	115.666667
3059.505286	144.000000
3060.717361	117.666667
3061.929248	141.666667
3063.139439	107.000000
3064.349443	133.333333
3065.559261	114.000000
3066.767383	85.666667
3067.975320	119.000000
3069.181561	149.000000
3070.389127	122.333333
3071.594998	130.333333
3072.800685	138.333333
3074.006186	90.333333
3075.209994	127.000000
3076.415126	70.000000
3077.618565	110.000000
3078.820313	129.333333
3080.021876	114.333333
3081.223256	125.000000
3082.424452	137.000000
3083.623958	104.000000
3084.823281	139.333333
3086.023927	94.333333
3087.222883	132.666667
3088.418645	104.666667
3089.617236	122.666667
3090.812633	99.666667
3092.009353	124.666667
3093.202881	94.666667
3094.399237	110.000000
3095.593907	125.000000
3096.785385	127.666667
3097.981196	104.000000
3099.172312	101.000000
3100.364752	112.000000
3101.554004	109.666667
3102.746081	115.666667
3103.936475	106.000000
3105.123683	129.666667
3106.312213	136.666667
3107.502066	107.000000
3108.688735	91.333333
3109.875223	86.333333
3111.061533	101.333333
3112.249164	92.666667
3113.433613	117.000000
3114.616383	94.666667
3115.801975	100.000000
3116.985888	119.000000
3118.168122	106.333333
3119.350177	142.666667
3120.532054	142.666667
3121.713753	119.666667
3122.893775	118.000000
3124.072120	98.666667
3125.253285	103.000000
3126.431275	76.333333
3127.609089	94.666667
3128.786725	112.000000
3129.962686	168.333333
3131.138470	112.666667
3132.315576	95.333333
3133.491007	69.000000
3134.664765	103.333333
3135.836850	95.000000
3137.010257	138.666667
3138.183487	148.000000
3139.355046	68.333333
3140.527925	118.000000
3141.697637	105.666667
3142.868670	90.666667
3144.038033	94.666667
3145.205725	80.666667
3146.376233	91.333333
3147.542083	111.333333
3148.712241	115.666667
3149.877743	91.333333
3151.043070	113.000000
3152.208224	88.333333
3153.373205	110.333333
3154.539505	125.000000
3155.701153	106.333333
3156.864120	114.000000
3158.026915	113.666667
3159.189537	112.000000
3160.350494	115.000000
3161.511278	121.000000
3162.671890	126.000000
3163.830838	109.333333
3164.989615	95.666667
3166.148220	113.333333
3167.306652	128.000000
3168.464914	85.666667
3169.621513	123.666667
3170.776451	127.000000
3171.932708	110.333333
3173.087304	92.000000
3174.241730	115.333333
3175.394496	105.333333
3176.547091	140.666667
3177.699517	114.000000
3178.851773	129.333333
3180.003858	98.666667
3181.152798	83.666667
3182.304544	87.000000
3183.454632	94.333333
3184.603064	114.333333
3185.751326	91.333333
3186.899420	93.333333
3188.047345	91.666667
3189.193614	91.666667
3190.339715	101.666667
3191.484162	98.666667
3192.628441	106.333333
3193.772552	93.333333
3194.917980	121.333333
3196.060270	119.000000
3197.202393	77.666667
3198.344348	117.000000
3199.486136	102.000000
3200.627757	83.666667
3201.766243	105.666667
3202.906046	133.333333
3204.047167	98.333333
3205.185153	116.000000
3206.321490	94.666667
3207.457661	89.000000
3208.595149	109.333333
3209.730989	130.000000
3210.868146	74.666667
3212.000690	101.666667
3213.137516	89.000000
3214.269730	82.333333
3215.403261	109.333333
3216.536628	101.666667
3217.666867	131.000000
3218.799904	109.000000
3219.929815	97.666667
3221.061042	115.333333
3222.189145	124.666667
3223.320044	103.000000
3224.449299	86.000000
3225.576911	130.666667
3226.701400	109.000000
3227.830165	130.666667
3228.955808	105.000000
3230.081289	121.000000
3231.205128	116.333333
3232.331761	132.000000
3233.453797	126.333333
3234.577149	150.000000
3235.700339	125.333333
3236.823366	109.666667
3237.944755	147.333333
3239.065981	136.333333
3240.185570	118.000000
3241.304997	126.000000
3242.422786	123.000000
3243.543367	148.333333
3244.660835	156.333333
3245.778142	151.000000
3246.895289	134.000000
3248.010800	104.000000
3249.127625	103.000000
3250.241341	117.333333
3251.357846	113.000000
3252.472717	164.666667
3253.584479	94.000000
3254.696081	83.333333
3255.808999	114.666667
3256.921757	121.000000
3258.031409	112.333333
3259.142376	93.000000
3260.253184	127.000000
3261.362360	117.333333
3262.469906	105.666667
3263.578765	119.000000
3264.687467	112.666667
3265.793066	72.666667
3266.899979	116.333333
3268.005263	95.666667
3269.111861	102.000000
3270.215359	85.333333
3271.320172	110.000000
3272.424827	101.666667
3273.526383	94.333333
3274.627783	76.000000
3275.730497	116.666667
3276.833055	87.000000
3277.932516	109.666667
3279.034761	113.666667
3280.133910	65.000000
3281.231435	101.666667
3282.328804	89.333333
3283.428955	89.000000
3284.526014	69.666667
3285.622917	79.666667
3286.719665	87.666667
3287.811855	99.333333
3288.908293	73.000000
3290.003109	95.666667
3291.097771	69.666667
3292.190811	101.666667
3293.283696	64.333333
3294.374962	118.333333
3295.467539	104.666667
3296.558497	69.000000
3297.647835	59.333333
3298.737020	91.333333
3299.827518	88.666667
3300.914931	92.666667
3302.002191	80.666667
3303.090764	75.000000
3304.179185	65.000000
3305.263058	108.000000
3306.351173	105.333333
3307.436206	73.333333
3308.519624	95.666667
3309.604354	114.333333
3310.687468	107.000000
3311.771895	95.000000
3312.853243	53.666667
3313.935903	57.333333
3315.016949	94.000000
3316.097844	94.666667
3317.177125	95.666667
3318.256256	137.333333
3319.336699	82.666667
3320.414067	89.333333
3321.492747	92.666667
3322.569815	96.000000
3323.646734	92.666667
3324.722041	94.000000
3325.797199	95.000000
3326.873668	85.666667
3327.947067	102.666667
3329.020317	98.666667
3330.094877	64.666667
3331.167829	121.666667
3332.239172	82.000000
3333.311826	85.666667
3334.381414	85.333333
3335.452312	78.000000
3336.521603	69.000000
3337.592205	85.666667
3338.661200	90.666667
3339.728589	79.666667
3340.794373	46.000000
3341.864383	106.000000
3342.931330	93.000000
3343.995215	85.666667
3345.061868	83.000000
3346.126916	95.333333
3347.190361	80.333333
3348.253660	96.666667
3349.316812	97.333333
3350.379818	88.333333
3351.442678	60.333333
3352.503936	93.666667
3353.562137	78.000000
3354.624558	85.666667
3355.683924	74.333333
3356.743144	79.000000
3357.803673	50.666667
3358.859694	92.000000
3359.918478	75.000000
3360.972755	80.333333
3362.029796	97.666667
3363.085238	85.333333
3364.141990	74.000000
3365.197143	59.333333
3366.250699	69.000000
3367.302659	77.666667
3368.357380	103.333333
3369.409052	97.666667
3370.460581	93.666667
3371.513418	88.333333
3372.563208	55.000000
3373.614307	116.000000
3374.662360	116.000000
3375.713172	74.333333
3376.760940	74.666667
3377.808565	96.666667
3378.856047	92.333333
3379.901937	95.000000
3380.949135	82.000000
3381.993291	70.333333
3383.040205	85.000000
3384.085527	97.666667
3385.127808	92.000000
3386.169949	75.000000
3387.213397	76.666667
3388.256704	96.333333
3389.298422	78.666667
3390.339998	67.000000
3391.381433	81.666667
3392.421280	86.000000
3393.459538	51.666667
3394.499104	105.666667
3395.538530	93.000000
3396.576368	101.666667
3397.612619	80.000000
3398.648731	101.333333
3399.686150	53.666667
3400.720536	80.000000
3401.756229	95.666667
3402.791783	98.333333
3403.824306	71.666667
3404.859582	132.000000
3405.891827	65.666667
3406.923934	70.333333
3407.954457	86.666667
3408.986287	88.000000
3410.017979	102.000000
3411.046643	120.333333
3412.075170	54.666667
3413.105003	117.000000
3414.134699	90.333333
3415.161369	75.333333
3416.189346	89.666667
3417.214298	76.666667
3418.242000	84.666667
3419.266679	80.000000
3420.292664	51.333333
3421.317069	33.000000
3422.341338	53.666667
3423.364028	71.333333
3424.386582	94.666667
3425.410442	118.666667
3426.431282	48.000000
3427.451986	83.000000
3428.473997	99.666667
3429.492989	62.666667
3430.511845	93.666667
3431.532008	87.000000
3432.549154	66.666667
