-116.707459	32.000000
-114.037859	-6.333333
-111.371194	-0.333333
-108.705281	-1.000000
-106.042300	-10.333333
-103.377890	-12.000000
-100.716410	3.333333
-98.053501	-13.000000
-95.395698	-3.000000
-92.736466	-8.666667
-90.077982	39.000000
-87.422422	21.000000
-84.765434	9.666667
-82.113544	5.333333
-79.460224	-22.000000
-76.809823	7.000000
-74.157993	21.000000
-71.511254	21.333333
-68.863086	-3.666667
-66.215660	1.333333
-63.571148	7.000000
-60.925208	18.000000
-58.284349	-5.666667
-55.642061	17.666667
-53.002682	27.666667
-50.361873	13.333333
-47.721805	27.333333
-45.086809	2.666667
-42.450385	-1.666667
-39.816863	30.333333
-37.181913	16.333333
-34.552028	17.000000
-31.918551	24.000000
-29.290136	19.666667
-26.662455	53.000000
-24.033345	20.666667
-21.409292	8.333333
-18.781650	37.666667
-16.159061	20.333333
-13.537204	53.666667
-10.916077	96.000000
-8.295680	215.333333
-5.678172	808.333333
-3.059235	2756.000000
-0.443183	7971.000000
2.172140	11364.333333
4.786736	6950.333333
7.398449	737.333333
10.011591	88.333333
12.619699	58.666667
15.231389	29.666667
17.838048	14.000000
20.446135	41.000000
23.053498	9.666667
25.655836	21.666667
28.261752	22.333333
30.862646	66.666667
33.464968	11.000000
36.062273	20.000000
38.663153	15.000000
41.259018	9.000000
43.856312	22.333333
46.452886	7.666667
49.044451	10.000000
51.637444	4.000000
54.227576	-3.666667
56.819136	-15.666667
59.407836	18.333333
61.997963	14.333333
64.583091	15.333333
67.169647	8.000000
69.755489	13.333333
72.338477	5.000000
74.922891	32.000000
77.500177	-7.000000
80.081029	1.666667
82.659032	12.333333
85.236325	9.666667
87.815044	-7.666667
90.388781	-3.666667
92.963946	24.333333
95.536267	8.000000
98.107880	8.666667
100.676653	18.666667
103.246853	-4.000000
105.814215	17.333333
108.383002	-6.333333
110.948953	7.666667
113.512069	7.000000
116.078741	68.666667
118.636192	43.333333
121.199328	34.666667
123.757504	39.000000
126.319235	57.333333
128.876009	89.000000
131.434210	140.333333
133.987457	174.333333
136.540007	307.000000
139.096107	355.000000
141.647259	501.666667
144.197714	625.333333
146.747471	680.333333
149.294409	720.666667
151.840652	858.666667
154.388320	781.000000
156.935292	832.666667
159.477329	808.666667
162.018672	815.000000
164.559322	777.000000
167.101398	812.000000
169.640662	783.666667
172.177118	785.333333
174.712882	829.000000
177.250072	841.333333
179.786571	802.333333
182.320264	753.000000
184.851153	753.666667
187.381355	783.666667
189.912981	782.333333
192.441806	806.333333
194.967832	814.666667
197.493172	785.000000
200.019937	754.333333
202.543906	777.000000
205.067190	797.666667
207.589789	745.666667
210.109595	728.000000
212.628718	740.333333
215.147158	768.666667
217.667022	768.333333
220.179885	844.333333
222.696279	827.000000
225.211991	790.000000
227.722813	790.000000
230.235060	831.666667
232.744525	855.333333
235.253311	792.333333
237.761418	876.333333
240.270950	859.000000
242.775601	822.333333
245.279576	836.666667
247.784975	833.000000
250.285499	828.333333
252.789547	855.666667
255.286623	826.666667
257.787223	848.666667
260.285051	830.000000
262.782206	852.333333
265.278688	823.666667
267.770307	832.333333
270.265446	807.666667
272.757818	819.333333
275.249520	836.666667
277.738459	898.666667
280.228822	873.000000
282.716422	937.333333
285.201263	893.333333
287.689619	893.666667
290.171035	855.666667
292.655965	881.000000
295.136050	924.333333
297.619647	974.333333
300.098401	999.000000
302.578579	967.666667
305.056004	1012.000000
307.532766	960.000000
310.008865	969.000000
312.482215	938.000000
314.954903	923.000000
317.426930	869.333333
319.898296	949.666667
322.366917	900.000000
324.834880	933.333333
327.304264	892.666667
329.768826	851.000000
332.236892	838.666667
334.700138	797.666667
337.162726	788.333333
339.624658	770.000000
342.085933	763.666667
344.544474	779.666667
347.004437	784.000000
349.461667	738.666667
351.918243	737.000000
354.374165	760.000000
356.827357	709.666667
359.281972	760.333333
361.731785	750.000000
364.185094	712.000000
366.633605	712.333333
369.081464	675.000000
371.530746	688.666667
373.975234	681.000000
376.421144	652.000000
378.866404	649.333333
381.308946	636.666667
383.750840	651.666667
386.192087	691.000000
388.630618	635.666667
391.070571	639.666667
393.507810	645.333333
395.942337	633.666667
398.380352	620.666667
400.813590	623.666667
403.248249	611.666667
405.678136	595.666667
408.111508	592.666667
410.540110	620.666667
412.968070	629.333333
415.397452	621.000000
417.822068	612.333333
420.248106	609.666667
422.673503	605.000000
425.098260	633.666667
427.518259	575.333333
429.939679	602.000000
432.358402	570.666667
434.778546	588.000000
437.195995	536.333333
439.614864	556.000000
442.031040	523.666667
444.442468	532.333333
446.857374	531.000000
449.269589	532.333333
451.681170	441.000000
454.092117	478.000000
456.500378	498.000000
458.908006	480.000000
461.315002	463.666667
463.721367	442.666667
466.125049	482.333333
468.528101	466.666667
470.930523	455.000000
473.332315	420.000000
475.731430	437.333333
478.131964	389.666667
480.531869	433.000000
482.927051	486.000000
485.325700	497.666667
487.719629	512.333333
490.112932	547.666667
492.505609	567.000000
494.897661	599.000000
497.291131	651.666667
499.679889	760.333333
502.065981	903.666667
504.453493	1144.666667
506.840382	1518.666667
509.224607	2120.333333
511.610250	3037.333333
513.993232	4207.000000
516.373553	5639.000000
518.755293	6594.333333
521.134374	6600.000000
523.514874	5902.333333
525.892716	4912.666667
528.267903	4108.000000
530.642472	3417.666667
533.018459	2878.333333
535.391794	2490.333333
537.766546	2206.666667
540.136613	1980.333333
542.506064	1759.666667
544.876933	1613.000000
547.243122	1466.000000
549.610729	1409.000000
551.975690	1274.666667
554.340038	1263.000000
556.703773	1199.666667
559.068926	1138.000000
561.429407	1091.333333
563.791306	1067.000000
566.150564	1055.000000
568.507185	1023.000000
570.867250	955.666667
573.220624	957.333333
575.577443	884.666667
577.931627	877.333333
580.285202	844.000000
582.638170	879.666667
584.988505	812.333333
587.340258	824.000000
589.685334	724.333333
592.035874	738.333333
594.379740	748.000000
596.729068	752.000000
599.073747	720.333333
601.415802	729.666667
603.759274	671.666667
606.100123	700.666667
608.440370	740.666667
610.777996	754.333333
613.119057	756.333333
615.455480	791.666667
617.793320	820.333333
620.128543	810.000000
622.461150	792.000000
624.795173	766.666667
627.126582	733.000000
629.457393	706.000000
631.787607	699.333333
634.117222	672.666667
636.442214	677.666667
638.772648	687.666667
641.098461	645.333333
643.421666	704.333333
645.746288	598.000000
648.068304	628.666667
650.389726	656.000000
652.708546	606.000000
655.028781	621.666667
657.348423	622.000000
659.665464	613.666667
661.981913	635.000000
664.295764	615.666667
666.611031	601.333333
668.923701	630.666667
671.237786	606.000000
673.547271	587.000000
675.858172	600.000000
678.166480	551.666667
680.474200	604.333333
682.783334	552.000000
685.087876	557.333333
687.391832	555.666667
689.695202	515.333333
691.999986	521.333333
694.300184	502.333333
696.601796	487.000000
698.902823	496.333333
701.199269	501.000000
703.497130	507.000000
705.794407	533.666667
708.091101	454.333333
710.383219	436.333333
712.678748	475.000000
714.969703	453.666667
717.262073	474.000000
719.551868	477.666667
721.841082	461.333333
724.129717	415.000000
726.415779	489.000000
728.703256	447.666667
730.988161	511.000000
733.272489	463.333333
735.554248	504.000000
737.837421	474.666667
740.120017	458.333333
742.398057	452.000000
744.677512	475.666667
746.956390	442.333333
749.234694	505.333333
751.508448	482.666667
753.783615	459.000000
756.058209	490.666667
758.330244	461.000000
760.603692	440.666667
762.874582	481.000000
765.142916	450.666667
767.412663	448.000000
769.679856	462.666667
771.946478	486.000000
774.212530	434.333333
776.476031	470.333333
778.740945	473.666667
781.005289	441.000000
783.265104	453.666667
785.526331	486.666667
787.786991	447.666667
790.045105	435.333333
792.300674	452.000000
794.559634	482.000000
796.812095	460.000000
799.069922	475.666667
801.323231	486.333333
803.574000	472.333333
805.826181	428.000000
808.075823	459.333333
810.326878	480.333333
812.573421	469.333333
814.821376	452.333333
817.066797	463.000000
819.313629	467.666667
821.559900	433.666667
823.801666	475.000000
826.046816	452.666667
828.285493	444.333333
830.527552	455.000000
832.765113	449.333333
835.004086	456.666667
837.240532	439.333333
839.478389	476.666667
841.713721	413.333333
843.946530	436.666667
846.180750	482.000000
848.412447	412.666667
850.643590	458.333333
852.874178	433.333333
855.104212	437.000000
857.333692	456.666667
859.558690	434.000000
861.787063	445.666667
864.010956	403.666667
866.236261	406.333333
868.457090	423.000000
870.681291	415.666667
872.901019	382.000000
875.122157	448.666667
877.342745	389.333333
879.560824	417.000000
881.780312	437.333333
883.995334	424.666667
886.209808	399.666667
888.423735	407.666667
890.637115	400.000000
892.849947	357.666667
895.062233	427.333333
897.272016	459.000000
899.481254	395.666667
901.689947	456.333333
903.896141	444.333333
906.103744	440.000000
908.308849	392.000000
910.513411	428.333333
912.715478	435.000000
914.918954	452.000000
917.119936	462.666667
919.320376	488.333333
921.522225	451.000000
923.717683	547.333333
925.916500	531.000000
928.110878	534.666667
930.308614	609.333333
932.501914	758.333333
934.696623	764.666667
936.888846	862.666667
939.080530	923.333333
941.271677	946.333333
943.460341	978.333333
945.648469	979.333333
947.834116	978.000000
950.023115	957.333333
952.207691	924.000000
954.391732	968.000000
956.579123	1001.000000
958.758210	941.000000
960.940648	1010.333333
963.122552	1021.000000
965.301981	978.333333
967.478938	967.666667
969.657303	1015.000000
971.837075	1030.333333
974.010498	994.000000
976.187267	1054.666667
978.359629	990.000000
980.533399	1018.333333
982.702765	984.666667
984.875475	930.333333
987.045720	865.000000
989.215436	822.000000
991.384623	735.000000
993.549413	693.000000
995.717544	653.000000
997.881281	584.666667
1000.046424	605.333333
1002.209108	547.000000
1004.371267	523.666667
1006.530969	551.333333
1008.690146	497.000000
1010.850730	503.666667
1013.008859	480.000000
1015.166465	488.333333
1017.323547	451.333333
1019.480105	473.666667
1021.632284	459.000000
1023.785870	453.333333
1025.938934	447.666667
1028.089549	406.000000
1030.241571	438.666667
1032.389219	406.666667
1034.540199	408.666667
1036.686808	374.333333
1038.832898	420.000000
1040.978470	411.000000
1043.125447	385.000000
1045.266135	414.000000
1047.410153	385.000000
1049.551730	397.666667
1051.692791	389.000000
1053.835256	405.000000
1055.971442	421.333333
1058.110953	418.333333
1060.246110	396.000000
1062.384591	399.666667
1064.518718	388.333333
1066.652332	400.000000
1068.787351	415.333333
1070.918020	419.000000
1073.050094	389.333333
1075.179739	410.000000
1077.308872	382.666667
1079.437493	388.666667
1081.565603	384.666667
1083.691287	380.000000
1085.816461	360.666667
1087.943039	377.333333
1090.065279	342.666667
1092.188924	370.333333
1094.308234	400.666667
1096.432774	407.000000
1098.551068	347.666667
1100.670767	385.666667
1102.788047	371.000000
1104.904821	378.333333
1107.021088	350.333333
1109.134939	352.666667
1111.250195	358.000000
1113.361127	367.666667
1115.475372	377.000000
1117.585296	327.666667
1119.696624	334.666667
1121.807447	352.333333
1123.913954	359.000000
1126.023771	361.666667
1128.129273	318.000000
1130.236178	329.666667
1132.336868	349.333333
1134.442770	368.333333
1136.544363	344.666667
1138.647359	346.666667
1140.749854	314.666667
1142.846142	317.333333
1144.947637	316.000000
1147.044830	305.333333
1149.141525	347.333333
1151.237721	329.666667
1153.333420	318.000000
1155.428620	338.666667
1157.521424	333.666667
1159.615631	367.666667
1161.703646	365.666667
1163.796859	349.333333
1165.883884	302.333333
1167.974208	367.666667
1170.060244	324.000000
1172.149579	326.666667
1174.232732	342.333333
1176.317287	323.666667
1178.403244	360.333333
1180.484919	330.000000
1182.567996	328.333333
1184.648687	339.666667
1186.728886	342.333333
1188.808594	324.333333
1190.887811	327.333333
1192.964646	307.000000
1195.039100	360.000000
1197.116845	304.000000
1199.190321	330.000000
1201.265197	359.000000
1203.335806	350.666667
1205.407816	347.333333
1207.477451	328.333333
1209.548486	309.333333
1211.619033	312.000000
1213.685319	319.666667
1215.753006	302.666667
1217.818321	308.666667
1219.885036	293.333333
1221.947495	330.666667
1224.013239	297.000000
1226.074729	320.000000
1228.137620	322.000000
1230.198143	320.333333
1232.258182	312.333333
1234.317739	337.666667
1236.374930	317.666667
1238.431640	343.000000
1240.485986	306.333333
1242.543614	337.666667
1244.598879	287.000000
1246.649903	315.333333
1248.702327	320.000000
1250.754271	297.000000
1252.803857	338.000000
1254.852964	319.666667
1256.901593	334.666667
1258.949743	322.333333
1260.997414	317.333333
1263.040855	335.000000
1265.087572	316.333333
1267.131935	317.000000
1269.175822	328.333333
1271.217357	339.666667
1273.256543	339.333333
1275.299002	307.000000
1277.337238	303.000000
1279.376873	352.666667
1281.416033	330.666667
1283.450974	332.333333
1285.487314	331.333333
1287.521310	331.000000
1289.556703	300.666667
1291.587884	306.000000
1293.620462	340.333333
1295.652569	293.000000
1297.682335	343.333333
1299.713498	330.000000
1301.740455	323.666667
1303.768809	310.000000
1305.792958	330.333333
1307.820373	310.000000
1309.843585	298.000000
1311.868195	329.333333
1313.890471	304.000000
1315.914144	311.000000
1317.935484	331.000000
1319.956356	314.333333
1321.976761	306.666667
1323.992973	331.666667
1326.010582	297.666667
1328.025863	305.000000
1330.044403	284.000000
1332.058754	294.666667
1334.070779	319.000000
1336.086061	334.333333
1338.097158	357.333333
1340.109652	320.000000
1342.117963	353.333333
1344.129529	357.333333
1346.135057	376.666667
1348.143840	388.333333
1350.148445	355.666667
1352.156304	338.000000
1354.163701	373.333333
1356.165067	365.333333
1358.167829	352.000000
1360.170132	348.666667
1362.171975	312.333333
1364.173358	370.666667
1366.172428	353.666667
1368.171039	353.000000
1370.169192	334.000000
1372.166886	336.666667
1374.160418	319.000000
1376.155345	339.333333
1378.149816	322.000000
1380.143830	348.666667
1382.135537	325.333333
1384.126789	317.333333
1386.115735	316.333333
1388.106076	311.666667
1390.095962	290.666667
1392.083544	302.000000
1394.070673	309.000000
1396.055500	271.000000
1398.041722	269.000000
1400.025644	297.333333
1402.009113	296.000000
1403.992129	303.666667
1405.972848	276.333333
1407.954961	269.000000
1409.934778	293.666667
1411.914143	285.666667
1413.889370	308.666667
1415.867835	278.000000
1417.844007	318.666667
1419.819730	281.666667
1421.795003	302.000000
1423.767985	307.333333
1425.740519	269.333333
1427.712605	311.000000
1429.684244	301.666667
1431.651754	312.666667
1433.624338	306.666667
1435.589116	289.333333
1437.558967	302.666667
1439.524694	308.666667
1441.491813	271.000000
1443.456649	270.000000
1445.417365	281.666667
1447.383149	305.000000
1449.342978	319.666667
1451.304201	304.666667
1453.266816	302.000000
1455.225316	286.333333
1457.183373	306.333333
1459.140989	300.000000
1461.098162	291.000000
1463.053060	303.333333
1465.009351	276.000000
1466.963367	301.666667
1468.916942	269.666667
1470.868245	275.333333
1472.820941	328.333333
1474.771364	293.666667
1476.721349	285.000000
1478.670895	285.333333
1480.618172	270.000000
1482.563181	259.000000
1484.509583	303.000000
1486.455547	261.000000
1488.401074	282.333333
1490.344335	289.000000
1492.287161	323.666667
1494.227723	238.000000
1496.169676	237.666667
1498.109367	285.666667
1500.048624	257.000000
1501.987445	273.000000
1503.924007	283.333333
1505.861960	308.666667
1507.797654	297.333333
1509.732915	254.333333
1511.665920	334.333333
1513.598492	311.666667
1515.530632	275.333333
1517.462340	354.333333
1519.391794	279.000000
1521.322639	316.000000
1523.253052	285.000000
1525.179393	294.333333
1527.107125	307.000000
1529.032606	316.666667
1530.957658	290.666667
1532.882281	316.333333
1534.806475	307.333333
1536.728421	300.000000
1538.651758	324.666667
1540.572848	345.666667
1542.491694	290.333333
1544.411930	328.333333
1546.329923	349.666667
1548.247489	329.333333
1550.162813	409.000000
1552.079527	390.666667
1553.992186	386.333333
1555.908049	414.000000
1557.821672	460.333333
1559.733057	435.666667
1561.645832	458.000000
1563.554557	505.666667
1565.464671	541.333333
1567.374362	620.333333
1569.283630	693.000000
1571.190664	797.333333
1573.095465	885.666667
1575.001655	1070.333333
1576.905613	1190.666667
1578.809150	1263.000000
1580.712267	1332.333333
1582.613154	1390.000000
1584.515430	1177.000000
1586.415478	1068.000000
1588.316913	958.000000
1590.214315	782.666667
1592.111298	721.333333
1594.007863	580.000000
1595.905816	550.333333
1597.797934	527.333333
1599.693245	484.333333
1601.588139	446.333333
1603.480811	414.000000
1605.373066	423.666667
1607.263102	406.333333
1609.152722	379.333333
1611.041927	385.333333
1612.930717	373.666667
1614.817289	382.000000
1616.705249	370.333333
1618.589192	334.000000
1620.474522	341.666667
1622.359439	333.333333
1624.242142	313.666667
1626.126232	308.666667
1628.006310	329.333333
1629.887776	346.666667
1631.767031	265.333333
1633.647672	290.666667
1635.522509	276.333333
1637.402327	293.666667
1639.278141	258.333333
1641.153544	310.333333
1643.030333	290.333333
1644.901326	266.666667
1646.775500	277.000000
1648.645675	238.000000
1650.519032	268.333333
1652.390184	281.666667
1654.259136	243.666667
1656.129472	230.666667
1657.995816	290.000000
1659.863545	266.333333
1661.729075	241.333333
1663.595991	266.333333
1665.458918	228.000000
1667.323230	277.666667
1669.185346	233.000000
1671.047057	204.333333
1672.910154	259.666667
1674.771055	232.000000
1676.629764	227.333333
1678.488069	237.000000
1680.347759	231.333333
1682.201681	221.333333
1684.058777	256.333333
1685.915470	260.333333
1687.768186	230.333333
1689.624074	241.000000
1691.475988	239.333333
1693.327501	209.333333
1695.178613	228.000000
1697.029325	239.000000
1698.879635	244.000000
1700.727762	264.666667
1702.577273	228.333333
1704.421035	247.666667
1706.269746	244.000000
1708.112711	223.666667
1709.958843	218.333333
1711.801012	211.666667
1713.646347	255.666667
1715.485941	216.333333
1717.326919	212.666667
1719.169280	233.333333
1721.007685	245.000000
1722.847473	222.666667
1724.685086	193.666667
1726.522303	229.666667
1728.357347	220.000000
1730.193774	186.666667
1732.028029	209.333333
1733.861889	227.666667
1735.695355	238.000000
1737.524876	242.333333
1739.357555	203.000000
1741.186290	243.333333
1743.018182	215.666667
1744.846132	207.000000
1746.673691	248.333333
1748.500857	200.666667
1750.327632	215.000000
1752.154015	207.000000
1753.976462	225.000000
1755.802064	227.333333
1757.623731	236.666667
1759.446780	205.000000
1761.267667	226.333333
1763.088166	239.333333
1764.910045	209.333333
1766.726226	224.666667
1768.545558	203.666667
1770.360963	201.666667
1772.179518	216.666667
1773.994148	217.666667
1775.808391	182.333333
1777.622248	217.666667
1779.435718	219.000000
1781.247035	180.000000
1783.059732	211.666667
1784.872044	221.333333
1786.680438	198.666667
1788.490212	239.000000
1790.296072	219.666667
1792.105077	266.000000
1793.910169	250.000000
1795.716642	225.666667
1797.522731	230.000000
1799.324909	181.333333
1801.130232	226.666667
1802.931646	226.000000
1804.734440	236.666667
1806.533328	194.333333
1808.333597	222.666667
1810.133484	221.666667
1811.931229	203.000000
1813.728594	206.000000
1815.525579	262.333333
1817.322183	221.666667
1819.116648	189.666667
1820.912492	219.000000
1822.702681	213.666667
1824.497767	206.333333
1826.287201	237.666667
1828.079771	208.666667
1829.870206	199.333333
1831.658507	203.333333
1833.449943	210.000000
1835.235733	179.333333
1837.022903	243.000000
1838.807941	212.000000
1840.596113	224.000000
1842.380399	217.333333
1844.162555	195.666667
1845.946091	209.666667
1847.727498	236.333333
1849.510284	205.666667
1851.289189	237.000000
1853.069474	231.333333
1854.847632	211.666667
1856.627169	210.666667
1858.404581	237.333333
1860.179869	251.333333
1861.956535	232.333333
1863.731079	234.666667
1865.507001	211.666667
1867.277302	229.000000
1869.050731	215.333333
1870.822040	191.000000
1872.592978	229.000000
1874.365294	247.333333
1876.131996	240.000000
1877.901824	184.666667
1879.667788	229.000000
1881.436875	225.000000
1883.202101	236.000000
1884.966959	203.000000
1886.733194	236.666667
1888.495570	211.333333
1890.257579	199.666667
1892.019220	216.333333
1893.780495	215.000000
1895.541402	195.666667
1897.301943	216.333333
1899.060374	203.000000
1900.818439	192.000000
1902.574397	224.666667
1904.331731	174.000000
1906.088700	232.666667
1907.843562	219.000000
1909.596320	190.000000
1911.348713	184.333333
1913.102483	187.333333
1914.854149	208.666667
1916.603713	199.000000
1918.354652	200.666667
1920.105229	174.333333
1921.851966	196.333333
1923.600080	187.333333
1925.346094	214.666667
1927.093483	179.333333
1928.838775	252.333333
1930.581969	194.333333
1932.326538	192.000000
1934.069012	222.666667
1935.811125	207.000000
1937.552878	195.333333
1939.294271	224.666667
1941.033571	188.333333
1942.772512	190.666667
1944.511094	176.666667
1946.247585	171.333333
1947.983718	195.000000
1949.721225	218.666667
1951.454910	189.666667
1953.189970	183.000000
1954.922941	201.333333
1956.655556	190.333333
1958.387815	220.333333
1960.119717	239.666667
1961.849533	186.666667
1963.577264	208.000000
1965.306370	198.333333
1967.035121	224.000000
1968.761788	206.333333
1970.488101	238.333333
1972.215787	183.000000
1973.937937	213.666667
1975.663188	202.666667
1977.384632	218.333333
1979.109177	223.333333
1980.831641	213.666667
1982.550303	214.000000
1984.272063	204.000000
1985.990021	200.000000
1987.709352	237.000000
1989.424884	238.333333
1991.145236	232.000000
1992.861790	206.666667
1994.574547	185.000000
1996.290400	200.000000
1998.004181	198.666667
1999.717612	185.666667
2001.428972	208.666667
2003.141704	198.666667
2004.850646	189.000000
2006.562680	182.333333
2008.269206	219.666667
2009.978823	197.000000
2011.686374	204.333333
2013.393576	209.666667
2015.098713	199.666667
2016.803504	229.666667
2018.509666	242.666667
2020.212046	215.000000
2021.915797	218.333333
2023.617486	214.333333
2025.318830	226.000000
2027.019828	187.666667
2028.718765	178.333333
2030.419074	186.333333
2032.115608	195.666667
2033.813513	195.333333
2035.509359	248.333333
2037.208291	218.000000
2038.901737	162.333333
2040.596554	187.333333
2042.291029	223.666667
2043.981735	204.333333
2045.675525	204.666667
2047.365548	234.666667
2049.056942	155.000000
2050.746283	192.666667
2052.436994	189.000000
2054.123942	193.333333
2055.810551	206.000000
2057.498529	188.666667
2059.182748	213.666667
2060.868338	166.333333
2062.553588	209.333333
2064.236789	202.000000
2065.921361	223.000000
2067.600470	193.000000
2069.284364	178.333333
2070.962797	165.666667
2072.644308	194.333333
2074.322067	173.000000
2075.999490	196.000000
2077.678282	190.333333
2079.355032	175.333333
2081.029740	175.333333
2082.705817	209.666667
2084.379853	142.333333
2086.053555	213.666667
2087.726921	176.000000
2089.398248	222.666667
2091.069241	228.333333
2092.739900	177.666667
2094.410225	194.333333
2096.080216	168.000000
2097.748171	176.333333
2099.415793	187.666667
2101.081380	205.000000
2102.748336	183.000000
2104.413259	177.666667
2106.077850	194.666667
2107.740409	224.000000
2109.404336	212.333333
2111.066232	175.333333
2112.727798	177.333333
2114.389032	189.333333
2116.048238	220.000000
2117.707113	186.000000
2119.365659	167.666667
2121.023874	195.000000
2122.678367	178.666667
2124.335924	186.333333
2125.993152	199.333333
2127.646658	220.666667
2129.301532	202.666667
2130.952687	171.666667
2132.606905	161.333333
2134.257406	191.333333
2135.909273	144.333333
2137.555732	165.000000
2139.206946	200.333333
2140.854446	202.000000
2142.503313	177.333333
2144.150161	183.666667
2145.796684	181.000000
2147.442881	227.333333
2149.085370	163.666667
2150.730917	188.333333
2152.372757	195.000000
2154.017654	170.000000
2155.658845	216.000000
2157.299714	187.666667
2158.940258	195.666667
2160.578790	203.333333
2162.218688	182.000000
2163.854886	144.666667
2165.492450	208.000000
2167.129692	220.333333
2168.764924	193.666667
2170.399835	178.666667
2172.034423	210.333333
2173.668691	184.333333
2175.299265	182.000000
2176.932891	202.333333
2178.562825	159.333333
2180.194124	202.000000
2181.823418	196.000000
2183.452393	190.666667
2185.081048	179.000000
2186.709384	195.333333
2188.335718	208.666667
2189.961733	212.333333
2191.585746	176.666667
2193.211125	179.333333
2194.834503	180.000000
2196.459246	194.000000
2198.080308	168.666667
2199.701053	179.666667
2201.323163	205.000000
2202.943275	157.000000
2204.561390	174.000000
2206.179190	204.666667
2207.796675	196.333333
2209.413844	226.000000
2211.030698	208.333333
2212.647236	149.333333
2214.261782	182.000000
2215.874335	177.333333
2217.488252	151.333333
2219.100178	212.000000
2220.713467	220.000000
2222.324766	186.666667
2223.934075	191.000000
2225.544748	186.000000
2227.153432	175.666667
2228.761803	176.000000
2230.368188	178.666667
2231.975936	204.666667
2233.581697	187.666667
2235.187147	209.666667
2236.790612	206.666667
2238.395440	174.333333
2239.998284	180.000000
2241.599145	156.333333
2243.201369	202.333333
2244.801611	137.333333
2246.403215	211.333333
2248.001166	159.666667
2249.600480	150.333333
2251.197814	165.666667
2252.794840	203.000000
2254.393228	169.333333
2255.987967	169.666667
2257.580729	210.666667
2259.174854	200.000000
2260.770340	201.333333
2262.362181	164.666667
2263.953716	176.333333
2265.546613	199.000000
2267.134200	183.000000
2268.726483	203.333333
2270.313460	157.666667
2271.903464	222.333333
2273.488164	237.333333
2275.077558	165.333333
2276.661650	184.333333
2278.247102	181.666667
2279.830586	180.666667
2281.417095	182.000000
2282.999971	167.333333
2284.582544	211.333333
2286.164813	173.000000
2287.743452	199.666667
2289.325116	172.333333
2290.903151	201.000000
2292.484209	186.333333
2294.061640	163.666667
2295.637108	141.000000
2297.215598	199.000000
2298.790464	177.000000
2300.365029	157.333333
2301.939294	155.000000
2303.513258	182.000000
2305.086921	190.000000
2306.660285	184.333333
2308.230030	186.666667
2309.799476	197.333333
2311.371940	158.000000
2312.939130	176.000000
2314.509338	188.666667
2316.075931	136.666667
2317.643884	185.000000
2319.209881	171.000000
2320.775581	166.333333
2322.340983	206.000000
2323.904432	156.333333
2325.469240	183.000000
2327.030440	177.333333
2328.594654	183.000000
2330.153606	186.666667
2331.715573	212.333333
2333.275588	217.333333
2334.835309	178.000000
2336.393080	168.666667
2337.950556	191.333333
2339.507738	160.666667
2341.062972	184.333333
2342.617913	182.666667
2344.172559	177.000000
2345.726912	193.000000
2347.280972	171.000000
2348.834737	166.666667
2350.386558	157.000000
2351.936437	175.666667
2353.489323	158.000000
2355.036966	210.333333
2356.587618	215.333333
2358.134678	160.000000
2359.683096	136.333333
2361.231223	164.000000
2362.775761	204.333333
2364.321657	149.000000
2365.865615	173.333333
2367.410930	191.000000
2368.952660	191.000000
2370.495747	157.666667
2372.036898	175.000000
2373.577760	182.666667
2375.118333	184.666667
2376.658617	178.000000
2378.198612	185.333333
2379.735029	153.333333
2381.274447	170.666667
2382.810287	177.666667
2384.347485	177.000000
2385.881107	155.333333
2387.417729	169.000000
2388.952421	178.666667
2390.485183	152.000000
2392.017658	177.333333
2393.548205	158.333333
2395.081750	173.333333
2396.610084	181.333333
2398.139774	191.333333
2399.669179	189.666667
2401.198299	184.000000
2402.727134	165.666667
2404.250763	169.666667
2405.779028	195.000000
2407.302091	147.666667
2408.829787	161.333333
2410.350644	183.666667
2411.876134	192.333333
2413.398063	182.000000
2414.921348	203.666667
2416.442711	189.666667
2417.962155	194.000000
2419.482954	180.000000
2421.001835	206.333333
2422.520433	201.000000
2424.037114	217.000000
2425.555149	190.333333
2427.072903	199.333333
2428.587106	204.000000
2430.101028	200.333333
2431.614670	175.000000
2433.129667	217.333333
2434.641115	186.666667
2436.153918	207.333333
2437.664807	183.333333
2439.175418	204.666667
2440.684117	257.333333
2442.195802	218.000000
2443.703944	274.666667
2445.211808	252.333333
2446.719394	282.000000
2448.223439	247.666667
2449.730469	255.333333
2451.235591	245.000000
2452.740436	248.333333
2454.243374	295.000000
2455.746036	245.000000
2457.248421	288.000000
2458.748901	239.333333
2460.250734	233.333333
2461.750662	264.333333
2463.250315	210.333333
2464.749693	247.666667
2466.247168	247.000000
2467.742741	241.666667
2469.241294	216.666667
2470.736319	221.333333
2472.232696	227.000000
2473.725547	205.333333
2475.219751	250.333333
2476.713681	213.333333
2478.204087	228.666667
2479.697471	212.000000
2481.188957	226.000000
2482.678546	211.000000
2484.167863	235.333333
2485.655284	198.666667
2487.145681	206.666667
2488.632560	222.666667
2490.120790	189.333333
2491.605503	233.000000
2493.089947	201.333333
2494.575741	200.333333
2496.059644	205.333333
2497.544897	171.666667
2499.025017	200.333333
2500.508110	192.000000
2501.989312	176.666667
2503.470245	147.000000
2504.949289	167.000000
2506.428064	180.000000
2507.906571	186.666667
2509.384810	172.333333
2510.862780	224.333333
2512.337245	202.333333
2513.814680	166.333333
2515.288611	165.000000
2516.763892	160.333333
2518.238906	178.666667
2519.710419	148.666667
2521.183283	192.000000
2522.654264	197.000000
2524.126595	181.000000
2525.593812	188.333333
2527.063996	167.000000
2528.532299	172.000000
2530.000337	154.333333
2531.468110	162.333333
2532.935618	158.666667
2534.402861	172.666667
2535.866612	193.333333
2537.331713	183.333333
2538.794937	189.333333
2540.259510	180.666667
2541.720595	153.333333
2543.183029	201.333333
2544.645200	164.333333
2546.103885	179.666667
2547.567141	206.666667
2549.025302	203.000000
2550.484811	182.333333
2551.939226	206.666667
2553.398212	184.333333
2554.855326	178.000000
2556.310569	201.666667
2557.765550	182.666667
2559.218663	190.000000
2560.673124	205.333333
2562.125715	176.000000
2563.578047	176.333333
2565.028512	168.000000
2566.481932	186.000000
2567.930270	177.000000
2569.381563	193.000000
2570.830991	162.666667
2572.276946	214.333333
2573.725856	189.333333
2575.171296	189.666667
2576.618083	209.666667
2578.063008	178.666667
2579.507674	186.000000
2580.953688	184.333333
2582.396236	189.333333
2583.840131	189.000000
2585.280561	198.000000
2586.722338	200.000000
2588.162256	211.000000
2589.603521	192.000000
2591.041324	180.666667
2592.482077	186.000000
2593.917768	176.666667
2595.356408	180.000000
2596.793190	225.333333
2598.228117	233.000000
2599.665991	217.333333
2601.098808	212.666667
2602.532972	218.000000
2603.965282	203.000000
2605.398938	177.000000
2606.830741	227.333333
2608.262290	219.333333
2609.693587	218.333333
2611.123031	205.666667
2612.552223	237.000000
2613.979565	189.333333
2615.408252	216.000000
2616.836688	223.666667
2618.261676	260.333333
2619.688011	203.333333
2621.112497	241.666667
2622.538329	232.666667
2623.960717	261.333333
2625.384451	311.333333
2626.806338	268.333333
2628.227976	270.666667
2629.647768	256.000000
2631.068906	294.666667
2632.489794	293.000000
2633.907244	299.666667
2635.327633	286.666667
2636.744585	340.333333
2638.161288	333.666667
2639.577743	343.666667
2640.993950	367.666667
2642.409909	375.000000
2643.824027	368.666667
2645.237897	433.666667
2646.649929	385.333333
2648.063304	406.666667
2649.473250	434.000000
2650.886132	476.000000
2652.295585	489.000000
2653.704792	486.333333
2655.112163	555.000000
2656.522468	597.666667
2657.930938	592.000000
2659.337572	646.000000
2660.743961	689.666667
2662.148516	767.666667
2663.554415	842.666667
2664.958481	908.333333
2666.362302	939.000000
2667.765879	1034.666667
2669.167625	1137.000000
2670.570714	1261.000000
2671.970385	1366.333333
2673.371400	1477.333333
2674.768999	1583.333333
2676.169527	1704.666667
2677.566641	1768.000000
2678.965098	1815.333333
2680.361728	1926.000000
2681.758115	1963.333333
2683.154260	1928.000000
2684.548579	1939.666667
2685.944241	1921.333333
2687.336494	1850.000000
2688.730089	1822.000000
2690.121860	1673.000000
2691.514974	1551.666667
2692.906264	1474.333333
2694.295731	1442.333333
2695.684958	1248.000000
2697.073946	1193.666667
2698.464275	1102.000000
2699.849621	1055.000000
2701.237890	962.666667
2702.624339	866.000000
2704.010549	814.333333
2705.396520	762.666667
2706.779093	689.000000
2708.163008	668.333333
2709.546685	628.000000
2710.930123	621.000000
2712.310167	551.333333
2713.691551	555.666667
2715.071121	502.333333
2716.452031	439.000000
2717.831127	458.000000
2719.208409	430.000000
2720.587032	377.666667
2721.963842	380.666667
2723.340415	388.333333
2724.716753	366.333333
2726.091280	343.666667
2727.467147	361.666667
2728.839627	301.000000
2730.215023	314.666667
2731.585459	258.333333
2732.957236	313.000000
2734.328778	280.000000
2735.698512	267.000000
2737.069587	248.333333
2738.438853	234.333333
2739.807886	225.333333
2741.175113	252.333333
2742.542106	226.333333
2743.908867	229.333333
2745.275396	225.333333
2746.640119	234.000000
2748.004610	225.666667
2749.368870	215.333333
2750.732897	199.333333
2752.096693	187.000000
2753.457115	206.333333
2754.820447	196.333333
2756.178837	184.333333
2757.540137	199.000000
2758.898067	160.666667
2760.258905	195.333333
2761.617944	216.666667
2762.973614	185.666667
2764.332192	166.000000
2765.687403	199.000000
2767.042385	196.666667
2768.395571	176.000000
2769.751662	170.333333
2771.104390	183.666667
2772.456890	128.666667
2773.809161	196.333333
2775.162770	195.000000
2776.513019	184.000000
2777.861473	165.666667
2779.212833	170.333333
2780.560833	174.000000
2781.910171	167.666667
2783.257717	157.666667
2784.605037	178.000000
2785.952130	170.000000
2787.297432	169.666667
2788.642507	129.666667
2789.987357	173.333333
2791.331981	130.333333
2792.673253	166.666667
2794.015863	137.333333
2795.358247	144.666667
2796.700406	189.666667
2798.039216	180.333333
2799.380926	200.000000
2800.719288	178.666667
2802.058986	130.000000
2803.396900	140.333333
2804.733029	141.333333
2806.068934	183.000000
2807.406177	154.000000
2808.741636	180.333333
2810.076872	177.333333
2811.410325	171.666667
2812.745115	190.666667
2814.076565	165.666667
2815.410910	153.000000
2816.740357	184.333333
2818.071141	189.666667
2819.401703	161.666667
2820.730486	138.666667
2822.060605	156.000000
2823.388946	166.000000
2824.717066	160.666667
2826.043408	157.000000
2827.371087	159.333333
2828.695432	166.000000
2830.021114	176.000000
2831.345020	148.333333
2832.668707	146.666667
2833.993729	148.666667
2835.315421	162.666667
2836.636895	163.000000
2837.958150	174.666667
2839.279186	176.333333
2840.598449	150.000000
2841.919048	148.333333
2843.237876	122.666667
2844.556485	141.333333
2845.873323	155.333333
2847.189944	153.333333
2848.506348	119.666667
2849.820982	137.000000
2851.136952	151.333333
2852.449601	124.333333
2853.763585	131.666667
2855.077353	114.333333
2856.390904	103.000000
2857.702689	154.666667
2859.012707	137.333333
2860.324060	171.000000
2861.632098	145.000000
2862.941470	124.666667
2864.250628	147.333333
2865.559570	161.000000
2866.866748	155.666667
2868.172164	177.000000
2869.478913	166.000000
2870.783901	120.333333
2872.088675	142.666667
2873.391687	136.666667
2874.697580	144.666667
2875.998619	155.333333
2877.300992	142.666667
2878.601605	117.000000
2879.903552	113.666667
2881.205285	130.666667
2882.503715	107.000000
2883.803478	148.333333
2885.101484	111.000000
2886.399278	132.333333
2887.695316	160.666667
2888.992687	156.000000
2890.288302	138.000000
2891.583706	124.000000
2892.878899	131.333333
2894.170795	143.333333
2895.465567	144.000000
2896.757042	133.666667
2898.049850	122.000000
2899.342448	110.666667
2900.631752	128.666667
2901.922388	138.000000
2903.211273	109.333333
2904.501490	135.333333
2905.788416	153.666667
2907.076674	132.333333
2908.363183	158.666667
2909.649483	136.000000
2910.935576	137.666667
2912.219920	116.000000
2913.507135	114.000000
2914.789524	126.000000
2916.073245	128.666667
2917.355220	131.666667
2918.636987	126.666667
2919.917010	192.000000
2921.199902	149.000000
2922.481049	112.000000
2923.758914	128.333333
2925.039648	122.333333
2926.317101	123.666667
2927.594348	142.000000
2928.869853	142.666667
2930.148226	128.000000
2931.421785	147.666667
2932.698211	139.333333
2933.972896	148.666667
2935.245840	83.666667
2936.520116	165.000000
2937.792652	118.333333
2939.064983	126.333333
2940.334042	134.000000
2941.605966	131.000000
2942.876152	153.000000
2944.146134	113.000000
2945.415913	146.333333
2946.683956	159.666667
2947.950262	120.000000
2949.216367	141.000000
2950.483801	148.000000
2951.749501	121.333333
2953.014998	116.000000
2954.280293	104.000000
2955.542323	122.333333
2956.805683	151.333333
2958.068842	154.333333
2959.330269	152.000000
2960.593025	92.666667
2961.854049	137.000000
2963.113343	131.333333
2964.372437	122.666667
2965.631330	125.666667
2966.890023	133.000000
2968.148516	124.333333
2969.405280	149.000000
2970.661844	118.666667
2971.916681	122.000000
2973.172846	122.000000
2974.425757	140.333333
2975.679997	127.000000
2976.934037	129.000000
2978.186353	149.000000
2979.438469	104.333333
2980.688861	137.666667
2981.942108	127.000000
2983.190578	121.000000
2984.441903	137.666667
2985.689978	141.000000
2986.937857	107.333333
2988.185538	90.000000
2989.433022	139.666667
2990.678785	112.000000
2991.924352	96.333333
2993.171246	127.333333
2994.414896	115.333333
2995.659874	147.000000
2996.901608	123.000000
2998.146194	117.000000
2999.389061	96.666667
3000.628687	93.666667
3001.871163	159.333333
3003.110399	107.666667
3004.350963	150.000000
3005.589810	110.000000
3006.828463	117.000000
3008.065400	115.333333
3009.303665	89.666667
3010.540214	109.333333
3011.776570	99.000000
3013.012732	106.000000
3014.247180	129.333333
3015.481436	90.333333
3016.715498	147.666667
3017.947848	100.666667
3019.178486	128.000000
3020.411970	124.333333
3021.643742	99.000000
3022.873804	106.000000
3024.103673	95.333333
3025.331833	112.333333
3026.561320	90.666667
3027.789097	129.333333
3029.016683	127.333333
3030.245596	127.000000
3031.469766	114.666667
3032.696779	107.333333
3033.920568	91.666667
3035.145684	118.666667
3036.369093	113.333333
3037.592312	101.000000
3038.813826	113.333333
3040.038181	122.333333
3041.257801	125.000000
3042.478747	86.666667
3043.699504	136.666667
3044.918557	105.333333
3046.138935	111.333333
3047.356097	116.666667
3048.574585	133.333333
3049.791370	110.000000
3051.007968	117.333333
3052.224377	136.000000
3053.437574	119.666667
3054.653608	97.333333
3055.866430	122.000000
3057.082089	101.666667
3058.293025	122.333333
3059.505286	124.666667
3060.717361	109.666667
3061.929248	124.000000
3063.139439	105.000000
3064.349443	110.000000
3065.559261	138.333333
3066.767383	113.000000
3067.975320	93.000000
3069.181561	114.000000
3070.389127	107.333333
3071.594998	92.500000
3072.800685	77.666667
3074.006186	108.666667
3075.209994	120.333333
3076.415126	86.000000
3077.618565	78.333333
3078.820313	106.666667
3080.021876	126.666667
3081.223256	88.000000
3082.424452	121.000000
3083.623958	117.333333
3084.823281	119.333333
3086.023927	98.666667
3087.222883	127.666667
3088.418645	72.333333
3089.617236	110.000000
3090.812633	82.333333
3092.009353	52.666667
3093.202881	76.000000
3094.399237	90.666667
3095.593907	106.333333
3096.785385	132.000000
3097.981196	134.666667
3099.172312	88.666667
3100.364752	82.000000
3101.554004	92.333333
3102.746081	82.333333
3103.936475	104.666667
3105.123683	97.000000
3106.312213	116.333333
3107.502066	116.333333
3108.688735	105.333333
3109.875223	102.000000
3111.061533	100.333333
3112.249164	93.000000
3113.433613	132.000000
3114.616383	99.000000
3115.801975	99.000000
3116.985888	100.666667
3118.168122	104.666667
3119.350177	57.333333
3120.532054	94.666667
3121.713753	87.000000
3122.893775	106.333333
3124.072120	100.666667
3125.253285	118.666667
3126.431275	92.666667
3127.609089	75.333333
3128.786725	75.000000
3129.962686	66.333333
3131.138470	82.000000
3132.315576	112.333333
3133.491007	101.000000
3134.664765	111.333333
3135.836850	110.333333
3137.010257	97.000000
3138.183487	92.333333
3139.355046	81.666667
3140.527925	72.666667
3141.697637	113.000000
3142.868670	70.666667
3144.038033	99.333333
3145.205725	87.666667
3146.376233	109.666667
3147.542083	115.666667
3148.712241	112.666667
3149.877743	91.333333
3151.043070	102.000000
3152.208224	94.333333
3153.373205	119.000000
3154.539505	101.000000
3155.701153	118.000000
3156.864120	81.333333
3158.026915	92.333333
3159.189537	79.333333
3160.350494	98.333333
3161.511278	78.666667
3162.671890	89.000000
3163.830838	93.000000
3164.989615	141.666667
3166.148220	104.333333
3167.306652	127.666667
3168.464914	116.333333
3169.621513	121.000000
3170.776451	84.666667
3171.932708	102.000000
3173.087304	110.333333
3174.241730	85.333333
3175.394496	100.333333
3176.547091	74.000000
3177.699517	86.333333
3178.851773	120.000000
3180.003858	104.333333
3181.152798	94.666667
3182.304544	95.000000
3183.454632	141.666667
3184.603064	101.333333
3185.751326	91.333333
3186.899420	101.000000
3188.047345	84.666667
3189.193614	90.666667
3190.339715	64.666667
3191.484162	119.333333
3192.628441	81.000000
3193.772552	82.666667
3194.917980	110.333333
3196.060270	101.666667
3197.202393	64.000000
3198.344348	112.000000
3199.486136	111.666667
3200.627757	87.000000
3201.766243	77.333333
3202.906046	109.000000
3204.047167	108.666667
3205.185153	103.000000
3206.321490	104.666667
3207.457661	89.666667
3208.595149	89.000000
3209.730989	74.666667
3210.868146	112.000000
3212.000690	91.333333
3213.137516	82.333333
3214.269730	107.333333
3215.403261	104.000000
3216.536628	100.000000
3217.666867	96.666667
3218.799904	114.666667
3219.929815	94.000000
3221.061042	108.000000
3222.189145	111.666667
3223.320044	95.666667
3224.449299	137.666667
3225.576911	124.333333
3226.701400	95.000000
3227.830165	148.666667
3228.955808	133.333333
3230.081289	115.666667
3231.205128	100.000000
3232.331761	101.666667
3233.453797	141.000000
3234.577149	139.333333
3235.700339	186.000000
3236.823366	155.000000
3237.944755	172.666667
3239.065981	122.666667
3240.185570	174.333333
3241.304997	167.666667
3242.422786	141.666667
3243.543367	145.333333
3244.660835	141.000000
3245.778142	150.666667
3246.895289	126.666667
3248.010800	139.666667
3249.127625	133.333333
3250.241341	121.333333
3251.357846	115.666667
3252.472717	130.333333
3253.584479	157.333333
3254.696081	101.333333
3255.808999	97.000000
3256.921757	97.000000
3258.031409	91.666667
3259.142376	108.666667
3260.253184	96.000000
3261.362360	76.000000
3262.469906	93.000000
3263.578765	90.666667
3264.687467	104.333333
3265.793066	103.666667
3266.899979	80.666667
3268.005263	85.000000
3269.111861	103.000000
3270.215359	87.666667
3271.320172	95.000000
3272.424827	89.333333
3273.526383	103.666667
3274.627783	93.333333
3275.730497	98.333333
3276.833055	115.666667
3277.932516	102.333333
3279.034761	97.666667
3280.133910	89.000000
3281.231435	49.666667
3282.328804	82.666667
3283.428955	87.666667
3284.526014	110.000000
3285.622917	79.666667
3286.719665	60.000000
3287.811855	86.666667
3288.908293	73.333333
3290.003109	56.666667
3291.097771	81.000000
3292.190811	92.000000
3293.283696	133.000000
3294.374962	85.000000
3295.467539	55.000000
3296.558497	95.666667
3297.647835	66.333333
3298.737020	69.000000
3299.827518	98.666667
3300.914931	85.333333
3302.002191	87.333333
3303.090764	70.666667
3304.179185	69.666667
3305.263058	86.666667
3306.351173	80.000000
3307.436206	91.333333
3308.519624	48.666667
3309.604354	85.666667
3310.687468	64.666667
3311.771895	92.000000
3312.853243	70.000000
3313.935903	78.666667
3315.016949	100.666667
3316.097844	92.666667
3317.177125	66.000000
3318.256256	75.333333
3319.336699	91.333333
3320.414067	94.000000
3321.492747	69.666667
3322.569815	98.000000
3323.646734	52.666667
3324.722041	99.666667
3325.797199	86.666667
3326.873668	108.000000
3327.947067	53.333333
3329.020317	75.333333
3330.094877	83.666667
3331.167829	79.000000
3332.239172	77.000000
3333.311826	71.666667
3334.381414	95.000000
3335.452312	37.333333
3336.521603	104.000000
3337.592205	74.000000
3338.661200	79.666667
3339.728589	82.666667
3340.794373	95.666667
3341.864383	82.000000
3342.931330	79.000000
3343.995215	82.000000
3345.061868	91.333333
3346.126916	95.333333
3347.190361	91.000000
3348.253660	86.666667
3349.316812	78.333333
3350.379818	80.666667
3351.442678	76.000000
3352.503936	117.333333
3353.562137	72.000000
3354.624558	73.666667
3355.683924	64.666667
3356.743144	75.333333
3357.803673	73.000000
3358.859694	95.000000
3359.918478	113.333333
3360.972755	76.333333
3362.029796	78.666667
3363.085238	60.000000
3364.141990	68.000000
3365.197143	57.000000
3366.250699	78.000000
3367.302659	67.000000
3368.357380	79.000000
3369.409052	67.666667
3370.460581	85.333333
3371.513418	57.333333
3372.563208	58.000000
3373.614307	86.333333
3374.662360	103.000000
3375.713172	83.666667
3376.760940	91.666667
3377.808565	85.000000
3378.856047	49.666667
3379.901937	88.666667
3380.949135	78.333333
3381.993291	101.000000
3383.040205	88.333333
3384.085527	113.333333
3385.127808	57.333333
3386.169949	68.000000
3387.213397	104.666667
3388.256704	115.000000
3389.298422	73.666667
3390.339998	81.666667
3391.381433	50.333333
3392.421280	79.000000
3393.459538	97.333333
3394.499104	86.333333
3395.538530	106.666667
3396.576368	57.666667
3397.612619	65.333333
3398.648731	93.666667
3399.686150	99.666667
3400.720536	84.000000
3401.756229	57.666667
3402.791783	45.000000
3403.824306	76.333333
3404.859582	61.333333
3405.891827	70.666667
3406.923934	38.333333
3407.954457	42.666667
3408.986287	81.000000
3410.017979	101.000000
3411.046643	81.000000
3412.075170	99.333333
3413.105003	104.333333
3414.134699	77.000000
3415.161369	62.666667
3416.189346	58.666667
3417.214298	60.000000
3418.242000	90.000000
3419.266679	81.000000
3420.292664	62.666667
3421.317069	61.666667
3422.341338	82.333333
3423.364028	67.333333
3424.386582	79.666667
3425.410442	71.333333
3426.431282	118.666667
3427.451986	80.333333
3428.473997	76.666667
3429.492989	40.000000
3430.511845	88.333333
3431.532008	91.666667
3432.549154	61.000000
