-116.707459	15.000000
-114.037859	-11.333333
-111.371194	3.666667
-108.705281	-20.666667
-106.042300	-0.666667
-103.377890	-8.000000
-100.716410	-16.333333
-98.053501	-11.000000
-95.395698	20.333333
-92.736466	29.333333
-90.077982	-14.000000
-87.422422	13.333333
-84.765434	4.000000
-82.113544	7.333333
-79.460224	-25.333333
-76.809823	-7.000000
-74.157993	12.333333
-71.511254	-30.333333
-68.863086	-17.333333
-66.215660	23.000000
-63.571148	-2.000000
-60.925208	-28.000000
-58.284349	-19.666667
-55.642061	-5.000000
-53.002682	-28.000000
-50.361873	-12.333333
-47.721805	-13.333333
-45.086809	4.333333
-42.450385	-11.666667
-39.816863	15.000000
-37.181913	-3.666667
-34.552028	23.666667
-31.918551	-5.666667
-29.290136	18.333333
-26.662455	48.000000
-24.033345	4.666667
-21.409292	36.666667
-18.781650	9.000000
-16.159061	25.666667
-13.537204	42.333333
-10.916077	102.333333
-8.295680	204.000000
-5.678172	780.333333
-3.059235	2522.000000
-0.443183	7842.000000
2.172140	12179.000000
4.786736	7087.333333
7.398449	728.000000
10.011591	93.000000
12.619699	36.333333
15.231389	41.333333
17.838048	13.666667
20.446135	14.666667
23.053498	39.333333
25.655836	-18.666667
28.261752	-4.000000
30.862646	-5.000000
33.464968	47.000000
36.062273	8.333333
38.663153	-26.333333
41.259018	59.000000
43.856312	9.000000
46.452886	12.666667
49.044451	5.000000
51.637444	2.000000
54.227576	-7.666667
56.819136	13.333333
59.407836	20.000000
61.997963	8.666667
64.583091	24.666667
67.169647	24.666667
69.755489	-33.000000
72.338477	-1.333333
74.922891	12.666667
77.500177	-9.666667
80.081029	3.333333
82.659032	-9.000000
85.236325	14.666667
87.815044	10.333333
90.388781	-9.000000
92.963946	26.333333
95.536267	2.666667
98.107880	16.000000
100.676653	0.000000
103.246853	3.000000
105.814215	8.666667
108.383002	6.333333
110.948953	25.666667
113.512069	20.333333
116.078741	11.333333
118.636192	22.333333
121.199328	34.666667
123.757504	79.333333
126.319235	45.000000
128.876009	78.000000
131.434210	125.333333
133.987457	168.666667
136.540007	262.000000
139.096107	337.000000
141.647259	451.000000
144.197714	627.000000
146.747471	716.000000
149.294409	789.000000
151.840652	803.000000
154.388320	873.666667
156.935292	875.000000
159.477329	846.333333
162.018672	804.666667
164.559322	851.666667
167.101398	794.000000
169.640662	839.666667
172.177118	827.000000
174.712882	843.333333
177.250072	822.333333
179.786571	821.333333
182.320264	834.666667
184.851153	777.333333
187.381355	790.666667
189.912981	815.000000
192.441806	748.666667
194.967832	831.666667
197.493172	809.000000
200.019937	791.666667
202.543906	795.000000
205.067190	790.666667
207.589789	768.000000
210.109595	728.333333
212.628718	774.000000
215.147158	850.000000
217.667022	824.333333
220.179885	820.666667
222.696279	795.666667
225.211991	816.333333
227.722813	878.000000
230.235060	834.666667
232.744525	872.666667
235.253311	822.333333
237.761418	862.666667
240.270950	876.333333
242.775601	908.666667
245.279576	892.333333
247.784975	813.333333
250.285499	824.333333
252.789547	857.333333
255.286623	893.000000
257.787223	840.000000
260.285051	868.333333
262.782206	869.000000
265.278688	832.666667
267.770307	869.333333
270.265446	864.000000
272.757818	872.666667
275.249520	913.333333
277.738459	894.333333
280.228822	888.000000
282.716422	908.666667
285.201263	899.666667
287.689619	883.666667
290.171035	964.333333
292.655965	926.000000
295.136050	944.333333
297.619647	969.666667
300.098401	1008.333333
302.578579	1077.000000
305.056004	1027.666667
307.532766	1028.333333
310.008865	989.666667
312.482215	921.000000
314.954903	957.666667
317.426930	912.000000
319.898296	946.000000
322.366917	975.666667
324.834880	984.333333
327.304264	871.333333
329.768826	877.333333
332.236892	891.000000
334.700138	819.333333
337.162726	813.333333
339.624658	784.000000
342.085933	819.666667
344.544474	789.000000
347.004437	815.666667
349.461667	777.333333
351.918243	744.666667
354.374165	793.666667
356.827357	763.333333
359.281972	744.000000
361.731785	727.333333
364.185094	766.000000
366.633605	743.333333
369.081464	726.000000
371.530746	745.000000
373.975234	708.333333
376.421144	656.666667
378.866404	708.333333
381.308946	662.000000
383.750840	639.000000
386.192087	658.000000
388.630618	694.000000
391.070571	688.666667
393.507810	604.333333
395.942337	683.000000
398.380352	679.666667
400.813590	713.000000
403.248249	652.333333
405.678136	640.333333
408.111508	642.000000
410.540110	674.666667
412.968070	648.000000
415.397452	660.333333
417.822068	622.000000
420.248106	619.333333
422.673503	608.000000
425.098260	595.000000
427.518259	596.333333
429.939679	593.333333
432.358402	596.000000
434.778546	605.666667
437.195995	596.333333
439.614864	561.666667
442.031040	554.666667
444.442468	522.333333
446.857374	533.666667
449.269589	527.000000
451.681170	507.666667
454.092117	526.000000
456.500378	512.000000
458.908006	489.333333
461.315002	525.000000
463.721367	470.333333
466.125049	461.666667
468.528101	473.666667
470.930523	458.000000
473.332315	470.000000
475.731430	503.666667
478.131964	464.333333
480.531869	529.000000
482.927051	538.000000
485.325700	509.000000
487.719629	536.000000
490.112932	563.000000
492.505609	593.666667
494.897661	603.000000
497.291131	715.333333
499.679889	780.000000
502.065981	923.666667
504.453493	1172.000000
506.840382	1539.000000
509.224607	2171.666667
511.610250	3143.666667
513.993232	4385.666667
516.373553	5763.000000
518.755293	6694.333333
521.134374	6756.000000
523.514874	6027.666667
525.892716	5053.666667
528.267903	4241.333333
530.642472	3408.333333
533.018459	2973.000000
535.391794	2577.666667
537.766546	2328.666667
540.136613	2069.666667
542.506064	1872.333333
544.876933	1704.000000
547.243122	1597.666667
549.610729	1521.000000
551.975690	1371.666667
554.340038	1310.000000
556.703773	1228.000000
559.068926	1198.333333
561.429407	1120.000000
563.791306	1108.333333
566.150564	1104.666667
568.507185	1016.000000
570.867250	1008.666667
573.220624	975.000000
575.577443	936.000000
577.931627	881.333333
580.285202	952.666667
582.638170	874.666667
584.988505	861.333333
587.340258	871.000000
589.685334	852.333333
592.035874	790.666667
594.379740	796.000000
596.729068	742.000000
599.073747	767.333333
601.415802	769.333333
603.759274	725.666667
606.100123	752.333333
608.440370	779.666667
610.777996	798.000000
613.119057	802.000000
615.455480	827.666667
617.793320	835.666667
620.128543	855.333333
622.461150	863.000000
624.795173	807.000000
627.126582	744.000000
629.457393	734.666667
631.787607	699.000000
634.117222	706.000000
636.442214	698.666667
638.772648	722.333333
641.098461	707.666667
643.421666	693.333333
645.746288	670.333333
648.068304	649.666667
650.389726	644.000000
652.708546	628.666667
655.028781	637.000000
657.348423	628.333333
659.665464	650.333333
661.981913	613.000000
664.295764	642.333333
666.611031	602.000000
668.923701	650.333333
671.237786	626.000000
673.547271	644.000000
675.858172	642.000000
678.166480	587.333333
680.474200	639.666667
682.783334	603.333333
685.087876	621.333333
687.391832	577.333333
689.695202	571.333333
691.999986	559.000000
694.300184	576.000000
696.601796	554.666667
698.902823	505.333333
701.199269	505.333333
703.497130	499.000000
705.794407	508.000000
708.091101	506.333333
710.383219	505.000000
712.678748	504.666667
714.969703	486.666667
717.262073	542.333333
719.551868	490.666667
721.841082	495.666667
724.129717	492.666667
726.415779	538.333333
728.703256	486.000000
730.988161	483.666667
733.272489	518.666667
735.554248	488.000000
737.837421	507.000000
740.120017	486.666667
742.398057	469.666667
744.677512	507.333333
746.956390	508.666667
749.234694	486.333333
751.508448	484.666667
753.783615	451.666667
756.058209	508.000000
758.330244	475.666667
760.603692	468.000000
762.874582	476.666667
765.142916	511.000000
767.412663	498.666667
769.679856	484.666667
771.946478	465.666667
774.212530	502.333333
776.476031	511.000000
778.740945	472.333333
781.005289	517.666667
783.265104	479.000000
785.526331	477.333333
787.786991	503.333333
790.045105	518.666667
792.300674	519.000000
794.559634	531.000000
796.812095	493.333333
799.069922	511.333333
801.323231	516.000000
803.574000	507.000000
805.826181	485.000000
808.075823	463.666667
810.326878	489.666667
812.573421	475.333333
814.821376	437.333333
817.066797	473.333333
819.313629	487.333333
821.559900	450.000000
823.801666	524.333333
826.046816	513.666667
828.285493	472.666667
830.527552	472.000000
832.765113	444.000000
835.004086	441.666667
837.240532	478.333333
839.478389	456.333333
841.713721	476.333333
843.946530	481.000000
846.180750	504.666667
848.412447	421.000000
850.643590	459.000000
852.874178	435.000000
855.104212	474.333333
857.333692	442.333333
859.558690	479.333333
861.787063	469.000000
864.010956	440.333333
866.236261	494.333333
868.457090	428.000000
870.681291	455.333333
872.901019	481.666667
875.122157	453.666667
877.342745	464.000000
879.560824	490.333333
881.780312	481.000000
883.995334	447.000000
886.209808	419.666667
888.423735	457.000000
890.637115	424.000000
892.849947	428.000000
895.062233	424.333333
897.272016	395.333333
899.481254	412.666667
901.689947	403.666667
903.896141	468.000000
906.103744	503.333333
908.308849	459.666667
910.513411	462.666667
912.715478	466.666667
914.918954	463.000000
917.119936	457.000000
919.320376	473.000000
921.522225	473.333333
923.717683	483.000000
925.916500	547.333333
928.110878	574.000000
930.308614	663.333333
932.501914	755.000000
934.696623	776.000000
936.888846	876.666667
939.080530	955.000000
941.271677	987.000000
943.460341	998.000000
945.648469	1016.666667
947.834116	1006.000000
950.023115	996.666667
952.207691	993.333333
954.391732	970.666667
956.579123	1048.000000
958.758210	1008.000000
960.940648	1005.333333
963.122552	1038.000000
965.301981	1067.000000
967.478938	1019.666667
969.657303	1061.000000
971.837075	1044.666667
974.010498	1053.666667
976.187267	1086.666667
978.359629	1043.666667
980.533399	1009.000000
982.702765	1057.333333
984.875475	1022.000000
987.045720	931.333333
989.215436	855.000000
991.384623	811.333333
993.549413	746.333333
995.717544	642.333333
997.881281	642.666667
1000.046424	608.666667
1002.209108	624.000000
1004.371267	596.000000
1006.530969	588.666667
1008.690146	529.333333
1010.850730	540.666667
1013.008859	537.000000
1015.166465	541.000000
1017.323547	563.666667
1019.480105	502.333333
1021.632284	477.333333
1023.785870	463.666667
1025.938934	440.333333
1028.089549	455.333333
1030.241571	440.666667
1032.389219	455.666667
1034.540199	406.333333
1036.686808	415.000000
1038.832898	388.000000
1040.978470	429.000000
1043.125447	397.333333
1045.266135	457.333333
1047.410153	468.333333
1049.551730	412.333333
1051.692791	436.000000
1053.835256	378.000000
1055.971442	450.666667
1058.110953	422.666667
1060.246110	405.000000
1062.384591	399.000000
1064.518718	431.666667
1066.652332	426.666667
1068.787351	391.000000
1070.918020	444.666667
1073.050094	406.666667
1075.179739	400.000000
1077.308872	421.000000
1079.437493	414.000000
1081.565603	406.333333
1083.691287	395.666667
1085.816461	411.000000
1087.943039	419.333333
1090.065279	405.000000
1092.188924	382.000000
1094.308234	403.333333
1096.432774	383.000000
1098.551068	364.000000
1100.670767	356.333333
1102.788047	392.333333
1104.904821	385.333333
1107.021088	396.333333
1109.134939	382.333333
1111.250195	391.000000
1113.361127	365.666667
1115.475372	364.666667
1117.585296	397.666667
1119.696624	339.333333
1121.807447	366.333333
1123.913954	366.333333
1126.023771	381.333333
1128.129273	368.333333
1130.236178	347.333333
1132.336868	372.333333
1134.442770	387.000000
1136.544363	362.666667
1138.647359	370.333333
1140.749854	346.666667
1142.846142	338.666667
1144.947637	380.000000
1147.044830	356.333333
1149.141525	330.000000
1151.237721	332.000000
1153.333420	355.333333
1155.428620	383.333333
1157.521424	389.666667
1159.615631	380.666667
1161.703646	406.333333
1163.796859	368.000000
1165.883884	369.000000
1167.974208	356.333333
1170.060244	335.333333
1172.149579	367.333333
1174.232732	392.666667
1176.317287	357.666667
1178.403244	368.333333
1180.484919	336.666667
1182.567996	364.000000
1184.648687	349.333333
1186.728886	331.000000
1188.808594	330.666667
1190.887811	314.333333
1192.964646	359.666667
1195.039100	366.000000
1197.116845	352.666667
1199.190321	347.000000
1201.265197	379.333333
1203.335806	336.333333
1205.407816	385.333333
1207.477451	332.333333
1209.548486	389.000000
1211.619033	315.666667
1213.685319	363.333333
1215.753006	342.666667
1217.818321	364.333333
1219.885036	340.333333
1221.947495	353.666667
1224.013239	332.333333
1226.074729	348.666667
1228.137620	326.333333
1230.198143	365.000000
1232.258182	371.000000
1234.317739	356.000000
1236.374930	345.000000
1238.431640	369.333333
1240.485986	372.000000
1242.543614	347.666667
1244.598879	342.000000
1246.649903	360.666667
1248.702327	321.666667
1250.754271	325.666667
1252.803857	348.333333
1254.852964	382.000000
1256.901593	361.000000
1258.949743	349.000000
1260.997414	351.666667
1263.040855	388.000000
1265.087572	321.666667
1267.131935	375.666667
1269.175822	370.666667
1271.217357	336.333333
1273.256543	336.000000
1275.299002	325.333333
1277.337238	356.333333
1279.376873	360.333333
1281.416033	326.000000
1283.450974	339.000000
1285.487314	341.333333
1287.521310	367.333333
1289.556703	359.333333
1291.587884	346.666667
1293.620462	358.000000
1295.652569	376.333333
1297.682335	336.333333
1299.713498	351.000000
1301.740455	374.666667
1303.768809	345.333333
1305.792958	355.000000
1307.820373	364.333333
1309.843585	361.333333
1311.868195	391.333333
1313.890471	342.000000
1315.914144	325.333333
1317.935484	344.333333
1319.956356	331.333333
1321.976761	375.333333
1323.992973	354.333333
1326.010582	342.666667
1328.025863	364.000000
1330.044403	356.333333
1332.058754	379.333333
1334.070779	372.333333
1336.086061	346.000000
1338.097158	390.666667
1340.109652	377.666667
1342.117963	400.333333
1344.129529	363.000000
1346.135057	421.666667
1348.143840	443.666667
1350.148445	450.000000
1352.156304	438.333333
1354.163701	424.666667
1356.165067	423.666667
1358.167829	424.333333
1360.170132	425.333333
1362.171975	403.000000
1364.173358	365.333333
1366.172428	394.666667
1368.171039	372.000000
1370.169192	362.666667
1372.166886	388.666667
1374.160418	360.666667
1376.155345	370.000000
1378.149816	395.666667
1380.143830	387.666667
1382.135537	362.000000
1384.126789	379.333333
1386.115735	325.000000
1388.106076	335.666667
1390.095962	399.333333
1392.083544	344.666667
1394.070673	340.333333
1396.055500	326.000000
1398.041722	359.666667
1400.025644	341.666667
1402.009113	349.333333
1403.992129	291.333333
1405.972848	346.000000
1407.954961	342.333333
1409.934778	342.000000
1411.914143	315.666667
1413.889370	294.000000
1415.867835	320.666667
1417.844007	331.333333
1419.819730	326.000000
1421.795003	325.666667
1423.767985	335.000000
1425.740519	313.333333
1427.712605	345.000000
1429.684244	337.333333
1431.651754	311.000000
1433.624338	290.666667
1435.589116	330.333333
1437.558967	326.666667
1439.524694	354.000000
1441.491813	346.333333
1443.456649	330.666667
1445.417365	390.000000
1447.383149	337.666667
1449.342978	361.666667
1451.304201	382.333333
1453.266816	336.666667
1455.225316	328.333333
1457.183373	357.000000
1459.140989	320.666667
1461.098162	342.333333
1463.053060	384.666667
1465.009351	351.666667
1466.963367	334.333333
1468.916942	323.333333
1470.868245	317.333333
1472.820941	299.666667
1474.771364	311.000000
1476.721349	345.000000
1478.670895	352.333333
1480.618172	326.333333
1482.563181	344.666667
1484.509583	326.666667
1486.455547	342.666667
1488.401074	309.333333
1490.344335	300.000000
1492.287161	321.000000
1494.227723	346.333333
1496.169676	330.333333
1498.109367	344.666667
1500.048624	368.000000
1501.987445	320.666667
1503.924007	337.333333
1505.861960	295.000000
1507.797654	320.333333
1509.732915	332.666667
1511.665920	334.666667
1513.598492	372.333333
1515.530632	360.666667
1517.462340	319.666667
1519.391794	333.000000
1521.322639	305.333333
1523.253052	348.666667
1525.179393	359.666667
1527.107125	333.000000
1529.032606	362.333333
1530.957658	335.333333
1532.882281	360.666667
1534.806475	375.666667
1536.728421	377.000000
1538.651758	332.333333
1540.572848	397.000000
1542.491694	379.666667
1544.411930	382.333333
1546.329923	419.333333
1548.247489	409.000000
1550.162813	383.666667
1552.079527	428.000000
1553.992186	423.000000
1555.908049	454.000000
1557.821672	475.333333
1559.733057	427.000000
1561.645832	492.000000
1563.554557	488.666667
1565.464671	526.333333
1567.374362	552.666667
1569.283630	639.666667
1571.190664	703.000000
1573.095465	785.000000
1575.001655	931.000000
1576.905613	1047.333333
1578.809150	1153.000000
1580.712267	1342.333333
1582.613154	1403.333333
1584.515430	1358.000000
1586.415478	1225.333333
1588.316913	1107.666667
1590.214315	1002.000000
1592.111298	874.000000
1594.007863	744.000000
1595.905816	631.333333
1597.797934	566.333333
1599.693245	556.000000
1601.588139	493.333333
1603.480811	474.000000
1605.373066	446.000000
1607.263102	438.000000
1609.152722	439.333333
1611.041927	379.666667
1612.930717	400.000000
1614.817289	412.333333
1616.705249	408.000000
1618.589192	376.333333
1620.474522	390.000000
1622.359439	378.666667
1624.242142	360.000000
1626.126232	371.666667
1628.006310	346.333333
1629.887776	315.666667
1631.767031	403.333333
1633.647672	348.666667
1635.522509	316.333333
1637.402327	324.666667
1639.278141	321.666667
1641.153544	324.666667
1643.030333	330.666667
1644.901326	295.000000
1646.775500	273.333333
1648.645675	324.000000
1650.519032	284.000000
1652.390184	285.000000
1654.259136	279.333333
1656.129472	309.000000
1657.995816	289.000000
1659.863545	288.333333
1661.729075	289.000000
1663.595991	270.666667
1665.458918	277.000000
1667.323230	340.333333
1669.185346	308.333333
1671.047057	287.666667
1672.910154	320.333333
1674.771055	291.000000
1676.629764	284.000000
1678.488069	263.333333
1680.347759	258.333333
1682.201681	264.333333
1684.058777	264.000000
1685.915470	256.666667
1687.768186	258.000000
1689.624074	260.666667
1691.475988	231.000000
1693.327501	235.666667
1695.178613	248.666667
1697.029325	216.333333
1698.879635	258.000000
1700.727762	256.333333
1702.577273	255.333333
1704.421035	255.000000
1706.269746	248.666667
1708.112711	242.666667
1709.958843	256.333333
1711.801012	242.000000
1713.646347	260.666667
1715.485941	228.666667
1717.326919	230.333333
1719.169280	241.000000
1721.007685	238.666667
1722.847473	247.000000
1724.685086	244.666667
1726.522303	244.333333
1728.357347	235.000000
1730.193774	234.666667
1732.028029	255.000000
1733.861889	243.000000
1735.695355	262.000000
1737.524876	248.000000
1739.357555	213.000000
1741.186290	255.666667
1743.018182	213.666667
1744.846132	243.666667
1746.673691	237.000000
1748.500857	245.333333
1750.327632	245.333333
1752.154015	236.000000
1753.976462	228.000000
1755.802064	240.333333
1757.623731	206.333333
1759.446780	275.000000
1761.267667	248.000000
1763.088166	218.000000
1764.910045	239.000000
1766.726226	203.000000
1768.545558	217.333333
1770.360963	250.000000
1772.179518	241.333333
1773.994148	272.000000
1775.808391	220.666667
1777.622248	221.000000
1779.435718	216.666667
1781.247035	221.666667
1783.059732	251.666667
1784.872044	211.333333
1786.680438	228.666667
1788.490212	252.333333
1790.296072	223.666667
1792.105077	241.666667
1793.910169	204.666667
1795.716642	231.000000
1797.522731	220.333333
1799.324909	234.333333
1801.130232	236.333333
1802.931646	193.000000
1804.734440	236.666667
1806.533328	253.000000
1808.333597	248.666667
1810.133484	229.666667
1811.931229	189.000000
1813.728594	220.000000
1815.525579	202.000000
1817.322183	239.666667
1819.116648	246.000000
1820.912492	238.333333
1822.702681	230.666667
1824.497767	186.666667
1826.287201	268.333333
1828.079771	246.666667
1829.870206	267.000000
1831.658507	210.333333
1833.449943	238.333333
1835.235733	253.333333
1837.022903	244.000000
1838.807941	233.666667
1840.596113	228.000000
1842.380399	234.666667
1844.162555	259.666667
1845.946091	272.000000
1847.727498	219.666667
1849.510284	254.333333
1851.289189	239.333333
1853.069474	241.333333
1854.847632	243.666667
1856.627169	274.000000
1858.404581	204.000000
1860.179869	211.666667
1861.956535	219.666667
1863.731079	220.000000
1865.507001	248.666667
1867.277302	238.000000
1869.050731	264.333333
1870.822040	256.666667
1872.592978	272.333333
1874.365294	267.666667
1876.131996	267.000000
1877.901824	273.333333
1879.667788	213.333333
1881.436875	218.000000
1883.202101	257.333333
1884.966959	230.000000
1886.733194	249.666667
1888.495570	248.000000
1890.257579	260.000000
1892.019220	237.666667
1893.780495	200.000000
1895.541402	206.000000
1897.301943	214.666667
1899.060374	210.000000
1900.818439	220.333333
1902.574397	220.666667
1904.331731	197.666667
1906.088700	253.000000
1907.843562	223.666667
1909.596320	216.000000
1911.348713	217.000000
1913.102483	206.000000
1914.854149	229.666667
1916.603713	221.000000
1918.354652	232.333333
1920.105229	231.666667
1921.851966	215.333333
1923.600080	218.000000
1925.346094	212.333333
1927.093483	250.000000
1928.838775	210.000000
1930.581969	213.333333
1932.326538	207.333333
1934.069012	192.666667
1935.811125	208.333333
1937.552878	211.333333
1939.294271	199.000000
1941.033571	216.666667
1942.772512	259.000000
1944.511094	209.333333
1946.247585	211.666667
1947.983718	215.500000
1949.721225	219.333333
1951.454910	236.333333
1953.189970	224.333333
1954.922941	218.000000
1956.655556	224.333333
1958.387815	199.333333
1960.119717	211.000000
1961.849533	204.333333
1963.577264	218.666667
1965.306370	229.333333
1967.035121	218.000000
1968.761788	203.666667
1970.488101	209.333333
1972.215787	224.000000
1973.937937	255.000000
1975.663188	254.666667
1977.384632	184.333333
1979.109177	243.000000
1980.831641	251.666667
1982.550303	210.333333
1984.272063	268.333333
1985.990021	263.333333
1987.709352	227.333333
1989.424884	229.333333
1991.145236	237.333333
1992.861790	221.333333
1994.574547	286.000000
1996.290400	293.666667
1998.004181	232.333333
1999.717612	206.000000
2001.428972	209.333333
2003.141704	221.666667
2004.850646	226.333333
2006.562680	233.000000
2008.269206	245.333333
2009.978823	238.000000
2011.686374	245.333333
2013.393576	229.333333
2015.098713	249.000000
2016.803504	248.000000
2018.509666	219.666667
2020.212046	228.666667
2021.915797	205.333333
2023.617486	213.666667
2025.318830	221.666667
2027.019828	221.000000
2028.718765	194.666667
2030.419074	250.666667
2032.115608	210.666667
2033.813513	213.666667
2035.509359	193.000000
2037.208291	209.333333
2038.901737	213.666667
2040.596554	190.666667
2042.291029	181.000000
2043.981735	218.333333
2045.675525	206.333333
2047.365548	221.666667
2049.056942	197.666667
2050.746283	175.333333
2052.436994	221.666667
2054.123942	200.000000
2055.810551	219.000000
2057.498529	192.333333
2059.182748	187.333333
2060.868338	190.666667
2062.553588	206.333333
2064.236789	195.000000
2065.921361	214.333333
2067.600470	215.000000
2069.284364	215.666667
2070.962797	195.666667
2072.644308	219.666667
2074.322067	183.333333
2075.999490	203.333333
2077.678282	225.666667
2079.355032	211.000000
2081.029740	214.000000
2082.705817	210.333333
2084.379853	228.000000
2086.053555	206.666667
2087.726921	235.000000
2089.398248	218.666667
2091.069241	208.333333
2092.739900	235.666667
2094.410225	198.666667
2096.080216	184.000000
2097.748171	211.666667
2099.415793	213.333333
2101.081380	211.000000
2102.748336	195.666667
2104.413259	214.666667
2106.077850	209.333333
2107.740409	237.333333
2109.404336	192.000000
2111.066232	209.000000
2112.727798	219.000000
2114.389032	231.333333
2116.048238	207.666667
2117.707113	214.000000
2119.365659	211.333333
2121.023874	212.333333
2122.678367	210.000000
2124.335924	194.666667
2125.993152	206.666667
2127.646658	211.666667
2129.301532	184.000000
2130.952687	185.333333
2132.606905	227.000000
2134.257406	213.333333
2135.909273	187.333333
2137.555732	166.333333
2139.206946	214.000000
2140.854446	201.333333
2142.503313	218.333333
2144.150161	189.666667
2145.796684	177.333333
2147.442881	217.666667
2149.085370	216.333333
2150.730917	203.333333
2152.372757	155.333333
2154.017654	203.000000
2155.658845	212.666667
2157.299714	195.333333
2158.940258	209.333333
2160.578790	192.666667
2162.218688	192.333333
2163.854886	213.000000
2165.492450	230.000000
2167.129692	198.666667
2168.764924	210.000000
2170.399835	190.666667
2172.034423	222.000000
2173.668691	227.333333
2175.299265	192.666667
2176.932891	170.666667
2178.562825	186.666667
2180.194124	198.333333
2181.823418	215.333333
2183.452393	193.333333
2185.081048	202.000000
2186.709384	208.000000
2188.335718	211.666667
2189.961733	186.666667
2191.585746	216.666667
2193.211125	178.666667
2194.834503	205.000000
2196.459246	216.000000
2198.080308	234.333333
2199.701053	193.666667
2201.323163	207.333333
2202.943275	231.000000
2204.561390	201.666667
2206.179190	214.666667
2207.796675	221.333333
2209.413844	189.333333
2211.030698	205.333333
2212.647236	183.333333
2214.261782	209.333333
2215.874335	231.666667
2217.488252	180.000000
2219.100178	174.000000
2220.713467	212.333333
2222.324766	232.000000
2223.934075	220.333333
2225.544748	209.333333
2227.153432	202.000000
2228.761803	230.333333
2230.368188	169.000000
2231.975936	236.666667
2233.581697	189.000000
2235.187147	216.666667
2236.790612	177.333333
2238.395440	166.000000
2239.998284	189.333333
2241.599145	200.666667
2243.201369	201.666667
2244.801611	187.666667
2246.403215	198.666667
2248.001166	172.666667
2249.600480	207.333333
2251.197814	187.666667
2252.794840	214.666667
2254.393228	206.666667
2255.987967	212.666667
2257.580729	186.666667
2259.174854	210.333333
2260.770340	194.333333
2262.362181	198.000000
2263.953716	220.666667
2265.546613	212.333333
2267.134200	226.666667
2268.726483	205.333333
2270.313460	174.333333
2271.903464	212.666667
2273.488164	195.666667
2275.077558	224.666667
2276.661650	166.666667
2278.247102	167.666667
2279.830586	229.000000
2281.417095	185.333333
2282.999971	173.000000
2284.582544	170.333333
2286.164813	190.333333
2287.743452	184.000000
2289.325116	182.666667
2290.903151	194.333333
2292.484209	170.000000
2294.061640	186.166667
2295.637108	202.333333
2297.215598	204.000000
2298.790464	181.666667
2300.365029	198.666667
2301.939294	196.000000
2303.513258	222.000000
2305.086921	208.666667
2306.660285	236.666667
2308.230030	179.666667
2309.799476	223.666667
2311.371940	178.000000
2312.939130	183.333333
2314.509338	203.000000
2316.075931	180.000000
2317.643884	187.333333
2319.209881	219.333333
2320.775581	201.666667
2322.340983	168.333333
2323.904432	187.000000
2325.469240	192.000000
2327.030440	202.666667
2328.594654	194.333333
2330.153606	226.666667
2331.715573	180.666667
2333.275588	154.666667
2334.835309	200.333333
2336.393080	209.333333
2337.950556	187.000000
2339.507738	186.666667
2341.062972	181.333333
2342.617913	185.666667
2344.172559	203.000000
2345.726912	204.666667
2347.280972	188.333333
2348.834737	166.666667
2350.386558	192.000000
2351.936437	211.333333
2353.489323	215.000000
2355.036966	193.000000
2356.587618	193.666667
2358.134678	171.666667
2359.683096	199.000000
2361.231223	185.666667
2362.775761	178.666667
2364.321657	211.333333
2365.865615	189.333333
2367.410930	176.333333
2368.952660	130.333333
2370.495747	200.666667
2372.036898	169.000000
2373.577760	167.666667
2375.118333	186.000000
2376.658617	194.666667
2378.198612	191.666667
2379.735029	210.000000
2381.274447	162.666667
2382.810287	168.333333
2384.347485	172.000000
2385.881107	161.666667
2387.417729	193.666667
2388.952421	179.666667
2390.485183	179.000000
2392.017658	205.333333
2393.548205	202.000000
2395.081750	178.000000
2396.610084	208.333333
2398.139774	205.666667
2399.669179	187.000000
2401.198299	192.333333
2402.727134	213.666667
2404.250763	196.000000
2405.779028	146.666667
2407.302091	212.000000
2408.829787	181.333333
2410.350644	215.666667
2411.876134	222.000000
2413.398063	210.000000
2414.921348	182.000000
2416.442711	178.000000
2417.962155	196.666667
2419.482954	223.666667
2421.001835	234.666667
2422.520433	241.666667
2424.037114	207.333333
2425.555149	170.333333
2427.072903	196.333333
2428.587106	173.000000
2430.101028	244.333333
2431.614670	236.333333
2433.129667	203.666667
2434.641115	212.000000
2436.153918	246.000000
2437.664807	183.666667
2439.175418	242.333333
2440.684117	216.333333
2442.195802	229.333333
2443.703944	216.333333
2445.211808	260.666667
2446.719394	280.666667
2448.223439	276.333333
2449.730469	284.000000
2451.235591	263.333333
2452.740436	311.666667
2454.243374	284.000000
2455.746036	298.333333
2457.248421	329.000000
2458.748901	327.000000
2460.250734	250.666667
2461.750662	295.666667
2463.250315	250.666667
2464.749693	285.333333
2466.247168	251.333333
2467.742741	273.666667
2469.241294	253.000000
2470.736319	236.000000
2472.232696	239.000000
2473.725547	218.333333
2475.219751	207.666667
2476.713681	258.000000
2478.204087	211.666667
2479.697471	248.000000
2481.188957	238.000000
2482.678546	205.333333
2484.167863	192.666667
2485.655284	258.000000
2487.145681	202.666667
2488.632560	208.333333
2490.120790	233.333333
2491.605503	223.666667
2493.089947	189.666667
2494.575741	190.000000
2496.059644	189.666667
2497.544897	206.666667
2499.025017	218.333333
2500.508110	177.000000
2501.989312	224.333333
2503.470245	228.666667
2504.949289	218.666667
2506.428064	208.000000
2507.906571	193.666667
2509.384810	193.000000
2510.862780	182.666667
2512.337245	195.666667
2513.814680	192.000000
2515.288611	172.333333
2516.763892	185.333333
2518.238906	156.666667
2519.710419	157.333333
2521.183283	184.333333
2522.654264	168.666667
2524.126595	209.000000
2525.593812	210.666667
2527.063996	202.666667
2528.532299	199.333333
2530.000337	200.333333
2531.468110	151.666667
2532.935618	175.333333
2534.402861	175.666667
2535.866612	175.000000
2537.331713	174.333333
2538.794937	197.666667
2540.259510	210.333333
2541.720595	187.666667
2543.183029	210.666667
2544.645200	196.000000
2546.103885	204.333333
2547.567141	175.000000
2549.025302	177.000000
2550.484811	161.333333
2551.939226	208.333333
2553.398212	207.000000
2554.855326	174.000000
2556.310569	201.000000
2557.765550	192.333333
2559.218663	204.000000
2560.673124	222.333333
2562.125715	192.333333
2563.578047	173.000000
2565.028512	174.666667
2566.481932	212.666667
2567.930270	179.333333
2569.381563	187.666667
2570.830991	226.000000
2572.276946	188.000000
2573.725856	233.333333
2575.171296	211.000000
2576.618083	184.333333
2578.063008	211.333333
2579.507674	171.666667
2580.953688	185.666667
2582.396236	230.333333
2583.840131	240.666667
2585.280561	186.000000
2586.722338	206.000000
2588.162256	209.333333
2589.603521	190.000000
2591.041324	236.000000
2592.482077	199.333333
2593.917768	177.333333
2595.356408	241.000000
2596.793190	217.666667
2598.228117	193.666667
2599.665991	203.666667
2601.098808	198.333333
2602.532972	204.000000
2603.965282	226.000000
2605.398938	212.333333
2606.830741	207.666667
2608.262290	247.000000
2609.693587	220.000000
2611.123031	208.666667
2612.552223	244.000000
2613.979565	230.333333
2615.408252	208.333333
2616.836688	229.666667
2618.261676	210.333333
2619.688011	222.666667
2621.112497	233.333333
2622.538329	240.666667
2623.960717	266.666667
2625.384451	230.000000
2626.806338	253.000000
2628.227976	260.333333
2629.647768	268.333333
2631.068906	273.333333
2632.489794	226.000000
2633.907244	304.333333
2635.327633	270.333333
2636.744585	296.000000
2638.161288	343.000000
2639.577743	292.333333
2640.993950	351.000000
2642.409909	321.000000
2643.824027	345.000000
2645.237897	367.000000
2646.649929	380.333333
2648.063304	375.000000
2649.473250	429.333333
2650.886132	427.666667
2652.295585	441.000000
2653.704792	436.333333
2655.112163	528.000000
2656.522468	512.666667
2657.930938	548.333333
2659.337572	587.666667
2660.743961	649.666667
2662.148516	685.666667
2663.554415	753.666667
2664.958481	801.333333
2666.362302	846.333333
2667.765879	884.000000
2669.167625	1034.666667
2670.570714	1218.000000
2671.970385	1250.333333
2673.371400	1318.000000
2674.768999	1496.666667
2676.169527	1588.666667
2677.566641	1767.333333
2678.965098	1830.666667
2680.361728	1929.000000
2681.758115	1956.666667
2683.154260	2071.333333
2684.548579	2099.666667
2685.944241	2105.000000
2687.336494	1983.666667
2688.730089	2029.333333
2690.121860	1985.666667
2691.514974	1917.000000
2692.906264	1742.666667
2694.295731	1709.333333
2695.684958	1579.000000
2697.073946	1501.333333
2698.464275	1360.333333
2699.849621	1276.000000
2701.237890	1154.333333
2702.624339	1084.333333
2704.010549	972.000000
2705.396520	938.666667
2706.779093	809.000000
2708.163008	807.333333
2709.546685	690.000000
2710.930123	659.000000
2712.310167	644.666667
2713.691551	568.000000
2715.071121	520.000000
2716.452031	505.666667
2717.831127	484.333333
2719.208409	484.333333
2720.587032	434.666667
2721.963842	414.000000
2723.340415	401.333333
2724.716753	370.333333
2726.091280	370.000000
2727.467147	330.666667
2728.839627	351.000000
2730.215023	345.000000
2731.585459	302.333333
2732.957236	307.333333
2734.328778	308.666667
2735.698512	260.333333
2737.069587	258.666667
2738.438853	267.333333
2739.807886	250.666667
2741.175113	240.000000
2742.542106	257.333333
2743.908867	270.666667
2745.275396	238.333333
2746.640119	223.666667
2748.004610	273.000000
2749.368870	243.666667
2750.732897	217.666667
2752.096693	213.666667
2753.457115	209.000000
2754.820447	227.666667
2756.178837	189.333333
2757.540137	192.666667
2758.898067	210.666667
2760.258905	187.666667
2761.617944	171.000000
2762.973614	237.000000
2764.332192	179.666667
2765.687403	215.333333
2767.042385	192.000000
2768.395571	178.000000
2769.751662	199.666667
2771.104390	199.333333
2772.456890	217.333333
2773.809161	187.333333
2775.162770	173.000000
2776.513019	204.333333
2777.861473	186.333333
2779.212833	208.666667
2780.560833	200.000000
2781.910171	150.000000
2783.257717	201.333333
2784.605037	175.333333
2785.952130	206.333333
2787.297432	189.666667
2788.642507	217.666667
2789.987357	166.333333
2791.331981	197.000000
2792.673253	213.666667
2794.015863	189.333333
2795.358247	183.000000
2796.700406	173.666667
2798.039216	171.000000
2799.380926	196.333333
2800.719288	169.333333
2802.058986	181.333333
2803.396900	144.333333
2804.733029	155.666667
2806.068934	161.000000
2807.406177	207.666667
2808.741636	200.333333
2810.076872	182.333333
2811.410325	175.666667
2812.745115	185.333333
2814.076565	176.000000
2815.410910	180.333333
2816.740357	215.666667
2818.071141	190.333333
2819.401703	178.666667
2820.730486	182.666667
2822.060605	164.000000
2823.388946	171.666667
2824.717066	200.666667
2826.043408	210.000000
2827.371087	171.000000
2828.695432	173.333333
2830.021114	182.333333
2831.345020	165.000000
2832.668707	176.000000
2833.993729	169.666667
2835.315421	149.000000
2836.636895	160.000000
2837.958150	154.666667
2839.279186	186.000000
2840.598449	162.000000
2841.919048	180.333333
2843.237876	177.666667
2844.556485	141.333333
2845.873323	153.000000
2847.189944	176.333333
2848.506348	141.666667
2849.820982	142.333333
2851.136952	170.333333
2852.449601	149.000000
2853.763585	158.666667
2855.077353	171.333333
2856.390904	176.000000
2857.702689	136.666667
2859.012707	129.666667
2860.324060	182.666667
2861.632098	160.666667
2862.941470	142.000000
2864.250628	157.333333
2865.559570	147.333333
2866.866748	128.333333
2868.172164	165.666667
2869.478913	120.000000
2870.783901	151.666667
2872.088675	181.000000
2873.391687	152.666667
2874.697580	157.333333
2875.998619	177.333333
2877.300992	172.333333
2878.601605	137.333333
2879.903552	133.333333
2881.205285	142.000000
2882.503715	158.333333
2883.803478	144.333333
2885.101484	151.666667
2886.399278	151.333333
2887.695316	146.333333
2888.992687	133.333333
2890.288302	160.666667
2891.583706	162.333333
2892.878899	162.666667
2894.170795	124.666667
2895.465567	135.000000
2896.757042	154.333333
2898.049850	129.333333
2899.342448	111.333333
2900.631752	172.666667
2901.922388	134.000000
2903.211273	171.000000
2904.501490	131.666667
2905.788416	142.333333
2907.076674	176.666667
2908.363183	152.666667
2909.649483	139.000000
2910.935576	167.666667
2912.219920	136.333333
2913.507135	141.666667
2914.789524	139.000000
2916.073245	112.000000
2917.355220	119.000000
2918.636987	128.000000
2919.917010	124.000000
2921.199902	141.333333
2922.481049	110.000000
2923.758914	158.666667
2925.039648	145.666667
2926.317101	124.666667
2927.594348	161.666667
2928.869853	145.666667
2930.148226	143.333333
2931.421785	139.666667
2932.698211	144.333333
2933.972896	139.666667
2935.245840	132.333333
2936.520116	139.000000
2937.792652	150.000000
2939.064983	141.000000
2940.334042	140.333333
2941.605966	118.666667
2942.876152	130.000000
2944.146134	158.333333
2945.415913	156.000000
2946.683956	150.333333
2947.950262	122.000000
2949.216367	168.333333
2950.483801	135.333333
2951.749501	156.000000
2953.014998	143.000000
2954.280293	142.666667
2955.542323	143.666667
2956.805683	128.666667
2958.068842	139.333333
2959.330269	136.666667
2960.593025	124.666667
2961.854049	163.666667
2963.113343	142.666667
2964.372437	98.000000
2965.631330	157.666667
2966.890023	108.000000
2968.148516	137.333333
2969.405280	134.000000
2970.661844	131.000000
2971.916681	103.333333
2973.172846	128.000000
2974.425757	122.333333
2975.679997	129.666667
2976.934037	115.666667
2978.186353	129.000000
2979.438469	124.000000
2980.688861	130.000000
2981.942108	152.000000
2983.190578	121.666667
2984.441903	137.666667
2985.689978	118.000000
2986.937857	125.666667
2988.185538	118.000000
2989.433022	142.333333
2990.678785	165.333333
2991.924352	136.666667
2993.171246	131.333333
2994.414896	118.000000
2995.659874	158.000000
2996.901608	105.000000
2998.146194	109.666667
2999.389061	133.333333
3000.628687	131.333333
3001.871163	120.666667
3003.110399	116.333333
3004.350963	103.000000
3005.589810	134.000000
3006.828463	113.000000
3008.065400	111.666667
3009.303665	125.000000
3010.540214	113.000000
3011.776570	158.333333
3013.012732	151.333333
3014.247180	124.666667
3015.481436	109.000000
3016.715498	103.666667
3017.947848	121.000000
3019.178486	108.666667
3020.411970	128.333333
3021.643742	100.666667
3022.873804	120.000000
3024.103673	131.666667
3025.331833	129.666667
3026.561320	133.333333
3027.789097	140.333333
3029.016683	145.666667
3030.245596	133.666667
3031.469766	146.333333
3032.696779	96.000000
3033.920568	94.000000
3035.145684	137.333333
3036.369093	125.000000
3037.592312	122.000000
3038.813826	94.666667
3040.038181	129.000000
3041.257801	146.333333
3042.478747	103.333333
3043.699504	125.666667
3044.918557	127.666667
3046.138935	129.000000
3047.356097	128.666667
3048.574585	127.666667
3049.791370	120.000000
3051.007968	125.333333
3052.224377	130.333333
3053.437574	86.000000
3054.653608	92.666667
3055.866430	90.666667
3057.082089	121.000000
3058.293025	136.000000
3059.505286	123.666667
3060.717361	113.000000
3061.929248	125.666667
3063.139439	132.333333
3064.349443	142.000000
3065.559261	99.333333
3066.767383	93.333333
3067.975320	117.666667
3069.181561	83.333333
3070.389127	123.333333
3071.594998	105.500000
3072.800685	87.666667
3074.006186	115.666667
3075.209994	83.333333
3076.415126	99.000000
3077.618565	84.000000
3078.820313	122.000000
3080.021876	132.000000
3081.223256	88.666667
3082.424452	116.333333
3083.623958	99.000000
3084.823281	60.666667
3086.023927	101.666667
3087.222883	122.666667
3088.418645	143.000000
3089.617236	117.333333
3090.812633	106.333333
3092.009353	117.666667
3093.202881	80.333333
3094.399237	89.666667
3095.593907	117.333333
3096.785385	104.666667
3097.981196	107.000000
3099.172312	70.333333
3100.364752	122.333333
3101.554004	100.000000
3102.746081	116.666667
3103.936475	93.000000
3105.123683	112.666667
3106.312213	113.666667
3107.502066	118.000000
3108.688735	77.666667
3109.875223	155.000000
3111.061533	88.000000
3112.249164	130.000000
3113.433613	88.333333
3114.616383	105.000000
3115.801975	127.000000
3116.985888	70.333333
3118.168122	113.333333
3119.350177	150.333333
3120.532054	134.666667
3121.713753	105.000000
3122.893775	97.000000
3124.072120	88.000000
3125.253285	131.666667
3126.431275	106.333333
3127.609089	85.000000
3128.786725	110.333333
3129.962686	104.000000
3131.138470	138.666667
3132.315576	86.333333
3133.491007	105.666667
3134.664765	113.666667
3135.836850	94.666667
3137.010257	95.333333
3138.183487	65.666667
3139.355046	116.000000
3140.527925	131.000000
3141.697637	65.000000
3142.868670	95.333333
3144.038033	121.000000
3145.205725	100.000000
3146.376233	97.666667
3147.542083	100.333333
3148.712241	102.666667
3149.877743	73.333333
3151.043070	82.000000
3152.208224	97.333333
3153.373205	89.000000
3154.539505	74.000000
3155.701153	69.000000
3156.864120	115.666667
3158.026915	103.333333
3159.189537	102.333333
3160.350494	89.666667
3161.511278	103.000000
3162.671890	115.666667
3163.830838	64.000000
3164.989615	110.000000
3166.148220	125.666667
3167.306652	89.333333
3168.464914	79.333333
3169.621513	121.333333
3170.776451	128.333333
3171.932708	106.333333
3173.087304	89.333333
3174.241730	118.000000
3175.394496	105.666667
3176.547091	127.666667
3177.699517	87.333333
3178.851773	135.000000
3180.003858	116.666667
3181.152798	93.666667
3182.304544	99.333333
3183.454632	92.666667
3184.603064	96.000000
3185.751326	124.000000
3186.899420	94.333333
3188.047345	100.000000
3189.193614	86.333333
3190.339715	109.666667
3191.484162	95.333333
3192.628441	82.666667
3193.772552	114.000000
3194.917980	77.000000
3196.060270	101.000000
3197.202393	82.333333
3198.344348	99.333333
3199.486136	82.333333
3200.627757	97.333333
3201.766243	98.333333
3202.906046	118.666667
3204.047167	79.333333
3205.185153	78.333333
3206.321490	117.000000
3207.457661	107.000000
3208.595149	79.333333
3209.730989	103.000000
3210.868146	93.333333
3212.000690	84.333333
3213.137516	90.000000
3214.269730	111.000000
3215.403261	104.000000
3216.536628	68.666667
3217.666867	123.000000
3218.799904	108.333333
3219.929815	105.666667
3221.061042	105.000000
3222.189145	95.000000
3223.320044	138.333333
3224.449299	108.000000
3225.576911	101.666667
3226.701400	134.333333
3227.830165	111.000000
3228.955808	137.333333
3230.081289	162.666667
3231.205128	105.666667
3232.331761	115.666667
3233.453797	139.666667
3234.577149	140.000000
3235.700339	145.666667
3236.823366	155.666667
3237.944755	145.666667
3239.065981	138.333333
3240.185570	151.000000
3241.304997	148.000000
3242.422786	148.000000
3243.543367	128.333333
3244.660835	139.666667
3245.778142	191.333333
3246.895289	137.333333
3248.010800	154.666667
3249.127625	135.666667
3250.241341	130.000000
3251.357846	152.666667
3252.472717	135.666667
3253.584479	127.000000
3254.696081	111.666667
3255.808999	112.666667
3256.921757	72.333333
3258.031409	95.000000
3259.142376	101.000000
3260.253184	94.000000
3261.362360	105.333333
3262.469906	121.000000
3263.578765	99.333333
3264.687467	91.333333
3265.793066	108.333333
3266.899979	95.000000
3268.005263	84.000000
3269.111861	105.000000
3270.215359	78.000000
3271.320172	74.333333
3272.424827	99.666667
3273.526383	82.333333
3274.627783	112.000000
3275.730497	144.000000
3276.833055	76.666667
3277.932516	89.000000
3279.034761	57.666667
3280.133910	99.000000
3281.231435	98.000000
3282.328804	105.333333
3283.428955	105.000000
3284.526014	89.000000
3285.622917	101.666667
3286.719665	98.666667
3287.811855	74.000000
3288.908293	56.666667
3290.003109	90.666667
3291.097771	116.333333
3292.190811	74.666667
3293.283696	87.333333
3294.374962	85.000000
3295.467539	72.333333
3296.558497	80.000000
3297.647835	68.333333
3298.737020	111.000000
3299.827518	130.333333
3300.914931	62.333333
3302.002191	67.000000
3303.090764	112.333333
3304.179185	89.000000
3305.263058	71.000000
3306.351173	55.000000
3307.436206	68.000000
3308.519624	51.000000
3309.604354	61.666667
3310.687468	81.666667
3311.771895	99.666667
3312.853243	93.000000
3313.935903	93.333333
3315.016949	81.666667
3316.097844	66.666667
3317.177125	90.666667
3318.256256	68.666667
3319.336699	91.000000
3320.414067	60.000000
3321.492747	73.333333
3322.569815	74.000000
3323.646734	63.000000
3324.722041	98.666667
3325.797199	94.666667
3326.873668	82.666667
3327.947067	94.000000
3329.020317	80.666667
3330.094877	93.333333
3331.167829	77.000000
3332.239172	93.333333
3333.311826	106.000000
3334.381414	87.000000
3335.452312	98.000000
3336.521603	73.333333
3337.592205	79.000000
3338.661200	116.000000
3339.728589	67.666667
3340.794373	87.333333
3341.864383	71.666667
3342.931330	110.333333
3343.995215	85.333333
3345.061868	90.666667
3346.126916	91.000000
3347.190361	116.333333
3348.253660	67.333333
3349.316812	93.333333
3350.379818	100.333333
3351.442678	86.666667
3352.503936	92.666667
3353.562137	87.333333
3354.624558	71.666667
3355.683924	65.333333
3356.743144	72.666667
3357.803673	60.000000
3358.859694	92.000000
3359.918478	70.000000
3360.972755	138.000000
3362.029796	82.666667
3363.085238	75.666667
3364.141990	98.333333
3365.197143	62.333333
3366.250699	98.666667
3367.302659	46.000000
3368.357380	115.666667
3369.409052	64.000000
3370.460581	85.000000
3371.513418	96.000000
3372.563208	52.333333
3373.614307	98.666667
3374.662360	71.333333
3375.713172	71.333333
3376.760940	82.333333
3377.808565	57.666667
3378.856047	88.000000
3379.901937	76.666667
3380.949135	75.000000
3381.993291	94.666667
3383.040205	76.666667
3384.085527	66.666667
3385.127808	89.333333
3386.169949	67.000000
3387.213397	58.333333
3388.256704	89.666667
3389.298422	87.000000
3390.339998	82.333333
3391.381433	91.333333
3392.421280	55.333333
3393.459538	101.666667
3394.499104	72.333333
3395.538530	91.000000
3396.576368	81.000000
3397.612619	63.333333
3398.648731	61.666667
3399.686150	61.666667
3400.720536	74.333333
3401.756229	106.666667
3402.791783	63.666667
3403.824306	110.666667
3404.859582	89.333333
3405.891827	72.000000
3406.923934	83.000000
3407.954457	72.666667
3408.986287	49.666667
3410.017979	95.666667
3411.046643	75.666667
3412.075170	88.666667
3413.105003	78.000000
3414.134699	82.333333
3415.161369	44.333333
3416.189346	82.666667
3417.214298	58.333333
3418.242000	72.333333
3419.266679	62.000000
3420.292664	59.666667
3421.317069	108.000000
3422.341338	70.000000
3423.364028	80.333333
3424.386582	85.666667
3425.410442	86.666667
3426.431282	51.666667
3427.451986	70.000000
3428.473997	81.000000
3429.492989	59.000000
3430.511845	91.333333
3431.532008	83.000000
3432.549154	52.666667
