-116.707459	-16.000000
-114.037859	-4.000000
-111.371194	-1.333333
-108.705281	28.666667
-106.042300	25.000000
-103.377890	1.333333
-100.716410	-7.333333
-98.053501	-3.000000
-95.395698	9.333333
-92.736466	17.666667
-90.077982	-9.000000
-87.422422	14.000000
-84.765434	9.666667
-82.113544	-7.000000
-79.460224	27.000000
-76.809823	33.666667
-74.157993	-7.333333
-71.511254	20.000000
-68.863086	18.000000
-66.215660	-0.333333
-63.571148	15.000000
-60.925208	-9.000000
-58.284349	13.666667
-55.642061	2.000000
-53.002682	11.333333
-50.361873	-5.000000
-47.721805	19.333333
-45.086809	27.666667
-42.450385	-9.000000
-39.816863	-5.000000
-37.181913	10.333333
-34.552028	7.333333
-31.918551	-7.666667
-29.290136	20.333333
-26.662455	13.666667
-24.033345	-26.333333
-21.409292	21.333333
-18.781650	9.666667
-16.159061	31.333333
-13.537204	60.666667
-10.916077	79.333333
-8.295680	270.000000
-5.678172	832.000000
-3.059235	2735.333333
-0.443183	7453.666667
2.172140	13122.666667
4.786736	5592.666667
7.398449	561.000000
10.011591	89.666667
12.619699	100.666667
15.231389	41.000000
17.838048	28.000000
20.446135	21.000000
23.053498	32.666667
25.655836	54.333333
28.261752	29.000000
30.862646	-5.333333
33.464968	-0.333333
36.062273	44.000000
38.663153	6.333333
41.259018	-11.333333
43.856312	-11.666667
46.452886	7.333333
49.044451	25.666667
51.637444	27.666667
54.227576	21.000000
56.819136	20.000000
59.407836	16.333333
61.997963	21.666667
64.583091	-12.333333
67.169647	-20.000000
69.755489	-15.666667
72.338477	20.333333
74.922891	22.000000
77.500177	9.333333
80.081029	11.333333
82.659032	39.333333
85.236325	39.000000
87.815044	15.000000
90.388781	29.000000
92.963946	33.333333
95.536267	26.000000
98.107880	2.666667
100.676653	20.666667
103.246853	-1.333333
105.814215	29.333333
108.383002	-2.333333
110.948953	37.333333
113.512069	-8.666667
116.078741	38.333333
118.636192	-2.333333
121.199328	25.333333
123.757504	50.000000
126.319235	50.333333
128.876009	72.333333
131.434210	103.666667
133.987457	154.000000
136.540007	291.333333
139.096107	370.333333
141.647259	487.333333
144.197714	626.666667
146.747471	710.666667
149.294409	760.666667
151.840652	820.000000
154.388320	870.000000
156.935292	805.000000
159.477329	834.333333
162.018672	817.000000
164.559322	819.333333
167.101398	792.333333
169.640662	779.000000
172.177118	817.000000
174.712882	798.000000
177.250072	830.333333
179.786571	832.000000
182.320264	843.000000
184.851153	742.666667
187.381355	744.000000
189.912981	810.666667
192.441806	698.000000
194.967832	775.666667
197.493172	794.333333
200.019937	793.000000
202.543906	774.000000
205.067190	812.333333
207.589789	813.666667
210.109595	813.666667
212.628718	804.000000
215.147158	856.666667
217.667022	812.666667
220.179885	808.000000
222.696279	809.666667
225.211991	807.666667
227.722813	845.333333
230.235060	888.000000
232.744525	819.000000
235.253311	856.666667
237.761418	861.333333
240.270950	829.333333
242.775601	863.666667
245.279576	867.333333
247.784975	855.666667
250.285499	864.000000
252.789547	873.333333
255.286623	912.000000
257.787223	837.333333
260.285051	803.000000
262.782206	898.333333
265.278688	844.000000
267.770307	862.666667
270.265446	848.666667
272.757818	877.333333
275.249520	839.666667
277.738459	802.000000
280.228822	847.333333
282.716422	866.333333
285.201263	893.333333
287.689619	899.666667
290.171035	877.000000
292.655965	967.666667
295.136050	938.666667
297.619647	948.666667
300.098401	955.000000
302.578579	980.666667
305.056004	978.000000
307.532766	1003.000000
310.008865	976.666667
312.482215	925.000000
314.954903	968.000000
317.426930	935.333333
319.898296	952.333333
322.366917	992.666667
324.834880	934.666667
327.304264	899.666667
329.768826	889.333333
332.236892	838.333333
334.700138	807.666667
337.162726	856.333333
339.624658	804.333333
342.085933	812.000000
344.544474	794.333333
347.004437	779.333333
349.461667	782.666667
351.918243	782.666667
354.374165	765.000000
356.827357	832.333333
359.281972	746.333333
361.731785	794.333333
364.185094	701.666667
366.633605	698.666667
369.081464	734.666667
371.530746	725.000000
373.975234	687.000000
376.421144	711.000000
378.866404	699.000000
381.308946	665.000000
383.750840	691.666667
386.192087	686.666667
388.630618	634.333333
391.070571	638.000000
393.507810	648.333333
395.942337	673.333333
398.380352	646.333333
400.813590	616.000000
403.248249	627.000000
405.678136	655.333333
408.111508	637.333333
410.540110	630.000000
412.968070	662.000000
415.397452	627.000000
417.822068	650.333333
420.248106	617.333333
422.673503	600.666667
425.098260	609.000000
427.518259	584.666667
429.939679	622.000000
432.358402	602.333333
434.778546	657.666667
437.195995	588.333333
439.614864	562.000000
442.031040	550.333333
444.442468	542.000000
446.857374	506.666667
449.269589	522.000000
451.681170	513.333333
454.092117	510.000000
456.500378	546.000000
458.908006	488.666667
461.315002	470.333333
463.721367	456.000000
466.125049	461.666667
468.528101	488.000000
470.930523	472.666667
473.332315	467.666667
475.731430	434.666667
478.131964	484.333333
480.531869	463.666667
482.927051	451.000000
485.325700	462.333333
487.719629	534.000000
490.112932	506.666667
492.505609	544.000000
494.897661	638.333333
497.291131	674.000000
499.679889	759.000000
502.065981	908.000000
504.453493	1149.666667
506.840382	1497.666667
509.224607	2089.000000
511.610250	3118.333333
513.993232	4236.666667
516.373553	5636.333333
518.755293	6632.666667
521.134374	6621.333333
523.514874	5967.666667
525.892716	4963.666667
528.267903	4086.333333
530.642472	3360.666667
533.018459	2913.000000
535.391794	2506.000000
537.766546	2260.333333
540.136613	2086.000000
542.506064	1827.333333
544.876933	1649.333333
547.243122	1548.666667
549.610729	1453.666667
551.975690	1390.000000
554.340038	1263.333333
556.703773	1220.666667
559.068926	1159.666667
561.429407	1122.000000
563.791306	1110.333333
566.150564	1091.333333
568.507185	1006.333333
570.867250	991.333333
573.220624	977.000000
575.577443	943.000000
577.931627	938.000000
580.285202	889.333333
582.638170	887.333333
584.988505	826.333333
587.340258	834.000000
589.685334	756.666667
592.035874	772.666667
594.379740	747.000000
596.729068	747.333333
599.073747	719.666667
601.415802	770.000000
603.759274	718.333333
606.100123	708.333333
608.440370	699.333333
610.777996	714.000000
613.119057	785.000000
615.455480	785.333333
617.793320	798.666667
620.128543	834.666667
622.461150	807.333333
624.795173	772.000000
627.126582	745.666667
629.457393	754.333333
631.787607	664.000000
634.117222	714.000000
636.442214	678.000000
638.772648	699.000000
641.098461	647.666667
643.421666	657.333333
645.746288	672.666667
648.068304	611.000000
650.389726	651.333333
652.708546	620.666667
655.028781	656.000000
657.348423	642.333333
659.665464	609.000000
661.981913	603.333333
664.295764	609.666667
666.611031	641.000000
668.923701	614.333333
671.237786	612.000000
673.547271	633.000000
675.858172	632.333333
678.166480	587.333333
680.474200	587.333333
682.783334	575.666667
685.087876	582.666667
687.391832	546.666667
689.695202	599.333333
691.999986	546.000000
694.300184	547.000000
696.601796	509.333333
698.902823	481.000000
701.199269	516.333333
703.497130	503.666667
705.794407	497.333333
708.091101	488.000000
710.383219	515.333333
712.678748	491.666667
714.969703	461.666667
717.262073	455.666667
719.551868	495.333333
721.841082	481.333333
724.129717	433.666667
726.415779	492.333333
728.703256	508.333333
730.988161	465.333333
733.272489	467.000000
735.554248	447.666667
737.837421	461.000000
740.120017	467.333333
742.398057	467.666667
744.677512	456.666667
746.956390	469.666667
749.234694	466.666667
751.508448	495.666667
753.783615	454.666667
756.058209	431.333333
758.330244	482.666667
760.603692	451.333333
762.874582	448.666667
765.142916	482.000000
767.412663	476.666667
769.679856	458.000000
771.946478	487.333333
774.212530	487.666667
776.476031	442.000000
778.740945	460.000000
781.005289	487.333333
783.265104	496.333333
785.526331	479.666667
787.786991	460.000000
790.045105	464.000000
792.300674	453.000000
794.559634	478.000000
796.812095	460.000000
799.069922	465.333333
801.323231	467.333333
803.574000	452.666667
805.826181	456.333333
808.075823	452.000000
810.326878	435.000000
812.573421	444.333333
814.821376	473.666667
817.066797	482.333333
819.313629	462.333333
821.559900	487.666667
823.801666	418.000000
826.046816	458.333333
828.285493	504.333333
830.527552	456.000000
832.765113	486.666667
835.004086	432.000000
837.240532	471.000000
839.478389	424.666667
841.713721	485.000000
843.946530	419.666667
846.180750	439.666667
848.412447	431.333333
850.643590	464.333333
852.874178	461.666667
855.104212	446.000000
857.333692	432.333333
859.558690	475.333333
861.787063	485.000000
864.010956	467.333333
866.236261	440.333333
868.457090	390.333333
870.681291	435.000000
872.901019	422.000000
875.122157	435.666667
877.342745	416.333333
879.560824	468.333333
881.780312	424.666667
883.995334	440.666667
886.209808	420.666667
888.423735	430.333333
890.637115	428.000000
892.849947	376.333333
895.062233	398.000000
897.272016	410.666667
899.481254	409.000000
901.689947	433.000000
903.896141	428.333333
906.103744	450.333333
908.308849	400.000000
910.513411	442.666667
912.715478	470.666667
914.918954	462.000000
917.119936	449.666667
919.320376	468.000000
921.522225	458.666667
923.717683	496.333333
925.916500	535.666667
928.110878	622.000000
930.308614	658.666667
932.501914	731.333333
934.696623	797.333333
936.888846	860.000000
939.080530	939.666667
941.271677	967.333333
943.460341	1017.333333
945.648469	998.333333
947.834116	1004.333333
950.023115	987.333333
952.207691	945.333333
954.391732	988.333333
956.579123	960.666667
958.758210	996.666667
960.940648	962.000000
963.122552	997.000000
965.301981	1004.666667
967.478938	1067.000000
969.657303	1023.000000
971.837075	1047.666667
974.010498	1048.666667
976.187267	1053.666667
978.359629	1045.333333
980.533399	1005.333333
982.702765	929.666667
984.875475	946.333333
987.045720	896.666667
989.215436	806.333333
991.384623	727.000000
993.549413	677.666667
995.717544	677.333333
997.881281	605.666667
1000.046424	613.333333
1002.209108	571.666667
1004.371267	583.666667
1006.530969	548.333333
1008.690146	566.666667
1010.850730	502.666667
1013.008859	505.000000
1015.166465	513.333333
1017.323547	467.000000
1019.480105	461.333333
1021.632284	448.666667
1023.785870	462.333333
1025.938934	448.666667
1028.089549	431.666667
1030.241571	417.000000
1032.389219	434.666667
1034.540199	401.666667
1036.686808	421.666667
1038.832898	413.666667
1040.978470	448.000000
1043.125447	418.666667
1045.266135	439.666667
1047.410153	403.333333
1049.551730	417.333333
1051.692791	411.666667
1053.835256	422.000000
1055.971442	396.000000
1058.110953	384.666667
1060.246110	405.666667
1062.384591	411.666667
1064.518718	376.666667
1066.652332	412.000000
1068.787351	397.666667
1070.918020	388.333333
1073.050094	373.000000
1075.179739	353.333333
1077.308872	413.666667
1079.437493	373.666667
1081.565603	370.333333
1083.691287	377.000000
1085.816461	382.666667
1087.943039	390.000000
1090.065279	370.666667
1092.188924	369.666667
1094.308234	375.666667
1096.432774	379.000000
1098.551068	341.000000
1100.670767	335.666667
1102.788047	382.333333
1104.904821	365.333333
1107.021088	382.000000
1109.134939	413.333333
1111.250195	352.333333
1113.361127	323.333333
1115.475372	356.333333
1117.585296	369.333333
1119.696624	332.000000
1121.807447	342.666667
1123.913954	321.000000
1126.023771	365.000000
1128.129273	350.666667
1130.236178	367.000000
1132.336868	374.000000
1134.442770	320.000000
1136.544363	358.666667
1138.647359	354.000000
1140.749854	337.333333
1142.846142	328.666667
1144.947637	340.333333
1147.044830	363.000000
1149.141525	311.666667
1151.237721	348.666667
1153.333420	356.000000
1155.428620	346.666667
1157.521424	338.666667
1159.615631	361.666667
1161.703646	326.000000
1163.796859	353.333333
1165.883884	357.666667
1167.974208	376.666667
1170.060244	324.666667
1172.149579	347.333333
1174.232732	321.000000
1176.317287	379.666667
1178.403244	344.000000
1180.484919	377.000000
1182.567996	315.333333
1184.648687	353.666667
1186.728886	322.333333
1188.808594	373.666667
1190.887811	327.333333
1192.964646	341.333333
1195.039100	330.666667
1197.116845	346.000000
1199.190321	360.666667
1201.265197	358.666667
1203.335806	322.333333
1205.407816	372.000000
1207.477451	355.000000
1209.548486	355.000000
1211.619033	363.666667
1213.685319	343.666667
1215.753006	329.666667
1217.818321	337.333333
1219.885036	302.666667
1221.947495	300.666667
1224.013239	285.000000
1226.074729	317.666667
1228.137620	340.666667
1230.198143	363.333333
1232.258182	324.333333
1234.317739	344.000000
1236.374930	327.333333
1238.431640	361.333333
1240.485986	346.000000
1242.543614	323.000000
1244.598879	311.000000
1246.649903	345.000000
1248.702327	360.000000
1250.754271	334.333333
1252.803857	335.333333
1254.852964	327.000000
1256.901593	369.333333
1258.949743	332.333333
1260.997414	351.000000
1263.040855	350.666667
1265.087572	344.000000
1267.131935	360.666667
1269.175822	336.000000
1271.217357	346.000000
1273.256543	383.666667
1275.299002	353.333333
1277.337238	351.666667
1279.376873	311.666667
1281.416033	363.000000
1283.450974	366.000000
1285.487314	332.333333
1287.521310	349.333333
1289.556703	354.666667
1291.587884	368.000000
1293.620462	392.000000
1295.652569	343.666667
1297.682335	366.666667
1299.713498	381.333333
1301.740455	324.000000
1303.768809	342.000000
1305.792958	300.333333
1307.820373	343.666667
1309.843585	359.333333
1311.868195	346.000000
1313.890471	333.000000
1315.914144	312.333333
1317.935484	311.333333
1319.956356	351.000000
1321.976761	284.666667
1323.992973	335.666667
1326.010582	315.333333
1328.025863	344.000000
1330.044403	311.666667
1332.058754	313.333333
1334.070779	325.000000
1336.086061	340.666667
1338.097158	321.000000
1340.109652	330.666667
1342.117963	333.000000
1344.129529	332.333333
1346.135057	352.666667
1348.143840	357.000000
1350.148445	305.333333
1352.156304	320.000000
1354.163701	363.000000
1356.165067	349.333333
1358.167829	401.000000
1360.170132	324.666667
1362.171975	398.333333
1364.173358	351.000000
1366.172428	326.666667
1368.171039	356.666667
1370.169192	349.333333
1372.166886	363.000000
1374.160418	340.333333
1376.155345	359.666667
1378.149816	334.666667
1380.143830	332.666667
1382.135537	376.666667
1384.126789	315.333333
1386.115735	337.333333
1388.106076	335.666667
1390.095962	339.666667
1392.083544	348.333333
1394.070673	310.000000
1396.055500	327.000000
1398.041722	309.666667
1400.025644	327.000000
1402.009113	323.333333
1403.992129	332.000000
1405.972848	310.666667
1407.954961	317.000000
1409.934778	313.000000
1411.914143	317.333333
1413.889370	327.333333
1415.867835	329.333333
1417.844007	316.000000
1419.819730	331.333333
1421.795003	300.666667
1423.767985	314.000000
1425.740519	314.666667
1427.712605	331.000000
1429.684244	343.000000
1431.651754	292.666667
1433.624338	314.000000
1435.589116	361.333333
1437.558967	328.666667
1439.524694	327.666667
1441.491813	331.666667
1443.456649	315.333333
1445.417365	310.000000
1447.383149	316.666667
1449.342978	302.000000
1451.304201	309.333333
1453.266816	328.666667
1455.225316	371.000000
1457.183373	329.333333
1459.140989	320.666667
1461.098162	324.333333
1463.053060	291.000000
1465.009351	304.333333
1466.963367	279.000000
1468.916942	345.000000
1470.868245	332.000000
1472.820941	361.333333
1474.771364	335.000000
1476.721349	335.333333
1478.670895	342.666667
1480.618172	355.666667
1482.563181	314.666667
1484.509583	366.666667
1486.455547	293.666667
1488.401074	304.666667
1490.344335	354.000000
1492.287161	321.000000
1494.227723	269.000000
1496.169676	327.666667
1498.109367	291.333333
1500.048624	293.666667
1501.987445	339.000000
1503.924007	292.333333
1505.861960	313.333333
1507.797654	323.333333
1509.732915	291.666667
1511.665920	340.333333
1513.598492	361.333333
1515.530632	357.333333
1517.462340	344.333333
1519.391794	331.000000
1521.322639	339.000000
1523.253052	335.000000
1525.179393	309.666667
1527.107125	342.333333
1529.032606	359.000000
1530.957658	347.000000
1532.882281	359.000000
1534.806475	352.333333
1536.728421	354.000000
1538.651758	360.666667
1540.572848	376.000000
1542.491694	359.000000
1544.411930	357.000000
1546.329923	416.666667
1548.247489	397.333333
1550.162813	427.333333
1552.079527	417.666667
1553.992186	424.666667
1555.908049	471.000000
1557.821672	478.666667
1559.733057	492.333333
1561.645832	529.333333
1563.554557	502.000000
1565.464671	597.000000
1567.374362	586.333333
1569.283630	678.333333
1571.190664	777.666667
1573.095465	942.333333
1575.001655	1139.000000
1576.905613	1327.666667
1578.809150	1572.000000
1580.712267	1772.666667
1582.613154	2002.666667
1584.515430	1905.333333
1586.415478	1808.666667
1588.316913	1527.000000
1590.214315	1321.333333
1592.111298	1076.666667
1594.007863	892.666667
1595.905816	732.333333
1597.797934	664.000000
1599.693245	612.000000
1601.588139	547.333333
1603.480811	503.333333
1605.373066	489.000000
1607.263102	444.333333
1609.152722	412.000000
1611.041927	444.000000
1612.930717	417.666667
1614.817289	416.333333
1616.705249	385.000000
1618.589192	393.666667
1620.474522	406.666667
1622.359439	426.000000
1624.242142	407.333333
1626.126232	386.333333
1628.006310	368.333333
1629.887776	358.000000
1631.767031	341.000000
1633.647672	320.333333
1635.522509	347.333333
1637.402327	326.666667
1639.278141	305.000000
1641.153544	357.000000
1643.030333	285.333333
1644.901326	257.666667
1646.775500	304.666667
1648.645675	290.000000
1650.519032	273.000000
1652.390184	301.333333
1654.259136	281.666667
1656.129472	298.000000
1657.995816	294.000000
1659.863545	237.000000
1661.729075	295.333333
1663.595991	282.000000
1665.458918	286.666667
1667.323230	276.000000
1669.185346	287.333333
1671.047057	271.666667
1672.910154	264.333333
1674.771055	261.000000
1676.629764	265.666667
1678.488069	246.000000
1680.347759	231.000000
1682.201681	233.333333
1684.058777	264.333333
1685.915470	258.333333
1687.768186	249.333333
1689.624074	241.666667
1691.475988	254.333333
1693.327501	251.000000
1695.178613	259.333333
1697.029325	258.000000
1698.879635	255.666667
1700.727762	247.000000
1702.577273	221.666667
1704.421035	239.000000
1706.269746	243.333333
1708.112711	258.333333
1709.958843	213.666667
1711.801012	205.333333
1713.646347	246.666667
1715.485941	190.666667
1717.326919	241.666667
1719.169280	243.333333
1721.007685	213.666667
1722.847473	213.333333
1724.685086	254.666667
1726.522303	205.000000
1728.357347	215.000000
1730.193774	241.666667
1732.028029	211.666667
1733.861889	214.666667
1735.695355	250.000000
1737.524876	184.000000
1739.357555	243.666667
1741.186290	264.000000
1743.018182	222.000000
1744.846132	242.333333
1746.673691	192.000000
1748.500857	203.666667
1750.327632	231.000000
1752.154015	211.666667
1753.976462	234.000000
1755.802064	214.000000
1757.623731	224.000000
1759.446780	222.333333
1761.267667	223.333333
1763.088166	228.666667
1764.910045	200.333333
1766.726226	216.333333
1768.545558	234.666667
1770.360963	223.333333
1772.179518	226.333333
1773.994148	238.000000
1775.808391	226.000000
1777.622248	202.666667
1779.435718	250.000000
1781.247035	216.333333
1783.059732	205.666667
1784.872044	213.000000
1786.680438	255.000000
1788.490212	247.333333
1790.296072	220.333333
1792.105077	229.333333
1793.910169	222.000000
1795.716642	191.333333
1797.522731	233.333333
1799.324909	226.000000
1801.130232	245.000000
1802.931646	179.666667
1804.734440	210.333333
1806.533328	214.000000
1808.333597	235.000000
1810.133484	210.666667
1811.931229	228.333333
1813.728594	223.666667
1815.525579	243.000000
1817.322183	229.333333
1819.116648	229.666667
1820.912492	224.000000
1822.702681	196.666667
1824.497767	201.333333
1826.287201	237.000000
1828.079771	208.000000
1829.870206	221.666667
1831.658507	207.333333
1833.449943	232.333333
1835.235733	230.000000
1837.022903	221.666667
1838.807941	222.333333
1840.596113	227.333333
1842.380399	204.666667
1844.162555	214.666667
1845.946091	252.000000
1847.727498	225.666667
1849.510284	228.000000
1851.289189	211.333333
1853.069474	230.333333
1854.847632	190.000000
1856.627169	249.333333
1858.404581	229.000000
1860.179869	218.000000
1861.956535	227.666667
1863.731079	197.333333
1865.507001	212.000000
1867.277302	245.000000
1869.050731	252.666667
1870.822040	204.666667
1872.592978	220.000000
1874.365294	216.000000
1876.131996	199.333333
1877.901824	191.000000
1879.667788	260.333333
1881.436875	226.666667
1883.202101	210.000000
1884.966959	227.000000
1886.733194	227.333333
1888.495570	199.000000
1890.257579	213.666667
1892.019220	210.333333
1893.780495	217.666667
1895.541402	223.666667
1897.301943	233.666667
1899.060374	238.333333
1900.818439	176.000000
1902.574397	227.333333
1904.331731	227.666667
1906.088700	195.000000
1907.843562	183.000000
1909.596320	198.333333
1911.348713	220.000000
1913.102483	195.000000
1914.854149	214.333333
1916.603713	184.000000
1918.354652	234.000000
1920.105229	213.666667
1921.851966	189.333333
1923.600080	191.000000
1925.346094	203.000000
1927.093483	202.666667
1928.838775	162.333333
1930.581969	190.666667
1932.326538	231.666667
1934.069012	227.000000
1935.811125	216.333333
1937.552878	199.666667
1939.294271	164.000000
1941.033571	200.666667
1942.772512	190.333333
1944.511094	172.000000
1946.247585	216.666667
1947.983718	210.333333
1949.721225	204.000000
1951.454910	195.000000
1953.189970	201.666667
1954.922941	209.666667
1956.655556	213.333333
1958.387815	201.666667
1960.119717	219.666667
1961.849533	185.333333
1963.577264	204.333333
1965.306370	189.000000
1967.035121	199.000000
1968.761788	195.333333
1970.488101	227.333333
1972.215787	215.000000
1973.937937	208.666667
1975.663188	184.333333
1977.384632	199.333333
1979.109177	197.333333
1980.831641	219.000000
1982.550303	215.000000
1984.272063	216.333333
1985.990021	197.666667
1987.709352	227.666667
1989.424884	239.333333
1991.145236	198.333333
1992.861790	241.333333
1994.574547	196.000000
1996.290400	199.000000
1998.004181	221.666667
1999.717612	201.000000
2001.428972	241.000000
2003.141704	197.666667
2004.850646	224.000000
2006.562680	216.666667
2008.269206	174.666667
2009.978823	213.000000
2011.686374	239.666667
2013.393576	192.000000
2015.098713	200.000000
2016.803504	203.666667
2018.509666	239.000000
2020.212046	212.666667
2021.915797	203.333333
2023.617486	193.666667
2025.318830	210.333333
2027.019828	209.333333
2028.718765	169.666667
2030.419074	206.000000
2032.115608	211.000000
2033.813513	197.000000
2035.509359	214.000000
2037.208291	208.000000
2038.901737	170.333333
2040.596554	191.666667
2042.291029	205.333333
2043.981735	168.666667
2045.675525	206.000000
2047.365548	224.666667
2049.056942	211.333333
2050.746283	199.000000
2052.436994	210.000000
2054.123942	237.000000
2055.810551	218.000000
2057.498529	225.000000
2059.182748	230.666667
2060.868338	195.666667
2062.553588	208.000000
2064.236789	181.666667
2065.921361	182.333333
2067.600470	198.666667
2069.284364	228.000000
2070.962797	210.333333
2072.644308	197.666667
2074.322067	187.333333
2075.999490	210.333333
2077.678282	168.666667
2079.355032	186.333333
2081.029740	210.000000
2082.705817	202.666667
2084.379853	201.000000
2086.053555	155.000000
2087.726921	220.000000
2089.398248	219.000000
2091.069241	182.000000
2092.739900	201.333333
2094.410225	167.333333
2096.080216	228.666667
2097.748171	232.666667
2099.415793	200.000000
2101.081380	194.000000
2102.748336	182.333333
2104.413259	185.000000
2106.077850	235.333333
2107.740409	171.000000
2109.404336	201.333333
2111.066232	207.666667
2112.727798	179.666667
2114.389032	193.333333
2116.048238	184.666667
2117.707113	192.666667
2119.365659	193.666667
2121.023874	189.000000
2122.678367	155.333333
2124.335924	209.000000
2125.993152	170.333333
2127.646658	246.000000
2129.301532	183.000000
2130.952687	163.333333
2132.606905	181.666667
2134.257406	197.666667
2135.909273	193.000000
2137.555732	179.000000
2139.206946	188.000000
2140.854446	206.000000
2142.503313	183.666667
2144.150161	181.000000
2145.796684	192.000000
2147.442881	192.666667
2149.085370	177.000000
2150.730917	180.333333
2152.372757	226.000000
2154.017654	222.000000
2155.658845	186.000000
2157.299714	195.333333
2158.940258	151.666667
2160.578790	177.000000
2162.218688	187.666667
2163.854886	185.000000
2165.492450	209.666667
2167.129692	156.666667
2168.764924	206.666667
2170.399835	209.000000
2172.034423	180.666667
2173.668691	183.666667
2175.299265	190.666667
2176.932891	187.333333
2178.562825	180.333333
2180.194124	183.333333
2181.823418	228.333333
2183.452393	164.000000
2185.081048	201.666667
2186.709384	185.333333
2188.335718	179.000000
2189.961733	187.333333
2191.585746	218.666667
2193.211125	207.000000
2194.834503	180.000000
2196.459246	223.333333
2198.080308	204.666667
2199.701053	192.333333
2201.323163	196.333333
2202.943275	184.000000
2204.561390	187.333333
2206.179190	225.666667
2207.796675	175.000000
2209.413844	190.666667
2211.030698	177.333333
2212.647236	207.000000
2214.261782	196.333333
2215.874335	138.333333
2217.488252	176.000000
2219.100178	190.000000
2220.713467	186.000000
2222.324766	185.333333
2223.934075	188.666667
2225.544748	192.000000
2227.153432	171.000000
2228.761803	183.000000
2230.368188	161.666667
2231.975936	173.000000
2233.581697	158.666667
2235.187147	161.333333
2236.790612	180.666667
2238.395440	155.666667
2239.998284	210.666667
2241.599145	141.000000
2243.201369	199.333333
2244.801611	166.333333
2246.403215	170.666667
2248.001166	151.666667
2249.600480	170.666667
2251.197814	156.000000
2252.794840	178.666667
2254.393228	191.333333
2255.987967	189.333333
2257.580729	149.000000
2259.174854	195.666667
2260.770340	228.333333
2262.362181	174.000000
2263.953716	166.666667
2265.546613	172.666667
2267.134200	161.666667
2268.726483	177.333333
2270.313460	184.666667
2271.903464	197.333333
2273.488164	186.000000
2275.077558	156.333333
2276.661650	203.333333
2278.247102	196.000000
2279.830586	183.333333
2281.417095	168.000000
2282.999971	162.666667
2284.582544	150.666667
2286.164813	206.333333
2287.743452	184.000000
2289.325116	206.333333
2290.903151	209.000000
2292.484209	182.666667
2294.061640	186.666667
2295.637108	190.666667
2297.215598	164.000000
2298.790464	167.333333
2300.365029	205.333333
2301.939294	195.333333
2303.513258	167.666667
2305.086921	221.666667
2306.660285	196.666667
2308.230030	207.666667
2309.799476	188.666667
2311.371940	170.333333
2312.939130	163.000000
2314.509338	160.000000
2316.075931	187.666667
2317.643884	174.333333
2319.209881	167.666667
2320.775581	160.000000
2322.340983	175.000000
2323.904432	221.333333
2325.469240	177.000000
2327.030440	189.666667
2328.594654	187.333333
2330.153606	224.000000
2331.715573	199.666667
2333.275588	147.000000
2334.835309	155.666667
2336.393080	146.333333
2337.950556	196.666667
2339.507738	180.000000
2341.062972	162.333333
2342.617913	177.000000
2344.172559	204.666667
2345.726912	170.666667
2347.280972	183.666667
2348.834737	167.000000
2350.386558	181.666667
2351.936437	183.666667
2353.489323	182.000000
2355.036966	183.333333
2356.587618	203.666667
2358.134678	156.666667
2359.683096	195.333333
2361.231223	165.000000
2362.775761	192.333333
2364.321657	150.666667
2365.865615	165.666667
2367.410930	184.666667
2368.952660	180.666667
2370.495747	197.000000
2372.036898	185.333333
2373.577760	184.666667
2375.118333	197.666667
2376.658617	132.666667
2378.198612	197.666667
2379.735029	154.000000
2381.274447	191.666667
2382.810287	180.000000
2384.347485	180.666667
2385.881107	173.000000
2387.417729	184.666667
2388.952421	156.666667
2390.485183	183.666667
2392.017658	189.666667
2393.548205	205.000000
2395.081750	197.666667
2396.610084	187.333333
2398.139774	185.000000
2399.669179	153.666667
2401.198299	201.333333
2402.727134	166.333333
2404.250763	155.666667
2405.779028	193.666667
2407.302091	171.000000
2408.829787	182.333333
2410.350644	193.666667
2411.876134	200.666667
2413.398063	160.000000
2414.921348	169.333333
2416.442711	167.333333
2417.962155	163.000000
2419.482954	150.333333
2421.001835	184.333333
2422.520433	179.666667
2424.037114	170.333333
2425.555149	173.333333
2427.072903	170.666667
2428.587106	239.666667
2430.101028	164.666667
2431.614670	181.000000
2433.129667	197.000000
2434.641115	197.666667
2436.153918	207.666667
2437.664807	190.333333
2439.175418	183.333333
2440.684117	191.000000
2442.195802	198.333333
2443.703944	203.666667
2445.211808	226.666667
2446.719394	238.000000
2448.223439	209.333333
2449.730469	211.666667
2451.235591	225.333333
2452.740436	209.333333
2454.243374	213.333333
2455.746036	225.666667
2457.248421	217.666667
2458.748901	222.000000
2460.250734	210.000000
2461.750662	245.666667
2463.250315	186.333333
2464.749693	217.333333
2466.247168	233.000000
2467.742741	200.000000
2469.241294	179.000000
2470.736319	208.333333
2472.232696	203.333333
2473.725547	198.333333
2475.219751	169.666667
2476.713681	163.333333
2478.204087	216.666667
2479.697471	197.333333
2481.188957	206.666667
2482.678546	170.666667
2484.167863	193.000000
2485.655284	210.333333
2487.145681	213.333333
2488.632560	182.000000
2490.120790	202.666667
2491.605503	163.000000
2493.089947	206.666667
2494.575741	192.333333
2496.059644	206.000000
2497.544897	184.333333
2499.025017	191.666667
2500.508110	182.000000
2501.989312	188.000000
2503.470245	201.000000
2504.949289	187.000000
2506.428064	163.666667
2507.906571	171.000000
2509.384810	179.666667
2510.862780	170.666667
2512.337245	133.333333
2513.814680	183.666667
2515.288611	207.666667
2516.763892	172.000000
2518.238906	124.000000
2519.710419	167.000000
2521.183283	195.333333
2522.654264	152.666667
2524.126595	180.666667
2525.593812	164.333333
2527.063996	150.666667
2528.532299	147.333333
2530.000337	154.000000
2531.468110	147.000000
2532.935618	175.666667
2534.402861	194.666667
2535.866612	161.666667
2537.331713	159.333333
2538.794937	172.666667
2540.259510	196.333333
2541.720595	194.333333
2543.183029	167.333333
2544.645200	193.333333
2546.103885	203.000000
2547.567141	179.333333
2549.025302	197.666667
2550.484811	164.000000
2551.939226	170.333333
2553.398212	179.666667
2554.855326	176.333333
2556.310569	153.333333
2557.765550	190.666667
2559.218663	122.333333
2560.673124	185.666667
2562.125715	195.333333
2563.578047	188.666667
2565.028512	186.000000
2566.481932	168.333333
2567.930270	217.666667
2569.381563	161.333333
2570.830991	187.000000
2572.276946	187.666667
2573.725856	154.000000
2575.171296	205.666667
2576.618083	176.000000
2578.063008	171.000000
2579.507674	177.666667
2580.953688	184.666667
2582.396236	158.000000
2583.840131	217.333333
2585.280561	158.333333
2586.722338	170.000000
2588.162256	154.000000
2589.603521	178.000000
2591.041324	197.000000
2592.482077	207.333333
2593.917768	196.333333
2595.356408	200.000000
2596.793190	160.000000
2598.228117	180.000000
2599.665991	159.333333
2601.098808	179.000000
2602.532972	181.666667
2603.965282	179.666667
2605.398938	218.333333
2606.830741	164.333333
2608.262290	212.000000
2609.693587	186.000000
2611.123031	175.000000
2612.552223	195.666667
2613.979565	196.666667
2615.408252	200.000000
2616.836688	224.666667
2618.261676	213.000000
2619.688011	231.666667
2621.112497	237.333333
2622.538329	196.666667
2623.960717	230.333333
2625.384451	220.666667
2626.806338	264.666667
2628.227976	259.666667
2629.647768	236.666667
2631.068906	215.000000
2632.489794	251.333333
2633.907244	275.333333
2635.327633	241.333333
2636.744585	259.666667
2638.161288	313.666667
2639.577743	295.333333
2640.993950	301.333333
2642.409909	293.000000
2643.824027	306.000000
2645.237897	293.666667
2646.649929	305.333333
2648.063304	327.333333
2649.473250	335.333333
2650.886132	345.333333
2652.295585	344.333333
2653.704792	384.000000
2655.112163	380.333333
2656.522468	403.666667
2657.930938	421.000000
2659.337572	409.666667
2660.743961	423.000000
2662.148516	476.000000
2663.554415	472.666667
2664.958481	513.000000
2666.362302	564.666667
2667.765879	522.666667
2669.167625	545.333333
2670.570714	599.666667
2671.970385	652.000000
2673.371400	675.666667
2674.768999	753.666667
2676.169527	804.000000
2677.566641	725.333333
2678.965098	826.333333
2680.361728	830.000000
2681.758115	795.666667
2683.154260	952.666667
2684.548579	890.333333
2685.944241	888.000000
2687.336494	937.000000
2688.730089	904.666667
2690.121860	907.666667
2691.514974	884.333333
2692.906264	815.333333
2694.295731	818.000000
2695.684958	765.000000
2697.073946	760.333333
2698.464275	697.666667
2699.849621	710.000000
2701.237890	616.666667
2702.624339	582.333333
2704.010549	564.000000
2705.396520	528.333333
2706.779093	471.000000
2708.163008	451.333333
2709.546685	441.000000
2710.930123	402.333333
2712.310167	382.666667
2713.691551	396.666667
2715.071121	361.333333
2716.452031	360.666667
2717.831127	342.666667
2719.208409	338.000000
2720.587032	255.333333
2721.963842	315.000000
2723.340415	278.333333
2724.716753	298.000000
2726.091280	254.333333
2727.467147	287.333333
2728.839627	254.666667
2730.215023	239.333333
2731.585459	228.000000
2732.957236	235.666667
2734.328778	240.333333
2735.698512	212.000000
2737.069587	231.000000
2738.438853	223.000000
2739.807886	176.333333
2741.175113	205.000000
2742.542106	172.333333
2743.908867	215.333333
2745.275396	193.333333
2746.640119	182.333333
2748.004610	187.666667
2749.368870	185.000000
2750.732897	196.333333
2752.096693	196.666667
2753.457115	194.666667
2754.820447	168.333333
2756.178837	171.000000
2757.540137	194.000000
2758.898067	182.333333
2760.258905	224.000000
2761.617944	179.000000
2762.973614	182.666667
2764.332192	158.666667
2765.687403	181.000000
2767.042385	136.333333
2768.395571	196.333333
2769.751662	144.000000
2771.104390	181.000000
2772.456890	166.333333
2773.809161	156.666667
2775.162770	176.000000
2776.513019	135.000000
2777.861473	202.000000
2779.212833	148.000000
2780.560833	144.333333
2781.910171	153.333333
2783.257717	178.666667
2784.605037	188.333333
2785.952130	165.333333
2787.297432	150.333333
2788.642507	154.333333
2789.987357	131.333333
2791.331981	142.666667
2792.673253	162.666667
2794.015863	153.666667
2795.358247	163.666667
2796.700406	154.666667
2798.039216	159.333333
2799.380926	183.333333
2800.719288	158.333333
2802.058986	169.666667
2803.396900	184.333333
2804.733029	148.666667
2806.068934	152.333333
2807.406177	169.000000
2808.741636	161.000000
2810.076872	173.000000
2811.410325	157.000000
2812.745115	136.333333
2814.076565	159.666667
2815.410910	119.000000
2816.740357	200.666667
2818.071141	170.333333
2819.401703	159.666667
2820.730486	168.000000
2822.060605	147.333333
2823.388946	136.000000
2824.717066	148.666667
2826.043408	138.333333
2827.371087	179.333333
2828.695432	138.666667
2830.021114	159.333333
2831.345020	139.333333
2832.668707	154.000000
2833.993729	148.666667
2835.315421	139.000000
2836.636895	159.000000
2837.958150	164.000000
2839.279186	125.000000
2840.598449	120.333333
2841.919048	141.000000
2843.237876	169.000000
2844.556485	123.666667
2845.873323	149.333333
2847.189944	145.000000
2848.506348	121.000000
2849.820982	147.666667
2851.136952	156.666667
2852.449601	140.000000
2853.763585	163.666667
2855.077353	128.000000
2856.390904	122.333333
2857.702689	123.000000
2859.012707	144.000000
2860.324060	153.000000
2861.632098	174.333333
2862.941470	153.000000
2864.250628	151.333333
2865.559570	113.333333
2866.866748	157.000000
2868.172164	121.666667
2869.478913	165.000000
2870.783901	133.333333
2872.088675	119.666667
2873.391687	98.333333
2874.697580	146.000000
2875.998619	161.666667
2877.300992	109.000000
2878.601605	150.666667
2879.903552	116.666667
2881.205285	100.000000
2882.503715	141.666667
2883.803478	128.333333
2885.101484	119.333333
2886.399278	147.666667
2887.695316	143.000000
2888.992687	121.000000
2890.288302	147.000000
2891.583706	156.666667
2892.878899	129.333333
2894.170795	137.333333
2895.465567	126.333333
2896.757042	140.666667
2898.049850	125.333333
2899.342448	107.333333
2900.631752	148.333333
2901.922388	144.333333
2903.211273	105.000000
2904.501490	137.000000
2905.788416	132.333333
2907.076674	128.333333
2908.363183	146.000000
2909.649483	113.333333
2910.935576	170.000000
2912.219920	146.666667
2913.507135	156.333333
2914.789524	105.666667
2916.073245	148.333333
2917.355220	136.000000
2918.636987	156.333333
2919.917010	144.666667
2921.199902	149.333333
2922.481049	145.333333
2923.758914	98.000000
2925.039648	119.000000
2926.317101	142.333333
2927.594348	149.333333
2928.869853	131.333333
2930.148226	117.333333
2931.421785	124.666667
2932.698211	118.333333
2933.972896	116.333333
2935.245840	113.666667
2936.520116	140.666667
2937.792652	136.000000
2939.064983	160.666667
2940.334042	111.000000
2941.605966	130.666667
2942.876152	121.333333
2944.146134	93.333333
2945.415913	150.000000
2946.683956	141.666667
2947.950262	111.333333
2949.216367	157.000000
2950.483801	120.666667
2951.749501	125.666667
2953.014998	119.333333
2954.280293	153.333333
2955.542323	100.333333
2956.805683	131.333333
2958.068842	102.666667
2959.330269	133.666667
2960.593025	103.333333
2961.854049	110.000000
2963.113343	111.333333
2964.372437	156.000000
2965.631330	100.666667
2966.890023	128.666667
2968.148516	126.000000
2969.405280	145.000000
2970.661844	124.333333
2971.916681	106.666667
2973.172846	124.333333
2974.425757	113.333333
2975.679997	133.666667
2976.934037	142.000000
2978.186353	134.666667
2979.438469	128.666667
2980.688861	130.666667
2981.942108	139.000000
2983.190578	124.333333
2984.441903	126.333333
2985.689978	151.000000
2986.937857	117.666667
2988.185538	125.666667
2989.433022	150.333333
2990.678785	138.666667
2991.924352	141.666667
2993.171246	100.333333
2994.414896	132.333333
2995.659874	144.333333
2996.901608	129.333333
2998.146194	119.333333
2999.389061	115.000000
3000.628687	158.333333
3001.871163	132.000000
3003.110399	134.666667
3004.350963	114.666667
3005.589810	133.000000
3006.828463	126.666667
3008.065400	111.000000
3009.303665	134.666667
3010.540214	100.666667
3011.776570	142.666667
3013.012732	129.666667
3014.247180	84.333333
3015.481436	107.000000
3016.715498	115.000000
3017.947848	147.333333
3019.178486	147.666667
3020.411970	136.333333
3021.643742	136.666667
3022.873804	124.333333
3024.103673	133.333333
3025.331833	91.333333
3026.561320	159.000000
3027.789097	94.000000
3029.016683	133.666667
3030.245596	96.000000
3031.469766	78.000000
3032.696779	112.000000
3033.920568	137.000000
3035.145684	138.666667
3036.369093	100.000000
3037.592312	100.333333
3038.813826	139.333333
3040.038181	108.666667
3041.257801	108.000000
3042.478747	81.333333
3043.699504	118.333333
3044.918557	136.000000
3046.138935	96.333333
3047.356097	89.666667
3048.574585	155.000000
3049.791370	96.333333
3051.007968	126.000000
3052.224377	120.333333
3053.437574	108.333333
3054.653608	114.333333
3055.866430	96.666667
3057.082089	118.000000
3058.293025	150.333333
3059.505286	128.666667
3060.717361	134.666667
3061.929248	81.666667
3063.139439	135.666667
3064.349443	135.666667
3065.559261	119.000000
3066.767383	93.000000
3067.975320	139.333333
3069.181561	99.666667
3070.389127	132.000000
3071.594998	115.000000
3072.800685	98.000000
3074.006186	124.333333
3075.209994	116.000000
3076.415126	99.666667
3077.618565	114.000000
3078.820313	112.333333
3080.021876	117.000000
3081.223256	86.000000
3082.424452	81.333333
3083.623958	111.333333
3084.823281	114.333333
3086.023927	93.666667
3087.222883	85.000000
3088.418645	90.333333
3089.617236	106.666667
3090.812633	105.333333
3092.009353	109.000000
3093.202881	117.000000
3094.399237	115.333333
3095.593907	69.000000
3096.785385	116.000000
3097.981196	108.666667
3099.172312	124.000000
3100.364752	111.333333
3101.554004	96.666667
3102.746081	80.000000
3103.936475	114.666667
3105.123683	92.666667
3106.312213	122.333333
3107.502066	109.000000
3108.688735	106.000000
3109.875223	111.333333
3111.061533	112.666667
3112.249164	89.333333
3113.433613	136.666667
3114.616383	96.333333
3115.801975	122.000000
3116.985888	91.333333
3118.168122	83.666667
3119.350177	91.333333
3120.532054	103.666667
3121.713753	112.333333
3122.893775	114.666667
3124.072120	120.333333
3125.253285	104.000000
3126.431275	90.333333
3127.609089	110.333333
3128.786725	111.000000
3129.962686	71.666667
3131.138470	96.333333
3132.315576	86.000000
3133.491007	130.666667
3134.664765	99.000000
3135.836850	120.000000
3137.010257	92.000000
3138.183487	68.333333
3139.355046	111.666667
3140.527925	103.333333
3141.697637	103.000000
3142.868670	103.666667
3144.038033	97.666667
3145.205725	103.666667
3146.376233	106.666667
3147.542083	92.333333
3148.712241	109.666667
3149.877743	72.333333
3151.043070	87.333333
3152.208224	110.666667
3153.373205	100.333333
3154.539505	120.666667
3155.701153	106.333333
3156.864120	91.000000
3158.026915	105.333333
3159.189537	97.333333
3160.350494	109.000000
3161.511278	97.666667
3162.671890	139.000000
3163.830838	107.000000
3164.989615	104.000000
3166.148220	110.333333
3167.306652	85.000000
3168.464914	73.000000
3169.621513	78.000000
3170.776451	114.333333
3171.932708	98.000000
3173.087304	71.000000
3174.241730	121.000000
3175.394496	72.000000
3176.547091	85.333333
3177.699517	92.000000
3178.851773	89.666667
3180.003858	125.666667
3181.152798	86.666667
3182.304544	54.333333
3183.454632	113.666667
3184.603064	98.000000
3185.751326	107.666667
3186.899420	107.333333
3188.047345	74.000000
3189.193614	88.333333
3190.339715	104.000000
3191.484162	145.000000
3192.628441	83.000000
3193.772552	116.666667
3194.917980	96.000000
3196.060270	102.333333
3197.202393	59.333333
3198.344348	133.333333
3199.486136	106.333333
3200.627757	81.666667
3201.766243	130.000000
3202.906046	125.333333
3204.047167	120.666667
3205.185153	97.333333
3206.321490	113.666667
3207.457661	107.000000
3208.595149	119.666667
3209.730989	107.000000
3210.868146	116.333333
3212.000690	102.666667
3213.137516	117.000000
3214.269730	112.333333
3215.403261	119.666667
3216.536628	91.333333
3217.666867	126.333333
3218.799904	98.333333
3219.929815	104.666667
3221.061042	99.666667
3222.189145	108.333333
3223.320044	107.666667
3224.449299	91.000000
3225.576911	143.333333
3226.701400	113.000000
3227.830165	143.333333
3228.955808	114.000000
3230.081289	105.000000
3231.205128	125.333333
3232.331761	99.333333
3233.453797	104.000000
3234.577149	93.000000
3235.700339	79.666667
3236.823366	104.000000
3237.944755	99.666667
3239.065981	124.333333
3240.185570	98.000000
3241.304997	120.000000
3242.422786	128.333333
3243.543367	113.666667
3244.660835	97.666667
3245.778142	148.333333
3246.895289	101.000000
3248.010800	126.666667
3249.127625	159.666667
3250.241341	106.666667
3251.357846	115.666667
3252.472717	52.000000
3253.584479	108.333333
3254.696081	86.333333
3255.808999	89.000000
3256.921757	121.000000
3258.031409	96.666667
3259.142376	93.333333
3260.253184	92.000000
3261.362360	83.666667
3262.469906	123.666667
3263.578765	105.000000
3264.687467	111.000000
3265.793066	92.000000
3266.899979	98.333333
3268.005263	102.666667
3269.111861	120.666667
3270.215359	90.333333
3271.320172	73.666667
3272.424827	76.000000
3273.526383	105.666667
3274.627783	100.000000
3275.730497	94.000000
3276.833055	56.666667
3277.932516	101.333333
3279.034761	80.333333
3280.133910	120.666667
3281.231435	105.000000
3282.328804	100.000000
3283.428955	105.333333
3284.526014	72.000000
3285.622917	50.666667
3286.719665	90.000000
3287.811855	74.666667
3288.908293	58.333333
3290.003109	100.666667
3291.097771	74.333333
3292.190811	67.333333
3293.283696	90.333333
3294.374962	101.000000
3295.467539	86.666667
3296.558497	73.666667
3297.647835	96.333333
3298.737020	89.333333
3299.827518	59.666667
3300.914931	64.666667
3302.002191	113.000000
3303.090764	93.333333
3304.179185	81.666667
3305.263058	73.333333
3306.351173	110.666667
3307.436206	102.333333
3308.519624	78.666667
3309.604354	77.000000
3310.687468	109.666667
3311.771895	85.000000
3312.853243	111.333333
3313.935903	72.333333
3315.016949	94.000000
3316.097844	76.000000
3317.177125	69.333333
3318.256256	50.333333
3319.336699	115.000000
3320.414067	83.666667
3321.492747	101.666667
3322.569815	74.333333
3323.646734	69.000000
3324.722041	58.666667
3325.797199	75.333333
3326.873668	90.666667
3327.947067	118.000000
3329.020317	80.666667
3330.094877	103.000000
3331.167829	94.333333
3332.239172	99.666667
3333.311826	80.666667
3334.381414	127.000000
3335.452312	84.666667
3336.521603	92.000000
3337.592205	103.666667
3338.661200	94.666667
3339.728589	79.000000
3340.794373	62.666667
3341.864383	83.333333
3342.931330	86.666667
3343.995215	66.000000
3345.061868	76.333333
3346.126916	55.000000
3347.190361	71.000000
3348.253660	86.000000
3349.316812	98.666667
3350.379818	85.333333
3351.442678	84.333333
3352.503936	91.000000
3353.562137	84.000000
3354.624558	123.333333
3355.683924	64.000000
3356.743144	72.000000
3357.803673	99.000000
3358.859694	52.000000
3359.918478	107.000000
3360.972755	73.666667
3362.029796	86.333333
3363.085238	113.333333
3364.141990	55.333333
3365.197143	81.000000
3366.250699	34.000000
3367.302659	95.000000
3368.357380	89.333333
3369.409052	66.000000
3370.460581	86.666667
3371.513418	98.666667
3372.563208	104.666667
3373.614307	70.000000
3374.662360	82.000000
3375.713172	47.333333
3376.760940	72.333333
3377.808565	47.333333
3378.856047	85.333333
3379.901937	79.666667
3380.949135	107.333333
3381.993291	75.666667
3383.040205	84.666667
3384.085527	109.666667
3385.127808	70.000000
3386.169949	80.666667
3387.213397	56.000000
3388.256704	79.000000
3389.298422	71.666667
3390.339998	56.000000
3391.381433	92.000000
3392.421280	96.333333
3393.459538	85.333333
3394.499104	91.000000
3395.538530	87.000000
3396.576368	83.000000
3397.612619	94.333333
3398.648731	81.666667
3399.686150	88.666667
3400.720536	71.000000
3401.756229	73.666667
3402.791783	93.000000
3403.824306	61.666667
3404.859582	86.666667
3405.891827	90.000000
3406.923934	80.666667
3407.954457	76.666667
3408.986287	101.000000
3410.017979	56.000000
3411.046643	64.000000
3412.075170	67.333333
3413.105003	69.666667
3414.134699	83.333333
3415.161369	62.333333
3416.189346	86.333333
3417.214298	49.333333
3418.242000	90.333333
3419.266679	78.666667
3420.292664	65.000000
3421.317069	65.666667
3422.341338	79.333333
3423.364028	83.000000
3424.386582	109.000000
3425.410442	69.333333
3426.431282	87.666667
3427.451986	66.000000
3428.473997	96.000000
3429.492989	87.333333
3430.511845	52.333333
3431.532008	56.000000
3432.549154	86.333333
