-116.707459	26.333333
-114.037859	-6.000000
-111.371194	-6.333333
-108.705281	-2.000000
-106.042300	-12.666667
-103.377890	15.666667
-100.716410	14.000000
-98.053501	-32.666667
-95.395698	-35.333333
-92.736466	8.666667
-90.077982	12.000000
-87.422422	9.666667
-84.765434	-9.666667
-82.113544	-21.000000
-79.460224	-9.666667
-76.809823	-11.333333
-74.157993	25.000000
-71.511254	-6.333333
-68.863086	17.000000
-66.215660	-10.666667
-63.571148	-22.666667
-60.925208	-12.000000
-58.284349	10.666667
-55.642061	26.666667
-53.002682	2.666667
-50.361873	-7.666667
-47.721805	26.666667
-45.086809	-5.333333
-42.450385	4.666667
-39.816863	16.666667
-37.181913	17.666667
-34.552028	35.333333
-31.918551	23.333333
-29.290136	-17.000000
-26.662455	61.000000
-24.033345	23.000000
-21.409292	11.333333
-18.781650	46.333333
-16.159061	46.666667
-13.537204	68.666667
-10.916077	118.333333
-8.295680	279.000000
-5.678172	875.666667
-3.059235	2799.000000
-0.443183	6653.333333
2.172140	12694.000000
4.786736	5713.333333
7.398449	612.333333
10.011591	115.333333
12.619699	44.000000
15.231389	14.333333
17.838048	30.666667
20.446135	37.000000
23.053498	19.333333
25.655836	25.333333
28.261752	19.333333
30.862646	13.000000
33.464968	15.000000
36.062273	36.333333
38.663153	24.000000
41.259018	4.333333
43.856312	8.666667
46.452886	0.000000
49.044451	21.000000
51.637444	-12.333333
54.227576	21.333333
56.819136	-21.000000
59.407836	21.000000
61.997963	21.666667
64.583091	-50.333333
67.169647	-16.666667
69.755489	16.000000
72.338477	-6.000000
74.922891	-39.333333
77.500177	8.333333
80.081029	17.666667
82.659032	-8.000000
85.236325	20.333333
87.815044	9.666667
90.388781	-29.666667
92.963946	-25.000000
95.536267	5.000000
98.107880	-4.000000
100.676653	14.333333
103.246853	4.000000
105.814215	11.333333
108.383002	18.333333
110.948953	43.333333
113.512069	-4.666667
116.078741	-5.333333
118.636192	9.666667
121.199328	28.666667
123.757504	61.666667
126.319235	49.000000
128.876009	53.666667
131.434210	122.666667
133.987457	169.666667
136.540007	265.666667
139.096107	346.666667
141.647259	523.333333
144.197714	641.333333
146.747471	689.000000
149.294409	794.666667
151.840652	790.666667
154.388320	843.000000
156.935292	864.666667
159.477329	831.666667
162.018672	842.000000
164.559322	828.666667
167.101398	807.333333
169.640662	832.666667
172.177118	814.333333
174.712882	853.000000
177.250072	832.666667
179.786571	810.333333
182.320264	802.666667
184.851153	823.666667
187.381355	807.000000
189.912981	769.333333
192.441806	808.000000
194.967832	778.666667
197.493172	769.000000
200.019937	766.333333
202.543906	811.666667
205.067190	797.333333
207.589789	772.000000
210.109595	766.666667
212.628718	786.666667
215.147158	803.000000
217.667022	806.333333
220.179885	809.333333
222.696279	813.666667
225.211991	817.333333
227.722813	875.000000
230.235060	855.000000
232.744525	861.333333
235.253311	886.000000
237.761418	864.333333
240.270950	872.333333
242.775601	898.666667
245.279576	869.333333
247.784975	855.000000
250.285499	846.333333
252.789547	830.333333
255.286623	835.000000
257.787223	873.000000
260.285051	818.333333
262.782206	805.666667
265.278688	870.333333
267.770307	852.000000
270.265446	895.666667
272.757818	825.666667
275.249520	898.000000
277.738459	900.000000
280.228822	853.000000
282.716422	928.333333
285.201263	909.333333
287.689619	908.000000
290.171035	923.666667
292.655965	966.000000
295.136050	972.333333
297.619647	949.333333
300.098401	1077.000000
302.578579	1044.000000
305.056004	1065.000000
307.532766	1047.000000
310.008865	968.000000
312.482215	987.333333
314.954903	918.666667
317.426930	937.333333
319.898296	956.666667
322.366917	997.666667
324.834880	952.666667
327.304264	928.000000
329.768826	870.000000
332.236892	851.000000
334.700138	768.000000
337.162726	811.000000
339.624658	856.666667
342.085933	806.333333
344.544474	855.333333
347.004437	780.666667
349.461667	795.000000
351.918243	779.000000
354.374165	827.000000
356.827357	732.333333
359.281972	732.333333
361.731785	796.000000
364.185094	726.000000
366.633605	726.333333
369.081464	721.000000
371.530746	703.333333
373.975234	671.333333
376.421144	715.666667
378.866404	662.000000
381.308946	703.333333
383.750840	673.000000
386.192087	673.666667
388.630618	660.666667
391.070571	710.333333
393.507810	681.000000
395.942337	653.000000
398.380352	655.000000
400.813590	668.000000
403.248249	637.333333
405.678136	627.666667
408.111508	677.666667
410.540110	658.000000
412.968070	683.333333
415.397452	614.333333
417.822068	661.666667
420.248106	609.333333
422.673503	615.000000
425.098260	609.333333
427.518259	659.666667
429.939679	581.333333
432.358402	576.666667
434.778546	568.000000
437.195995	584.666667
439.614864	579.000000
442.031040	552.666667
444.442468	527.333333
446.857374	476.666667
449.269589	493.000000
451.681170	504.000000
454.092117	488.333333
456.500378	471.000000
458.908006	476.000000
461.315002	471.666667
463.721367	448.000000
466.125049	457.666667
468.528101	458.000000
470.930523	471.666667
473.332315	464.666667
475.731430	488.000000
478.131964	466.333333
480.531869	492.333333
482.927051	484.333333
485.325700	529.333333
487.719629	493.666667
490.112932	523.333333
492.505609	599.000000
494.897661	572.000000
497.291131	670.666667
499.679889	777.000000
502.065981	919.666667
504.453493	1184.666667
506.840382	1601.000000
509.224607	2206.000000
511.610250	3142.000000
513.993232	4460.666667
516.373553	5919.000000
518.755293	6979.666667
521.134374	6985.666667
523.514874	6298.333333
525.892716	5276.333333
528.267903	4342.666667
530.642472	3610.666667
533.018459	3132.333333
535.391794	2604.333333
537.766546	2304.333333
540.136613	2058.666667
542.506064	1840.333333
544.876933	1717.000000
547.243122	1580.333333
549.610729	1480.666667
551.975690	1338.666667
554.340038	1323.000000
556.703773	1273.333333
559.068926	1161.333333
561.429407	1152.333333
563.791306	1152.666667
566.150564	1061.666667
568.507185	1012.333333
570.867250	1035.000000
573.220624	1007.666667
575.577443	947.333333
577.931627	940.666667
580.285202	887.666667
582.638170	916.333333
584.988505	868.000000
587.340258	840.333333
589.685334	788.333333
592.035874	765.666667
594.379740	738.000000
596.729068	733.333333
599.073747	712.333333
601.415802	772.333333
603.759274	705.666667
606.100123	738.000000
608.440370	746.666667
610.777996	761.333333
613.119057	772.666667
615.455480	826.000000
617.793320	863.000000
620.128543	832.666667
622.461150	803.666667
624.795173	792.000000
627.126582	777.666667
629.457393	718.333333
631.787607	691.333333
634.117222	671.000000
636.442214	682.000000
638.772648	718.666667
641.098461	708.000000
643.421666	705.666667
645.746288	690.333333
648.068304	661.000000
650.389726	650.666667
652.708546	677.000000
655.028781	641.000000
657.348423	620.333333
659.665464	602.333333
661.981913	644.333333
664.295764	616.666667
666.611031	662.000000
668.923701	657.666667
671.237786	606.000000
673.547271	645.666667
675.858172	628.333333
678.166480	598.333333
680.474200	576.000000
682.783334	582.000000
685.087876	553.333333
687.391832	574.333333
689.695202	585.333333
691.999986	493.666667
694.300184	530.333333
696.601796	506.333333
698.902823	507.000000
701.199269	531.666667
703.497130	504.000000
705.794407	515.333333
708.091101	515.000000
710.383219	496.000000
712.678748	495.333333
714.969703	487.666667
717.262073	487.000000
719.551868	511.333333
721.841082	514.666667
724.129717	494.333333
726.415779	485.333333
728.703256	535.666667
730.988161	485.666667
733.272489	465.000000
735.554248	481.000000
737.837421	487.000000
740.120017	479.333333
742.398057	476.333333
744.677512	458.000000
746.956390	458.333333
749.234694	478.000000
751.508448	472.000000
753.783615	489.666667
756.058209	495.666667
758.330244	507.333333
760.603692	478.000000
762.874582	466.666667
765.142916	464.666667
767.412663	495.666667
769.679856	464.000000
771.946478	437.666667
774.212530	478.666667
776.476031	461.333333
778.740945	455.666667
781.005289	498.666667
783.265104	496.333333
785.526331	470.000000
787.786991	505.333333
790.045105	486.333333
792.300674	480.666667
794.559634	459.666667
796.812095	504.333333
799.069922	463.666667
801.323231	482.666667
803.574000	466.000000
805.826181	491.000000
808.075823	460.000000
810.326878	485.000000
812.573421	446.333333
814.821376	480.000000
817.066797	487.666667
819.313629	497.333333
821.559900	453.000000
823.801666	465.666667
826.046816	443.333333
828.285493	492.666667
830.527552	456.000000
832.765113	501.666667
835.004086	472.333333
837.240532	448.666667
839.478389	440.666667
841.713721	443.333333
843.946530	466.333333
846.180750	457.333333
848.412447	496.333333
850.643590	508.333333
852.874178	442.333333
855.104212	452.666667
857.333692	442.000000
859.558690	455.000000
861.787063	479.333333
864.010956	466.666667
866.236261	438.666667
868.457090	442.333333
870.681291	417.666667
872.901019	404.000000
875.122157	428.666667
877.342745	463.000000
879.560824	460.333333
881.780312	423.000000
883.995334	436.333333
886.209808	403.333333
888.423735	393.000000
890.637115	435.666667
892.849947	395.666667
895.062233	417.333333
897.272016	382.333333
899.481254	418.666667
901.689947	429.666667
903.896141	418.333333
906.103744	450.333333
908.308849	417.333333
910.513411	447.333333
912.715478	476.000000
914.918954	431.666667
917.119936	465.666667
919.320376	463.000000
921.522225	541.333333
923.717683	532.333333
925.916500	544.000000
928.110878	591.666667
930.308614	681.666667
932.501914	760.000000
934.696623	833.666667
936.888846	857.333333
939.080530	950.000000
941.271677	965.666667
943.460341	1012.333333
945.648469	1016.000000
947.834116	1003.000000
950.023115	1026.333333
952.207691	986.000000
954.391732	1010.333333
956.579123	993.666667
958.758210	1026.333333
960.940648	1016.333333
963.122552	1012.333333
965.301981	1061.000000
967.478938	1017.000000
969.657303	1062.333333
971.837075	1090.666667
974.010498	988.333333
976.187267	1043.666667
978.359629	1043.333333
980.533399	1060.000000
982.702765	964.000000
984.875475	937.000000
987.045720	884.666667
989.215436	852.666667
991.384623	753.000000
993.549413	721.333333
995.717544	647.333333
997.881281	637.333333
1000.046424	579.333333
1002.209108	549.333333
1004.371267	602.666667
1006.530969	509.666667
1008.690146	531.333333
1010.850730	544.000000
1013.008859	522.000000
1015.166465	519.333333
1017.323547	472.666667
1019.480105	485.666667
1021.632284	496.000000
1023.785870	449.333333
1025.938934	465.333333
1028.089549	418.333333
1030.241571	406.333333
1032.389219	411.666667
1034.540199	448.000000
1036.686808	424.000000
1038.832898	437.333333
1040.978470	383.333333
1043.125447	368.000000
1045.266135	407.666667
1047.410153	406.666667
1049.551730	432.000000
1051.692791	432.000000
1053.835256	373.000000
1055.971442	455.333333
1058.110953	397.333333
1060.246110	374.333333
1062.384591	447.333333
1064.518718	404.666667
1066.652332	426.333333
1068.787351	431.333333
1070.918020	398.666667
1073.050094	425.666667
1075.179739	373.666667
1077.308872	395.000000
1079.437493	358.333333
1081.565603	343.666667
1083.691287	379.666667
1085.816461	373.000000
1087.943039	390.000000
1090.065279	389.333333
1092.188924	398.333333
1094.308234	403.333333
1096.432774	364.666667
1098.551068	344.333333
1100.670767	354.333333
1102.788047	394.000000
1104.904821	350.000000
1107.021088	367.333333
1109.134939	389.333333
1111.250195	350.000000
1113.361127	330.666667
1115.475372	360.000000
1117.585296	380.666667
1119.696624	374.666667
1121.807447	368.333333
1123.913954	390.333333
1126.023771	378.000000
1128.129273	354.666667
1130.236178	353.333333
1132.336868	346.666667
1134.442770	348.333333
1136.544363	348.333333
1138.647359	342.666667
1140.749854	330.666667
1142.846142	318.000000
1144.947637	350.666667
1147.044830	333.000000
1149.141525	372.666667
1151.237721	334.333333
1153.333420	356.333333
1155.428620	346.666667
1157.521424	329.333333
1159.615631	366.666667
1161.703646	334.666667
1163.796859	327.333333
1165.883884	319.333333
1167.974208	319.666667
1170.060244	355.666667
1172.149579	295.333333
1174.232732	317.666667
1176.317287	261.666667
1178.403244	315.333333
1180.484919	329.666667
1182.567996	304.333333
1184.648687	342.666667
1186.728886	339.000000
1188.808594	336.333333
1190.887811	335.333333
1192.964646	311.000000
1195.039100	331.333333
1197.116845	327.666667
1199.190321	351.333333
1201.265197	327.333333
1203.335806	329.000000
1205.407816	327.000000
1207.477451	297.333333
1209.548486	306.666667
1211.619033	348.666667
1213.685319	290.333333
1215.753006	312.333333
1217.818321	311.333333
1219.885036	306.666667
1221.947495	312.666667
1224.013239	309.333333
1226.074729	301.333333
1228.137620	354.000000
1230.198143	328.666667
1232.258182	312.666667
1234.317739	306.000000
1236.374930	355.333333
1238.431640	296.000000
1240.485986	354.333333
1242.543614	361.000000
1244.598879	325.000000
1246.649903	385.333333
1248.702327	281.333333
1250.754271	302.333333
1252.803857	314.666667
1254.852964	313.000000
1256.901593	314.333333
1258.949743	327.000000
1260.997414	306.333333
1263.040855	310.666667
1265.087572	377.000000
1267.131935	309.666667
1269.175822	340.000000
1271.217357	347.333333
1273.256543	334.666667
1275.299002	306.666667
1277.337238	352.666667
1279.376873	342.666667
1281.416033	286.000000
1283.450974	370.000000
1285.487314	315.666667
1287.521310	333.000000
1289.556703	327.000000
1291.587884	285.000000
1293.620462	325.666667
1295.652569	323.333333
1297.682335	303.333333
1299.713498	312.333333
1301.740455	290.666667
1303.768809	289.666667
1305.792958	296.666667
1307.820373	325.666667
1309.843585	295.333333
1311.868195	297.333333
1313.890471	329.333333
1315.914144	274.333333
1317.935484	315.666667
1319.956356	323.333333
1321.976761	318.666667
1323.992973	307.333333
1326.010582	302.666667
1328.025863	288.000000
1330.044403	313.666667
1332.058754	288.333333
1334.070779	301.666667
1336.086061	282.666667
1338.097158	342.000000
1340.109652	333.000000
1342.117963	335.666667
1344.129529	355.333333
1346.135057	340.000000
1348.143840	343.000000
1350.148445	340.333333
1352.156304	339.666667
1354.163701	340.333333
1356.165067	354.000000
1358.167829	323.000000
1360.170132	313.666667
1362.171975	323.000000
1364.173358	310.000000
1366.172428	331.000000
1368.171039	353.666667
1370.169192	315.333333
1372.166886	344.666667
1374.160418	307.666667
1376.155345	271.666667
1378.149816	347.666667
1380.143830	258.333333
1382.135537	335.666667
1384.126789	304.000000
1386.115735	297.666667
1388.106076	312.000000
1390.095962	292.333333
1392.083544	318.000000
1394.070673	285.666667
1396.055500	292.333333
1398.041722	274.000000
1400.025644	293.000000
1402.009113	304.666667
1403.992129	274.666667
1405.972848	323.666667
1407.954961	261.000000
1409.934778	285.333333
1411.914143	268.000000
1413.889370	294.666667
1415.867835	281.666667
1417.844007	299.333333
1419.819730	324.333333
1421.795003	288.333333
1423.767985	303.333333
1425.740519	295.333333
1427.712605	293.000000
1429.684244	322.000000
1431.651754	279.000000
1433.624338	293.000000
1435.589116	273.666667
1437.558967	279.666667
1439.524694	295.333333
1441.491813	280.000000
1443.456649	272.000000
1445.417365	329.666667
1447.383149	308.666667
1449.342978	323.333333
1451.304201	305.666667
1453.266816	308.666667
1455.225316	295.666667
1457.183373	293.666667
1459.140989	331.000000
1461.098162	283.333333
1463.053060	309.666667
1465.009351	308.000000
1466.963367	312.000000
1468.916942	297.000000
1470.868245	306.000000
1472.820941	280.000000
1474.771364	264.333333
1476.721349	337.333333
1478.670895	280.333333
1480.618172	265.333333
1482.563181	298.333333
1484.509583	288.333333
1486.455547	289.666667
1488.401074	308.333333
1490.344335	311.333333
1492.287161	286.000000
1494.227723	271.333333
1496.169676	286.666667
1498.109367	263.000000
1500.048624	300.000000
1501.987445	263.666667
1503.924007	269.666667
1505.861960	303.333333
1507.797654	261.000000
1509.732915	287.333333
1511.665920	276.000000
1513.598492	296.666667
1515.530632	326.666667
1517.462340	327.333333
1519.391794	303.333333
1521.322639	295.000000
1523.253052	335.000000
1525.179393	320.333333
1527.107125	294.000000
1529.032606	318.333333
1530.957658	302.666667
1532.882281	319.000000
1534.806475	317.000000
1536.728421	291.666667
1538.651758	333.333333
1540.572848	361.000000
1542.491694	351.333333
1544.411930	335.000000
1546.329923	343.333333
1548.247489	298.666667
1550.162813	353.333333
1552.079527	413.666667
1553.992186	371.333333
1555.908049	387.666667
1557.821672	423.333333
1559.733057	404.666667
1561.645832	451.333333
1563.554557	433.000000
1565.464671	519.666667
1567.374362	549.666667
1569.283630	603.000000
1571.190664	744.000000
1573.095465	815.666667
1575.001655	981.666667
1576.905613	1124.666667
1578.809150	1250.333333
1580.712267	1405.666667
1582.613154	1525.333333
1584.515430	1394.333333
1586.415478	1347.000000
1588.316913	1142.333333
1590.214315	923.333333
1592.111298	811.666667
1594.007863	683.666667
1595.905816	587.333333
1597.797934	525.000000
1599.693245	523.000000
1601.588139	442.666667
1603.480811	418.333333
1605.373066	420.333333
1607.263102	427.000000
1609.152722	385.666667
1611.041927	359.333333
1612.930717	357.666667
1614.817289	385.333333
1616.705249	346.666667
1618.589192	322.000000
1620.474522	356.666667
1622.359439	347.333333
1624.242142	334.666667
1626.126232	316.666667
1628.006310	334.666667
1629.887776	301.666667
1631.767031	298.333333
1633.647672	292.000000
1635.522509	264.000000
1637.402327	273.333333
1639.278141	289.333333
1641.153544	269.333333
1643.030333	250.000000
1644.901326	290.000000
1646.775500	296.000000
1648.645675	264.333333
1650.519032	284.666667
1652.390184	279.000000
1654.259136	297.333333
1656.129472	271.000000
1657.995816	274.000000
1659.863545	260.333333
1661.729075	261.333333
1663.595991	222.000000
1665.458918	274.000000
1667.323230	272.666667
1669.185346	276.666667
1671.047057	262.333333
1672.910154	255.000000
1674.771055	254.666667
1676.629764	233.000000
1678.488069	237.666667
1680.347759	240.000000
1682.201681	245.333333
1684.058777	230.000000
1685.915470	250.666667
1687.768186	230.000000
1689.624074	219.666667
1691.475988	230.000000
1693.327501	237.666667
1695.178613	241.000000
1697.029325	243.666667
1698.879635	220.333333
1700.727762	215.666667
1702.577273	202.333333
1704.421035	218.000000
1706.269746	242.333333
1708.112711	248.000000
1709.958843	228.000000
1711.801012	225.666667
1713.646347	217.000000
1715.485941	210.000000
1717.326919	242.000000
1719.169280	216.666667
1721.007685	222.666667
1722.847473	207.000000
1724.685086	241.666667
1726.522303	200.666667
1728.357347	222.000000
1730.193774	246.333333
1732.028029	183.333333
1733.861889	217.000000
1735.695355	214.000000
1737.524876	211.000000
1739.357555	218.000000
1741.186290	228.000000
1743.018182	196.000000
1744.846132	229.000000
1746.673691	224.666667
1748.500857	187.000000
1750.327632	218.000000
1752.154015	205.333333
1753.976462	220.333333
1755.802064	191.333333
1757.623731	197.000000
1759.446780	237.666667
1761.267667	201.333333
1763.088166	196.333333
1764.910045	225.000000
1766.726226	184.000000
1768.545558	242.333333
1770.360963	207.333333
1772.179518	237.333333
1773.994148	213.666667
1775.808391	194.333333
1777.622248	215.666667
1779.435718	201.000000
1781.247035	241.333333
1783.059732	237.666667
1784.872044	210.333333
1786.680438	222.666667
1788.490212	223.000000
1790.296072	229.666667
1792.105077	200.000000
1793.910169	224.000000
1795.716642	190.000000
1797.522731	215.666667
1799.324909	198.666667
1801.130232	224.000000
1802.931646	189.333333
1804.734440	214.000000
1806.533328	206.000000
1808.333597	226.000000
1810.133484	230.333333
1811.931229	226.000000
1813.728594	223.333333
1815.525579	218.333333
1817.322183	211.666667
1819.116648	154.000000
1820.912492	230.333333
1822.702681	241.333333
1824.497767	225.333333
1826.287201	223.333333
1828.079771	203.333333
1829.870206	200.000000
1831.658507	206.000000
1833.449943	211.000000
1835.235733	191.666667
1837.022903	241.666667
1838.807941	232.666667
1840.596113	223.333333
1842.380399	234.333333
1844.162555	212.666667
1845.946091	222.000000
1847.727498	212.000000
1849.510284	242.333333
1851.289189	227.333333
1853.069474	182.000000
1854.847632	242.666667
1856.627169	280.333333
1858.404581	222.666667
1860.179869	212.666667
1861.956535	223.000000
1863.731079	191.333333
1865.507001	210.333333
1867.277302	219.333333
1869.050731	210.000000
1870.822040	230.666667
1872.592978	242.333333
1874.365294	202.333333
1876.131996	209.666667
1877.901824	224.333333
1879.667788	219.666667
1881.436875	239.333333
1883.202101	208.000000
1884.966959	210.000000
1886.733194	259.000000
1888.495570	213.000000
1890.257579	219.333333
1892.019220	185.333333
1893.780495	229.666667
1895.541402	224.333333
1897.301943	246.000000
1899.060374	200.000000
1900.818439	182.666667
1902.574397	230.000000
1904.331731	236.333333
1906.088700	219.000000
1907.843562	190.000000
1909.596320	189.000000
1911.348713	208.333333
1913.102483	176.333333
1914.854149	209.666667
1916.603713	174.666667
1918.354652	201.333333
1920.105229	218.333333
1921.851966	197.666667
1923.600080	201.000000
1925.346094	230.333333
1927.093483	182.333333
1928.838775	198.666667
1930.581969	197.000000
1932.326538	204.000000
1934.069012	221.666667
1935.811125	176.000000
1937.552878	184.333333
1939.294271	213.000000
1941.033571	208.000000
1942.772512	207.000000
1944.511094	204.333333
1946.247585	189.333333
1947.983718	190.666667
1949.721225	192.000000
1951.454910	213.666667
1953.189970	188.000000
1954.922941	191.000000
1956.655556	152.333333
1958.387815	197.333333
1960.119717	173.000000
1961.849533	197.000000
1963.577264	208.000000
1965.306370	195.333333
1967.035121	216.333333
1968.761788	189.333333
1970.488101	196.333333
1972.215787	185.666667
1973.937937	197.666667
1975.663188	209.666667
1977.384632	201.333333
1979.109177	192.666667
1980.831641	188.000000
1982.550303	208.000000
1984.272063	218.000000
1985.990021	191.000000
1987.709352	208.333333
1989.424884	199.666667
1991.145236	164.000000
1992.861790	225.000000
1994.574547	233.333333
1996.290400	212.000000
1998.004181	232.000000
1999.717612	216.000000
2001.428972	209.333333
2003.141704	211.000000
2004.850646	212.000000
2006.562680	190.666667
2008.269206	198.333333
2009.978823	180.666667
2011.686374	194.333333
2013.393576	224.000000
2015.098713	189.000000
2016.803504	238.333333
2018.509666	206.333333
2020.212046	188.000000
2021.915797	172.666667
2023.617486	225.000000
2025.318830	206.333333
2027.019828	224.333333
2028.718765	196.333333
2030.419074	199.333333
2032.115608	192.333333
2033.813513	213.333333
2035.509359	180.333333
2037.208291	231.333333
2038.901737	216.000000
2040.596554	205.000000
2042.291029	170.666667
2043.981735	234.000000
2045.675525	197.333333
2047.365548	175.333333
2049.056942	203.666667
2050.746283	203.666667
2052.436994	209.666667
2054.123942	189.333333
2055.810551	187.000000
2057.498529	181.666667
2059.182748	200.333333
2060.868338	206.000000
2062.553588	195.000000
2064.236789	187.000000
2065.921361	176.666667
2067.600470	227.000000
2069.284364	196.666667
2070.962797	193.666667
2072.644308	213.000000
2074.322067	203.000000
2075.999490	174.666667
2077.678282	183.333333
2079.355032	220.666667
2081.029740	220.666667
2082.705817	191.000000
2084.379853	208.000000
2086.053555	186.333333
2087.726921	192.333333
2089.398248	201.000000
2091.069241	160.333333
2092.739900	157.333333
2094.410225	199.333333
2096.080216	205.666667
2097.748171	211.666667
2099.415793	188.000000
2101.081380	184.000000
2102.748336	180.666667
2104.413259	182.000000
2106.077850	195.000000
2107.740409	166.333333
2109.404336	170.000000
2111.066232	168.333333
2112.727798	194.333333
2114.389032	206.333333
2116.048238	183.000000
2117.707113	184.666667
2119.365659	186.333333
2121.023874	206.000000
2122.678367	205.666667
2124.335924	178.666667
2125.993152	180.333333
2127.646658	207.333333
2129.301532	197.666667
2130.952687	179.000000
2132.606905	188.000000
2134.257406	197.000000
2135.909273	175.333333
2137.555732	193.666667
2139.206946	178.333333
2140.854446	202.000000
2142.503313	183.666667
2144.150161	182.333333
2145.796684	185.333333
2147.442881	185.333333
2149.085370	190.000000
2150.730917	203.666667
2152.372757	194.000000
2154.017654	214.333333
2155.658845	206.000000
2157.299714	198.333333
2158.940258	181.666667
2160.578790	203.000000
2162.218688	201.666667
2163.854886	186.333333
2165.492450	191.666667
2167.129692	180.000000
2168.764924	214.666667
2170.399835	190.000000
2172.034423	207.000000
2173.668691	212.333333
2175.299265	233.333333
2176.932891	198.666667
2178.562825	163.333333
2180.194124	200.000000
2181.823418	176.666667
2183.452393	162.333333
2185.081048	160.333333
2186.709384	221.000000
2188.335718	178.000000
2189.961733	193.000000
2191.585746	177.666667
2193.211125	185.666667
2194.834503	194.666667
2196.459246	184.333333
2198.080308	184.666667
2199.701053	188.000000
2201.323163	192.000000
2202.943275	179.666667
2204.561390	158.333333
2206.179190	183.000000
2207.796675	200.333333
2209.413844	193.666667
2211.030698	156.666667
2212.647236	193.000000
2214.261782	220.333333
2215.874335	186.000000
2217.488252	183.333333
2219.100178	206.333333
2220.713467	197.000000
2222.324766	181.666667
2223.934075	189.666667
2225.544748	175.333333
2227.153432	180.000000
2228.761803	175.666667
2230.368188	193.666667
2231.975936	170.666667
2233.581697	185.000000
2235.187147	189.333333
2236.790612	167.000000
2238.395440	221.000000
2239.998284	159.666667
2241.599145	177.000000
2243.201369	194.000000
2244.801611	162.000000
2246.403215	183.000000
2248.001166	204.666667
2249.600480	176.000000
2251.197814	168.666667
2252.794840	223.666667
2254.393228	190.666667
2255.987967	181.666667
2257.580729	183.000000
2259.174854	181.333333
2260.770340	181.666667
2262.362181	175.000000
2263.953716	191.333333
2265.546613	197.666667
2267.134200	191.333333
2268.726483	182.666667
2270.313460	185.666667
2271.903464	181.000000
2273.488164	199.333333
2275.077558	207.666667
2276.661650	180.000000
2278.247102	173.666667
2279.830586	185.666667
2281.417095	220.666667
2282.999971	191.333333
2284.582544	172.666667
2286.164813	178.333333
2287.743452	208.333333
2289.325116	165.333333
2290.903151	141.666667
2292.484209	169.333333
2294.061640	178.333333
2295.637108	187.333333
2297.215598	161.333333
2298.790464	200.000000
2300.365029	184.666667
2301.939294	156.333333
2303.513258	135.333333
2305.086921	202.666667
2306.660285	173.000000
2308.230030	188.666667
2309.799476	198.000000
2311.371940	135.666667
2312.939130	152.333333
2314.509338	164.666667
2316.075931	144.666667
2317.643884	195.666667
2319.209881	163.666667
2320.775581	183.666667
2322.340983	173.666667
2323.904432	211.333333
2325.469240	202.666667
2327.030440	187.666667
2328.594654	175.333333
2330.153606	182.333333
2331.715573	204.000000
2333.275588	226.000000
2334.835309	192.000000
2336.393080	193.666667
2337.950556	165.333333
2339.507738	173.333333
2341.062972	180.000000
2342.617913	166.000000
2344.172559	193.333333
2345.726912	160.666667
2347.280972	201.666667
2348.834737	182.666667
2350.386558	172.333333
2351.936437	191.333333
2353.489323	173.000000
2355.036966	173.000000
2356.587618	160.666667
2358.134678	161.666667
2359.683096	167.666667
2361.231223	184.666667
2362.775761	175.333333
2364.321657	186.333333
2365.865615	159.000000
2367.410930	172.666667
2368.952660	147.000000
2370.495747	149.000000
2372.036898	160.666667
2373.577760	160.666667
2375.118333	185.000000
2376.658617	170.000000
2378.198612	216.666667
2379.735029	183.333333
2381.274447	151.000000
2382.810287	182.666667
2384.347485	193.000000
2385.881107	189.666667
2387.417729	211.000000
2388.952421	135.333333
2390.485183	190.666667
2392.017658	146.000000
2393.548205	176.000000
2395.081750	192.666667
2396.610084	178.333333
2398.139774	172.000000
2399.669179	208.333333
2401.198299	181.333333
2402.727134	153.333333
2404.250763	186.666667
2405.779028	176.000000
2407.302091	174.333333
2408.829787	156.000000
2410.350644	164.666667
2411.876134	185.333333
2413.398063	201.666667
2414.921348	148.333333
2416.442711	179.333333
2417.962155	189.666667
2419.482954	171.333333
2421.001835	182.333333
2422.520433	206.333333
2424.037114	200.333333
2425.555149	182.333333
2427.072903	175.333333
2428.587106	208.666667
2430.101028	175.666667
2431.614670	218.000000
2433.129667	189.000000
2434.641115	202.333333
2436.153918	200.000000
2437.664807	204.333333
2439.175418	208.666667
2440.684117	227.000000
2442.195802	197.333333
2443.703944	197.333333
2445.211808	229.666667
2446.719394	272.333333
2448.223439	235.666667
2449.730469	251.333333
2451.235591	262.000000
2452.740436	249.666667
2454.243374	260.333333
2455.746036	278.666667
2457.248421	253.666667
2458.748901	295.333333
2460.250734	233.666667
2461.750662	264.333333
2463.250315	220.666667
2464.749693	206.666667
2466.247168	241.666667
2467.742741	219.333333
2469.241294	224.666667
2470.736319	187.333333
2472.232696	177.666667
2473.725547	168.333333
2475.219751	216.333333
2476.713681	198.666667
2478.204087	210.666667
2479.697471	227.666667
2481.188957	199.000000
2482.678546	183.666667
2484.167863	227.666667
2485.655284	223.333333
2487.145681	225.666667
2488.632560	218.666667
2490.120790	214.666667
2491.605503	194.333333
2493.089947	202.333333
2494.575741	206.666667
2496.059644	181.333333
2497.544897	165.666667
2499.025017	184.000000
2500.508110	167.333333
2501.989312	158.000000
2503.470245	174.333333
2504.949289	188.333333
2506.428064	205.000000
2507.906571	160.333333
2509.384810	187.000000
2510.862780	177.666667
2512.337245	169.333333
2513.814680	146.333333
2515.288611	186.333333
2516.763892	182.666667
2518.238906	177.000000
2519.710419	170.000000
2521.183283	195.666667
2522.654264	160.666667
2524.126595	176.666667
2525.593812	147.666667
2527.063996	189.333333
2528.532299	171.666667
2530.000337	179.333333
2531.468110	207.333333
2532.935618	184.000000
2534.402861	175.000000
2535.866612	183.666667
2537.331713	148.333333
2538.794937	183.666667
2540.259510	178.666667
2541.720595	206.000000
2543.183029	185.333333
2544.645200	181.000000
2546.103885	200.666667
2547.567141	162.666667
2549.025302	196.666667
2550.484811	184.000000
2551.939226	186.333333
2553.398212	209.666667
2554.855326	171.666667
2556.310569	154.666667
2557.765550	186.000000
2559.218663	189.333333
2560.673124	192.333333
2562.125715	179.000000
2563.578047	186.000000
2565.028512	183.000000
2566.481932	167.666667
2567.930270	169.000000
2569.381563	157.666667
2570.830991	189.333333
2572.276946	133.000000
2573.725856	172.333333
2575.171296	211.000000
2576.618083	171.000000
2578.063008	190.000000
2579.507674	149.333333
2580.953688	180.333333
2582.396236	166.000000
2583.840131	187.000000
2585.280561	201.666667
2586.722338	222.333333
2588.162256	223.000000
2589.603521	166.333333
2591.041324	176.333333
2592.482077	187.666667
2593.917768	176.333333
2595.356408	163.333333
2596.793190	185.333333
2598.228117	166.666667
2599.665991	169.666667
2601.098808	222.666667
2602.532972	169.666667
2603.965282	191.333333
2605.398938	166.666667
2606.830741	178.333333
2608.262290	182.000000
2609.693587	219.000000
2611.123031	187.000000
2612.552223	198.666667
2613.979565	221.333333
2615.408252	211.666667
2616.836688	188.000000
2618.261676	211.000000
2619.688011	176.000000
2621.112497	220.000000
2622.538329	223.333333
2623.960717	223.333333
2625.384451	216.000000
2626.806338	237.000000
2628.227976	233.666667
2629.647768	247.666667
2631.068906	216.333333
2632.489794	216.666667
2633.907244	283.666667
2635.327633	265.666667
2636.744585	272.000000
2638.161288	272.000000
2639.577743	278.666667
2640.993950	271.666667
2642.409909	300.666667
2643.824027	326.666667
2645.237897	329.000000
2646.649929	297.333333
2648.063304	374.666667
2649.473250	374.333333
2650.886132	320.333333
2652.295585	374.666667
2653.704792	405.000000
2655.112163	435.333333
2656.522468	448.000000
2657.930938	472.333333
2659.337572	519.000000
2660.743961	532.333333
2662.148516	593.333333
2663.554415	593.666667
2664.958481	718.000000
2666.362302	718.666667
2667.765879	758.666667
2669.167625	864.333333
2670.570714	1001.000000
2671.970385	1112.333333
2673.371400	1230.666667
2674.768999	1320.666667
2676.169527	1440.666667
2677.566641	1515.333333
2678.965098	1671.333333
2680.361728	1712.000000
2681.758115	1793.000000
2683.154260	1964.666667
2684.548579	1936.000000
2685.944241	1966.333333
2687.336494	1924.000000
2688.730089	1899.333333
2690.121860	1868.333333
2691.514974	1708.333333
2692.906264	1695.666667
2694.295731	1540.666667
2695.684958	1428.333333
2697.073946	1350.000000
2698.464275	1247.000000
2699.849621	1110.333333
2701.237890	1039.666667
2702.624339	949.666667
2704.010549	889.000000
2705.396520	781.000000
2706.779093	758.333333
2708.163008	648.666667
2709.546685	599.333333
2710.930123	582.666667
2712.310167	537.000000
2713.691551	502.666667
2715.071121	473.333333
2716.452031	439.333333
2717.831127	435.333333
2719.208409	410.000000
2720.587032	407.333333
2721.963842	383.666667
2723.340415	366.333333
2724.716753	347.666667
2726.091280	336.000000
2727.467147	291.666667
2728.839627	281.666667
2730.215023	281.333333
2731.585459	281.666667
2732.957236	255.333333
2734.328778	252.666667
2735.698512	222.666667
2737.069587	256.666667
2738.438853	232.333333
2739.807886	250.333333
2741.175113	233.000000
2742.542106	239.000000
2743.908867	174.000000
2745.275396	202.000000
2746.640119	204.333333
2748.004610	238.000000
2749.368870	218.000000
2750.732897	202.666667
2752.096693	156.333333
2753.457115	207.666667
2754.820447	199.666667
2756.178837	190.333333
2757.540137	138.000000
2758.898067	154.000000
2760.258905	161.333333
2761.617944	178.000000
2762.973614	190.333333
2764.332192	179.333333
2765.687403	159.666667
2767.042385	192.666667
2768.395571	201.000000
2769.751662	178.333333
2771.104390	134.333333
2772.456890	178.666667
2773.809161	153.000000
2775.162770	201.666667
2776.513019	204.666667
2777.861473	222.000000
2779.212833	161.333333
2780.560833	173.000000
2781.910171	191.666667
2783.257717	183.000000
2784.605037	171.000000
2785.952130	174.000000
2787.297432	158.333333
2788.642507	182.333333
2789.987357	184.333333
2791.331981	162.000000
2792.673253	171.000000
2794.015863	142.000000
2795.358247	171.666667
2796.700406	165.000000
2798.039216	188.333333
2799.380926	161.333333
2800.719288	207.666667
2802.058986	177.000000
2803.396900	155.333333
2804.733029	167.333333
2806.068934	155.333333
2807.406177	151.000000
2808.741636	115.000000
2810.076872	138.333333
2811.410325	163.000000
2812.745115	152.333333
2814.076565	163.333333
2815.410910	151.000000
2816.740357	157.333333
2818.071141	176.000000
2819.401703	165.000000
2820.730486	161.000000
2822.060605	188.000000
2823.388946	152.333333
2824.717066	167.000000
2826.043408	146.000000
2827.371087	161.000000
2828.695432	163.000000
2830.021114	147.333333
2831.345020	173.333333
2832.668707	182.000000
2833.993729	189.000000
2835.315421	137.666667
2836.636895	132.333333
2837.958150	159.000000
2839.279186	162.333333
2840.598449	158.000000
2841.919048	141.333333
2843.237876	143.666667
2844.556485	156.000000
2845.873323	179.000000
2847.189944	158.000000
2848.506348	144.000000
2849.820982	127.666667
2851.136952	167.333333
2852.449601	141.333333
2853.763585	127.333333
2855.077353	148.000000
2856.390904	168.000000
2857.702689	135.333333
2859.012707	148.000000
2860.324060	170.333333
2861.632098	178.333333
2862.941470	129.000000
2864.250628	151.666667
2865.559570	131.000000
2866.866748	153.333333
2868.172164	136.666667
2869.478913	161.000000
2870.783901	168.333333
2872.088675	159.333333
2873.391687	156.000000
2874.697580	149.666667
2875.998619	163.000000
2877.300992	135.333333
2878.601605	146.000000
2879.903552	142.666667
2881.205285	172.000000
2882.503715	107.000000
2883.803478	166.000000
2885.101484	117.333333
2886.399278	146.000000
2887.695316	110.000000
2888.992687	117.666667
2890.288302	139.666667
2891.583706	164.333333
2892.878899	150.666667
2894.170795	167.333333
2895.465567	119.000000
2896.757042	109.000000
2898.049850	144.666667
2899.342448	112.333333
2900.631752	156.666667
2901.922388	122.333333
2903.211273	106.666667
2904.501490	135.000000
2905.788416	129.333333
2907.076674	107.000000
2908.363183	129.666667
2909.649483	106.000000
2910.935576	113.666667
2912.219920	127.333333
2913.507135	143.333333
2914.789524	135.000000
2916.073245	136.000000
2917.355220	153.000000
2918.636987	107.000000
2919.917010	117.666667
2921.199902	132.333333
2922.481049	159.000000
2923.758914	135.333333
2925.039648	143.000000
2926.317101	129.333333
2927.594348	141.333333
2928.869853	101.000000
2930.148226	109.666667
2931.421785	128.333333
2932.698211	83.000000
2933.972896	124.333333
2935.245840	129.666667
2936.520116	133.333333
2937.792652	132.666667
2939.064983	145.333333
2940.334042	98.333333
2941.605966	116.666667
2942.876152	124.666667
2944.146134	136.000000
2945.415913	133.666667
2946.683956	128.000000
2947.950262	102.333333
2949.216367	148.666667
2950.483801	83.333333
2951.749501	137.000000
2953.014998	111.333333
2954.280293	139.666667
2955.542323	142.666667
2956.805683	90.666667
2958.068842	115.000000
2959.330269	133.666667
2960.593025	116.666667
2961.854049	69.333333
2963.113343	101.333333
2964.372437	129.000000
2965.631330	109.666667
2966.890023	119.000000
2968.148516	131.000000
2969.405280	143.333333
2970.661844	101.333333
2971.916681	94.333333
2973.172846	115.000000
2974.425757	130.000000
2975.679997	159.000000
2976.934037	133.666667
2978.186353	123.333333
2979.438469	121.333333
2980.688861	124.000000
2981.942108	83.666667
2983.190578	113.000000
2984.441903	108.666667
2985.689978	122.666667
2986.937857	128.333333
2988.185538	100.000000
2989.433022	121.000000
2990.678785	110.333333
2991.924352	102.333333
2993.171246	115.666667
2994.414896	127.666667
2995.659874	108.000000
2996.901608	128.333333
2998.146194	135.000000
2999.389061	104.000000
3000.628687	121.000000
3001.871163	130.000000
3003.110399	134.666667
3004.350963	140.666667
3005.589810	125.333333
3006.828463	105.666667
3008.065400	131.666667
3009.303665	133.666667
3010.540214	145.000000
3011.776570	116.000000
3013.012732	133.666667
3014.247180	112.000000
3015.481436	136.666667
3016.715498	94.333333
3017.947848	110.000000
3019.178486	106.333333
3020.411970	129.333333
3021.643742	120.000000
3022.873804	111.666667
3024.103673	129.333333
3025.331833	122.000000
3026.561320	128.000000
3027.789097	137.333333
3029.016683	127.666667
3030.245596	134.666667
3031.469766	125.000000
3032.696779	120.666667
3033.920568	104.333333
3035.145684	129.000000
3036.369093	131.000000
3037.592312	108.000000
3038.813826	97.666667
3040.038181	102.000000
3041.257801	114.333333
3042.478747	72.000000
3043.699504	100.000000
3044.918557	99.333333
3046.138935	113.666667
3047.356097	137.000000
3048.574585	76.666667
3049.791370	108.666667
3051.007968	102.666667
3052.224377	119.333333
3053.437574	111.000000
3054.653608	103.333333
3055.866430	77.666667
3057.082089	94.000000
3058.293025	90.333333
3059.505286	133.666667
3060.717361	98.333333
3061.929248	128.666667
3063.139439	105.666667
3064.349443	117.000000
3065.559261	101.333333
3066.767383	87.000000
3067.975320	108.333333
3069.181561	105.000000
3070.389127	112.666667
3071.594998	113.166667
3072.800685	113.666667
3074.006186	125.666667
3075.209994	80.666667
3076.415126	94.333333
3077.618565	80.333333
3078.820313	108.666667
3080.021876	111.666667
3081.223256	92.000000
3082.424452	101.000000
3083.623958	90.333333
3084.823281	82.333333
3086.023927	112.000000
3087.222883	111.000000
3088.418645	93.000000
3089.617236	116.666667
3090.812633	81.333333
3092.009353	103.333333
3093.202881	98.666667
3094.399237	78.000000
3095.593907	71.666667
3096.785385	93.000000
3097.981196	121.333333
3099.172312	74.000000
3100.364752	134.333333
3101.554004	129.666667
3102.746081	96.666667
3103.936475	134.666667
3105.123683	82.666667
3106.312213	103.333333
3107.502066	99.666667
3108.688735	73.000000
3109.875223	79.333333
3111.061533	107.000000
3112.249164	75.666667
3113.433613	108.666667
3114.616383	57.333333
3115.801975	90.000000
3116.985888	106.333333
3118.168122	101.666667
3119.350177	140.000000
3120.532054	112.000000
3121.713753	98.333333
3122.893775	85.000000
3124.072120	96.000000
3125.253285	89.666667
3126.431275	109.333333
3127.609089	78.333333
3128.786725	84.000000
3129.962686	47.666667
3131.138470	101.000000
3132.315576	118.000000
3133.491007	105.000000
3134.664765	124.333333
3135.836850	130.000000
3137.010257	82.666667
3138.183487	100.000000
3139.355046	110.666667
3140.527925	122.333333
3141.697637	55.666667
3142.868670	109.000000
3144.038033	75.666667
3145.205725	61.333333
3146.376233	69.000000
3147.542083	108.666667
3148.712241	131.000000
3149.877743	106.000000
3151.043070	84.666667
3152.208224	101.000000
3153.373205	119.666667
3154.539505	92.333333
3155.701153	109.000000
3156.864120	92.666667
3158.026915	106.000000
3159.189537	113.333333
3160.350494	101.333333
3161.511278	100.000000
3162.671890	89.666667
3163.830838	107.000000
3164.989615	74.000000
3166.148220	89.666667
3167.306652	80.333333
3168.464914	122.333333
3169.621513	110.000000
3170.776451	98.333333
3171.932708	109.333333
3173.087304	88.333333
3174.241730	82.333333
3175.394496	83.000000
3176.547091	112.666667
3177.699517	114.666667
3178.851773	109.000000
3180.003858	103.666667
3181.152798	97.333333
3182.304544	111.000000
3183.454632	74.333333
3184.603064	62.333333
3185.751326	114.000000
3186.899420	103.333333
3188.047345	110.333333
3189.193614	107.666667
3190.339715	85.333333
3191.484162	71.333333
3192.628441	86.000000
3193.772552	108.333333
3194.917980	91.000000
3196.060270	82.000000
3197.202393	120.333333
3198.344348	104.333333
3199.486136	88.000000
3200.627757	129.666667
3201.766243	87.000000
3202.906046	91.666667
3204.047167	92.000000
3205.185153	109.000000
3206.321490	66.666667
3207.457661	73.333333
3208.595149	115.333333
3209.730989	111.000000
3210.868146	123.000000
3212.000690	100.333333
3213.137516	115.333333
3214.269730	85.666667
3215.403261	80.000000
3216.536628	124.333333
3217.666867	103.000000
3218.799904	110.333333
3219.929815	89.000000
3221.061042	112.000000
3222.189145	114.666667
3223.320044	109.333333
3224.449299	106.000000
3225.576911	121.333333
3226.701400	114.000000
3227.830165	93.000000
3228.955808	101.666667
3230.081289	114.000000
3231.205128	90.333333
3232.331761	116.666667
3233.453797	106.333333
3234.577149	133.666667
3235.700339	97.666667
3236.823366	145.000000
3237.944755	127.000000
3239.065981	142.666667
3240.185570	143.666667
3241.304997	123.666667
3242.422786	131.333333
3243.543367	168.333333
3244.660835	138.666667
3245.778142	145.000000
3246.895289	173.666667
3248.010800	175.666667
3249.127625	128.666667
3250.241341	125.333333
3251.357846	138.000000
3252.472717	110.333333
3253.584479	104.333333
3254.696081	126.000000
3255.808999	140.000000
3256.921757	90.333333
3258.031409	121.000000
3259.142376	100.000000
3260.253184	75.000000
3261.362360	108.000000
3262.469906	111.333333
3263.578765	115.666667
3264.687467	66.666667
3265.793066	93.333333
3266.899979	102.666667
3268.005263	90.000000
3269.111861	67.000000
3270.215359	71.666667
3271.320172	92.666667
3272.424827	61.000000
3273.526383	53.000000
3274.627783	97.666667
3275.730497	57.000000
3276.833055	97.666667
3277.932516	100.333333
3279.034761	53.333333
3280.133910	71.666667
3281.231435	77.333333
3282.328804	91.666667
3283.428955	86.666667
3284.526014	80.666667
3285.622917	79.666667
3286.719665	114.666667
3287.811855	88.000000
3288.908293	75.333333
3290.003109	75.333333
3291.097771	45.666667
3292.190811	97.333333
3293.283696	93.000000
3294.374962	57.666667
3295.467539	81.333333
3296.558497	123.333333
3297.647835	108.666667
3298.737020	75.000000
3299.827518	90.000000
3300.914931	94.000000
3302.002191	82.666667
3303.090764	107.000000
3304.179185	99.333333
3305.263058	75.666667
3306.351173	89.000000
3307.436206	73.000000
3308.519624	100.000000
3309.604354	113.333333
3310.687468	98.000000
3311.771895	92.666667
3312.853243	117.000000
3313.935903	86.666667
3315.016949	71.666667
3316.097844	80.666667
3317.177125	91.666667
3318.256256	94.666667
3319.336699	114.666667
3320.414067	94.333333
3321.492747	102.333333
3322.569815	86.333333
3323.646734	73.333333
3324.722041	124.000000
3325.797199	85.666667
3326.873668	86.333333
3327.947067	86.000000
3329.020317	64.333333
3330.094877	96.666667
3331.167829	78.333333
3332.239172	77.666667
3333.311826	120.333333
3334.381414	72.333333
3335.452312	75.333333
3336.521603	107.000000
3337.592205	89.333333
3338.661200	85.000000
3339.728589	87.666667
3340.794373	72.333333
3341.864383	113.000000
3342.931330	118.666667
3343.995215	86.666667
3345.061868	107.666667
3346.126916	115.666667
3347.190361	81.000000
3348.253660	81.000000
3349.316812	106.000000
3350.379818	61.666667
3351.442678	91.333333
3352.503936	64.000000
3353.562137	90.333333
3354.624558	82.333333
3355.683924	67.333333
3356.743144	75.666667
3357.803673	90.000000
3358.859694	83.666667
3359.918478	115.333333
3360.972755	94.333333
3362.029796	112.333333
3363.085238	107.333333
3364.141990	112.333333
3365.197143	60.666667
3366.250699	88.333333
3367.302659	87.666667
3368.357380	117.333333
3369.409052	104.333333
3370.460581	97.666667
3371.513418	84.000000
3372.563208	95.000000
3373.614307	85.333333
3374.662360	83.666667
3375.713172	66.666667
3376.760940	64.000000
3377.808565	84.333333
3378.856047	80.666667
3379.901937	78.666667
3380.949135	93.666667
3381.993291	85.666667
3383.040205	101.000000
3384.085527	75.000000
3385.127808	97.333333
3386.169949	86.666667
3387.213397	54.666667
3388.256704	85.666667
3389.298422	116.333333
3390.339998	73.333333
3391.381433	72.666667
3392.421280	54.666667
3393.459538	87.333333
3394.499104	67.333333
3395.538530	78.666667
3396.576368	59.000000
3397.612619	79.000000
3398.648731	79.000000
3399.686150	80.000000
3400.720536	60.000000
3401.756229	47.333333
3402.791783	65.333333
3403.824306	84.666667
3404.859582	72.333333
3405.891827	87.000000
3406.923934	59.333333
3407.954457	95.000000
3408.986287	71.000000
3410.017979	55.666667
3411.046643	51.666667
3412.075170	80.333333
3413.105003	81.333333
3414.134699	93.666667
3415.161369	73.666667
3416.189346	68.666667
3417.214298	64.666667
3418.242000	108.666667
3419.266679	90.333333
3420.292664	59.666667
3421.317069	79.666667
3422.341338	67.000000
3423.364028	93.000000
3424.386582	41.666667
3425.410442	71.333333
3426.431282	84.000000
3427.451986	121.666667
3428.473997	96.333333
3429.492989	86.000000
3430.511845	71.333333
3431.532008	62.666667
3432.549154	76.333333
