-118.067271	-19.479853
-115.397671	-4.278388
-112.731006	4.254745
-110.065093	7.389943
-107.402113	6.397602
-104.737702	2.548119
-102.076222	-2.888112
-99.413313	-4.477855
-96.755510	-8.759907
-94.096278	-10.160839
-91.437794	-12.522145
-88.782235	-9.734266
-86.125246	-12.547786
-83.473356	-13.405594
-80.820036	-11.426573
-78.169635	-5.536131
-75.517806	-10.899767
-72.871067	-12.648019
-70.222898	-8.177156
-67.575472	-5.247086
-64.930961	-6.552448
-62.285020	-4.526807
-59.644161	-5.107226
-57.001873	-2.662005
-54.362494	-8.503497
-51.721686	-10.496503
-49.081617	-11.827506
-46.446622	-10.540793
-43.810197	-13.510490
-41.176675	-7.041958
-38.541725	-2.179487
-35.911841	0.191142
-33.278363	2.324009
-30.649948	7.920746
-28.022267	4.806527
-25.393157	3.717949
-22.769105	-14.983683
-20.141462	-70.755245
-17.518874	-209.853147
-14.897016	-287.244755
-12.275889	127.951049
-9.655493	945.913753
-7.037984	1671.331002
-4.419047	2187.948718
-1.802996	2488.839161
0.812328	2580.734266
3.426923	2451.603730
6.038637	2111.263403
8.651779	1563.067599
11.259887	853.687646
13.871576	107.475524
16.478235	-358.198135
19.086323	-283.601399
21.693685	-47.151515
24.296023	-0.489510
26.901940	-2.067599
29.502834	-10.540793
32.105156	-7.696970
34.702460	-8.013986
37.303341	-7.580420
39.899206	-12.116550
42.496500	-7.794872
45.093074	-7.004662
47.684639	-2.508159
50.277632	-1.540793
52.867764	2.668998
55.459323	2.030303
58.048024	4.867133
60.638151	0.801865
63.223279	3.435897
65.809835	-1.032634
68.395677	2.251748
70.978664	-2.641026
73.563079	0.599068
76.140365	-9.671329
78.721217	-10.006993
81.299220	-11.354312
83.876513	-8.298368
86.455232	-9.016317
89.028969	-7.878788
91.604133	-5.284382
94.176454	-0.834499
96.748068	-2.699301
99.316841	0.261072
101.887041	3.620047
104.454402	3.944056
107.023190	-4.300699
109.589141	0.228438
112.152257	-3.312354
114.718929	-3.484848
117.276379	-9.983683
119.839515	-11.289044
122.397692	-7.284382
124.959423	1.897436
127.516197	9.060606
130.074397	26.433566
132.627645	51.167832
135.180195	73.421911
137.736295	99.333333
140.287447	132.687646
142.837902	157.876457
145.387659	182.701632
147.934597	199.783217
150.480840	215.692308
153.028508	224.834499
155.575480	226.314685
158.117517	223.107226
160.658860	220.946387
163.199510	215.526807
165.741586	208.020979
168.280850	207.792541
170.817305	209.375291
173.353070	208.822844
175.890260	215.533800
178.426759	218.713287
180.960452	223.349650
183.491341	220.708625
186.021542	213.806527
188.553169	211.144522
191.081994	207.811189
193.608020	207.668998
196.133360	206.815851
198.660125	206.020979
201.184094	210.613054
203.707378	213.076923
206.229976	218.244755
208.749782	215.312354
211.268905	216.834499
213.787346	218.650350
216.307210	214.815851
218.820072	216.088578
221.336467	215.836830
223.852179	215.116550
226.363001	213.312354
228.875248	213.696970
231.384712	224.207459
233.893498	220.069930
236.401606	221.034965
238.911138	218.867133
241.415789	222.552448
243.919764	223.720280
246.425163	219.498834
248.925687	223.671329
251.429734	224.543124
253.926811	223.459207
256.427411	220.827506
258.925239	224.307692
261.422394	227.324009
263.918876	226.540793
266.410495	232.731935
268.905634	233.752914
271.398006	234.631702
273.889708	232.913753
276.378647	233.764569
278.869009	234.780886
281.356610	231.727273
283.841451	230.275058
286.329807	219.524476
288.811223	222.006993
291.296153	220.689977
293.776238	229.279720
296.259835	237.764569
298.738589	241.855478
301.218766	244.902098
303.696192	246.289044
306.172954	253.871795
308.649052	256.491841
311.122402	260.027972
313.595091	264.627040
316.067118	269.324009
318.538483	277.606061
321.007105	279.594406
323.475067	285.114219
325.944452	286.538462
328.409014	279.193473
330.877080	267.223776
333.340325	258.214452
335.802914	253.065268
338.264846	245.652681
340.726121	243.484848
343.184661	245.575758
345.644625	250.867133
348.101855	246.240093
350.558431	249.505828
353.014353	246.755245
355.467545	249.706294
357.922160	246.738928
360.371973	250.221445
362.825282	243.510490
365.273792	239.449883
367.721652	241.505828
370.170934	244.785548
372.615422	248.477855
375.061332	247.559441
377.506592	245.846154
379.949134	249.790210
382.391028	250.125874
384.832274	256.571096
387.270806	256.771562
389.710758	259.424242
392.147997	249.165501
394.582525	246.995338
397.020539	248.687646
399.453778	248.328671
401.888437	242.741259
404.318324	240.130536
406.751696	245.673660
409.180298	246.678322
411.608258	255.671329
414.037640	258.972028
416.462256	255.776224
418.888294	255.167832
421.313691	249.834499
423.738448	245.265734
426.158446	241.144522
428.579866	242.594406
430.998590	243.074592
433.418734	249.974359
435.836183	257.321678
438.255052	260.855478
440.671227	269.195804
443.082656	269.470862
445.497561	265.354312
447.909777	256.060606
450.321358	246.452214
452.732305	244.571096
455.140565	236.128205
457.548194	238.319347
459.955190	242.496503
462.361555	240.701632
464.765237	238.296037
467.168289	242.766900
469.570711	239.121212
471.972503	241.566434
474.371617	238.405594
476.772151	234.724942
479.172056	236.027972
481.567239	237.258741
483.965888	228.065268
486.359816	226.568765
488.753119	226.820513
491.145797	220.522145
493.537849	217.067599
495.931319	219.160839
498.320077	214.717949
500.706169	217.116550
503.093681	210.342657
505.480570	205.808858
507.864795	200.454545
510.250438	192.948718
512.633420	187.463869
515.013741	188.689977
517.395481	185.864802
519.774562	190.662005
522.155061	196.265734
524.532904	195.885781
526.908090	195.755245
529.282660	192.909091
531.658647	186.899767
534.031982	183.137529
536.406734	178.557110
538.776800	177.431235
541.146252	174.811189
543.517121	173.062937
545.883309	164.452214
548.250916	170.610723
550.615878	168.125874
552.980226	155.890443
555.343961	156.617716
557.709114	155.850816
560.069595	159.086247
562.431494	160.261072
564.790752	159.822844
567.147372	162.300699
569.507438	161.526807
571.860812	159.547786
574.217631	161.300699
576.571815	166.417249
578.925390	164.468531
581.278358	160.764569
583.628693	161.041958
585.980446	160.659674
588.325522	162.324009
590.676061	156.750583
593.019928	157.062937
595.369256	159.368298
597.713935	163.505828
600.055990	161.048951
602.399462	164.009324
604.740311	160.566434
607.080557	161.354312
609.418183	160.461538
611.759244	161.666667
614.095668	168.585082
616.433508	168.526807
618.768731	170.244755
621.101337	174.561772
623.435361	171.487179
625.766770	166.603730
628.097581	159.086247
630.427794	152.254079
632.757410	149.818182
635.082402	148.158508
637.412836	146.848485
639.738649	146.268065
642.061854	146.981352
644.386476	142.799534
646.708492	145.710956
649.029914	149.641026
651.348733	155.002331
653.668969	157.261072
655.988611	161.918415
658.305652	166.566434
660.622101	173.328671
662.935952	172.349650
665.251219	172.331002
667.563889	164.037296
669.877974	159.729604
672.187459	156.354312
674.498360	156.163170
676.806668	157.179487
679.114388	157.484848
681.423522	151.582751
683.728064	151.587413
686.032020	153.641026
688.335390	150.086247
690.640174	149.386946
692.940371	149.764569
695.241984	150.473193
697.543011	152.934732
699.839457	156.580420
702.137318	158.463869
704.434595	157.811189
706.731289	159.969697
709.023407	157.419580
711.318936	157.829837
713.609891	155.913753
715.902261	150.790210
718.192056	145.118881
720.481270	146.885781
722.769905	145.925408
725.055967	144.223776
727.343444	148.960373
729.628349	154.379953
731.912677	155.466200
734.194436	158.631702
736.477609	153.065268
738.760205	151.156177
741.038245	147.841492
743.317699	144.011655
745.596578	136.792541
747.874882	141.850816
750.148636	138.475524
752.423803	144.377622
754.698397	150.475524
756.970432	153.547786
759.243880	150.363636
761.514770	144.461538
763.783104	142.624709
766.052851	143.589744
768.320043	144.417249
770.586666	145.158508
772.852718	146.254079
775.116219	151.300699
777.381133	150.839161
779.645477	153.074592
781.905292	153.480186
784.166519	151.512821
786.427179	147.696970
788.685293	143.368298
790.940862	148.459207
793.199821	152.181818
795.452282	157.906760
797.710110	166.009324
799.963419	165.969697
802.214188	164.559441
804.466369	160.456876
806.716011	157.785548
808.967065	155.599068
811.213609	157.062937
813.461564	156.358974
815.706985	150.750583
817.953817	151.219114
820.200088	152.631702
822.441854	152.659674
824.687004	158.212121
826.925681	153.834499
829.167740	155.491841
831.405301	155.652681
833.644274	162.939394
835.880720	164.100233
838.118577	166.867133
840.353909	159.132867
842.586718	148.699301
844.820937	144.445221
847.052635	137.923077
849.283778	132.673660
851.514366	135.151515
853.744400	130.909091
855.973880	130.902098
858.198878	132.219114
860.427250	138.358974
862.651144	137.277389
864.876449	133.454545
867.097278	133.652681
869.321479	138.818182
871.541207	140.888112
873.762345	140.923077
875.982933	141.715618
878.201012	146.939394
880.420500	145.939394
882.635522	147.403263
884.849996	151.116550
887.063923	149.643357
889.277303	146.687646
891.490135	148.487179
893.702420	150.515152
895.912204	153.494172
898.121442	146.878788
900.330135	145.620047
902.536328	145.121212
904.743932	144.237762
906.949037	142.536131
909.153599	138.055944
911.355666	137.648019
913.559142	133.995338
915.760124	134.016317
917.960564	136.771562
920.162413	135.759907
922.357871	138.827506
924.556687	140.897436
926.751066	148.144522
928.948802	152.955711
931.142102	153.179487
933.336811	154.536131
935.529033	145.885781
937.720718	146.160839
939.911865	147.160839
942.100529	146.946387
944.288657	146.093240
946.474303	144.717949
948.663303	144.317016
950.847879	148.242424
953.031920	152.389277
955.219311	156.981352
957.398398	159.279720
959.580836	161.391608
961.762740	158.438228
963.942169	158.561772
966.119126	159.850816
968.297491	161.946387
970.477263	159.855478
972.650686	156.055944
974.827455	154.403263
976.999817	152.608392
979.173587	152.044289
981.342953	156.041958
983.515663	159.769231
985.685908	163.270396
987.855623	171.561772
990.024810	168.426573
992.189600	170.361305
994.357732	176.783217
996.521468	176.396270
998.686612	176.247086
1000.849296	178.403263
1003.011455	176.916084
1005.171157	181.233100
1007.330334	185.766900
1009.490918	188.440559
1011.649047	187.678322
1013.806653	191.885781
1015.963735	180.058275
1018.120293	185.191142
1020.272472	188.629371
1022.426058	190.013986
1024.579122	190.547786
1026.729737	192.888112
1028.881758	196.244755
1031.029407	204.606061
1033.180387	203.025641
1035.326996	204.811189
1037.473086	201.389277
1039.618658	205.305361
1041.765635	198.634033
1043.906323	203.107226
1046.050340	198.081585
1048.191918	194.435897
1050.332978	189.526807
1052.475444	188.869464
1054.611629	193.909091
1056.751141	195.650350
1058.886297	190.916084
1061.024778	195.643357
1063.158906	192.801865
1065.292520	198.123543
1067.427538	195.289044
1069.558208	196.300699
1071.690282	197.622378
1073.819927	198.487179
1075.949060	201.177156
1078.077681	199.172494
1080.205791	199.303030
1082.331475	198.244755
1084.456649	199.310023
1086.583227	197.655012
1088.705467	186.741259
1090.829112	187.321678
1092.948422	187.522145
1095.072961	185.890443
1097.191256	192.554779
1099.310954	194.354312
1101.428235	198.261072
1103.545008	194.351981
1105.661276	195.538462
1107.775127	197.557110
1109.890382	199.799534
1112.001315	193.748252
1114.115560	185.417249
1116.225484	186.771562
1118.336812	184.860140
1120.447635	178.731935
1122.554142	179.034965
1124.663958	180.421911
1126.769461	179.710956
1128.876366	180.177156
1130.977056	179.233100
1133.082958	181.932401
1135.184551	185.531469
1137.287547	184.906760
1139.390042	181.149184
1141.486330	183.172494
1143.587825	179.946387
1145.685018	178.445221
1147.781713	177.703963
1149.877909	179.531469
1151.973607	182.461538
1154.068808	185.948718
1156.161612	187.913753
1158.255818	190.484848
1160.343833	191.953380
1162.437047	189.368298
1164.524072	186.076923
1166.614396	180.517483
1168.700432	181.974359
1170.789766	179.766900
1172.872920	178.372960
1174.957475	183.477855
1177.043432	189.543124
1179.125107	194.020979
1181.208183	199.275058
1183.288874	197.053613
1185.369074	196.442890
1187.448782	196.983683
1189.527999	189.981352
1191.604833	179.072261
1193.679287	182.703963
1195.757033	178.937063
1197.830508	183.377622
1199.905385	193.951049
1201.975994	195.314685
1204.048004	197.986014
1206.117638	199.822844
1208.188673	199.356643
1210.259221	202.006993
1212.325507	204.452214
1214.393194	197.995338
1216.458508	201.787879
1218.525224	201.081585
1220.587683	200.403263
1222.653427	200.680653
1224.714917	202.282051
1226.777808	196.902098
1228.838330	193.095571
1230.898370	192.090909
1232.957926	193.778555
1235.015118	197.748252
1237.071827	196.675991
1239.126174	197.664336
1241.183802	202.074592
1243.239066	200.310023
1245.290091	199.223776
1247.342515	195.748252
1249.394459	197.018648
1251.444045	196.958042
1253.493152	202.951049
1255.541780	205.000000
1257.589930	209.855478
1259.637602	216.242424
1261.681043	214.195804
1263.727760	215.016317
1265.772123	216.263403
1267.816010	215.983683
1269.857545	216.146853
1271.896731	217.990676
1273.939190	220.736597
1275.977426	220.489510
1278.017061	225.118881
1280.056221	229.034965
1282.091162	230.762238
1284.127502	236.053613
1286.161498	233.351981
1288.196891	234.244755
1290.228071	235.624709
1292.260650	240.307692
1294.292757	243.701632
1296.322523	245.440559
1298.353686	242.783217
1300.380643	242.032634
1302.408997	243.550117
1304.433146	246.857809
1306.460561	246.477855
1308.483773	251.599068
1310.508383	251.927739
1312.530659	256.198135
1314.554331	260.268065
1316.575671	266.393939
1318.596544	259.918415
1320.616949	262.146853
1322.633161	263.808858
1324.650770	267.268065
1326.666051	272.421911
1328.684591	276.622378
1330.698941	281.104895
1332.710966	284.088578
1334.726249	284.293706
1336.737346	287.244755
1338.749839	286.118881
1340.758150	282.156177
1342.769717	276.303030
1344.775245	274.321678
1346.784028	271.400932
1348.788633	271.673660
1350.796492	276.603730
1352.803889	273.923077
1354.805255	267.545455
1356.808017	263.188811
1358.810320	261.666667
1360.812163	260.717949
1362.813546	258.713287
1364.812615	257.706294
1366.811227	260.673660
1368.809379	260.272727
1370.807074	260.699301
1372.800606	259.256410
1374.795533	256.629371
1376.790004	249.191142
1378.784018	243.093240
1380.775725	239.738928
1382.766976	238.142191
1384.755922	234.627040
1386.746264	235.701632
1388.736150	232.804196
1390.723732	231.184149
1392.710861	232.181818
1394.695688	229.741259
1396.681910	224.414918
1398.665831	225.055944
1400.649300	226.631702
1402.632317	230.405594
1404.613036	236.146853
1406.595149	236.629371
1408.574965	234.132867
1410.554331	233.662005
1412.529558	226.687646
1414.508023	223.631702
1416.484195	225.501166
1418.459917	223.918415
1420.435191	222.431235
1422.408173	228.233100
1424.380707	226.666667
1426.352793	230.358974
1428.324432	230.913753
1430.291942	229.468531
1432.264526	226.475524
1434.229304	221.312354
1436.199155	216.410256
1438.164881	214.624709
1440.132001	214.759907
1442.096837	210.715618
1444.057553	209.510490
1446.023337	214.806527
1447.983166	209.668998
1449.944389	212.459207
1451.907003	214.347319
1453.865503	221.925408
1455.823561	227.419580
1457.781177	227.606061
1459.738350	226.272727
1461.693248	229.496503
1463.649539	222.524476
1465.603555	217.916084
1467.557130	213.797203
1469.508433	214.403263
1471.461128	213.170163
1473.411552	218.191142
1475.361537	226.144522
1477.311083	232.743590
1479.258360	241.249417
1481.203369	241.944056
1483.149771	246.254079
1485.095735	252.510490
1487.041262	246.000000
1488.984523	244.456876
1490.927348	240.515152
1492.867910	241.331002
1494.809864	241.097902
1496.749555	241.356643
1498.688811	237.100233
1500.627633	234.601399
1502.564195	235.484848
1504.502148	235.480186
1506.437842	238.382284
1508.373103	239.097902
1510.306107	234.920746
1512.238679	230.559441
1514.170819	230.503497
1516.102527	234.090909
1518.031982	234.440559
1519.962827	235.191142
1521.893240	235.729604
1523.819581	244.601399
1525.747312	252.237762
1527.672794	259.466200
1529.597846	267.641026
1531.522469	273.689977
1533.446662	278.470862
1535.368609	284.701632
1537.291946	287.997669
1539.213036	304.156177
1541.131882	321.158508
1543.052118	346.328671
1544.970110	369.121212
1546.887676	402.100233
1548.803001	434.340326
1550.719715	482.312354
1552.632374	533.668998
1554.548236	593.100233
1556.461860	654.473193
1558.373245	712.293706
1560.286020	759.298368
1562.194745	805.699301
1564.104859	826.123543
1566.014550	827.312354
1567.923818	809.349650
1569.830851	772.328671
1571.735653	718.452214
1573.641842	665.233100
1575.545801	602.864802
1577.449338	550.044289
1579.352455	497.328671
1581.253342	455.629371
1583.155618	417.897436
1585.055665	394.629371
1586.957101	369.841492
1588.854503	360.000000
1590.751486	355.284382
1592.648051	345.051282
1594.546003	336.515152
1596.438121	332.909091
1598.333433	332.916084
1600.228327	324.363636
1602.120999	310.650350
1604.013254	301.020979
1605.903290	292.557110
1607.792910	290.111888
1609.682115	281.174825
1611.570904	270.186480
1613.457477	261.298368
1615.345437	253.286713
1617.229380	248.214452
1619.114710	250.813520
1620.999627	251.554779
1622.882330	240.694639
1624.766420	230.431235
1626.646498	227.426573
1628.527964	224.454545
1630.407218	220.596737
1632.287860	214.072261
1634.162697	204.743590
1636.042515	197.825175
1637.918329	193.550117
1639.793732	191.841492
1641.670521	192.407925
1643.541513	189.862471
1645.415688	189.317016
1647.285863	187.265734
1649.159219	184.613054
1651.030372	184.018648
1652.899323	189.442890
1654.769660	191.298368
1656.636004	190.456876
1658.503733	188.195804
1660.369263	190.200466
1662.236179	185.559441
1664.099105	181.617716
1665.963418	178.848485
1667.825534	175.685315
1669.687245	164.151515
1671.550341	161.004662
1673.411243	158.482517
1675.269952	158.069930
1677.128257	153.820513
1678.987946	154.708625
1680.841869	155.592075
1682.698965	157.585082
1684.555657	152.946387
1686.408374	155.125874
1688.264262	156.857809
1690.116176	149.934732
1691.967689	151.069930
1693.818801	157.263403
1695.669512	157.025641
1697.519823	154.890443
1699.367950	154.972028
1701.217461	158.076923
1703.061222	161.778555
1704.909934	162.223776
1706.752899	156.130536
1708.599030	153.832168
1710.441200	143.997669
1712.286535	137.983683
1714.126129	141.846154
1715.967107	139.820513
1717.809468	140.219114
1719.647872	137.410256
1721.487660	141.671329
1723.325273	145.270396
1725.162491	153.165501
1726.997535	152.256410
1728.833962	153.692308
1730.668216	149.967366
1732.502077	145.720280
1734.335543	146.419580
1736.165063	147.160839
1737.997743	141.857809
1739.826478	134.948718
1741.658370	135.046620
1743.486320	135.717949
1745.313878	136.902098
1747.141045	139.974359
1748.967820	140.995338
1750.794203	145.428904
1752.616650	147.475524
1754.442252	150.177156
1756.263919	150.801865
1758.086967	150.039627
1759.907855	143.083916
1761.728354	135.356643
1763.550233	132.692308
1765.366413	133.317016
1767.185745	130.650350
1769.001150	129.410256
1770.819706	128.624709
1772.634336	131.836830
1774.448579	136.946387
1776.262436	137.995338
1778.075906	139.825175
1779.887223	140.333333
1781.699920	138.818182
1783.512232	130.862471
1785.320625	129.827506
1787.130400	136.484848
1788.936260	131.151515
1790.745265	130.979021
1792.550357	125.552448
1794.356830	127.839161
1796.162919	126.631702
1797.965097	125.272727
1799.770420	132.081585
1801.571833	136.578089
1803.374628	136.745921
1805.173516	139.254079
1806.973785	145.265734
1808.773672	144.484848
1810.571417	143.596737
1812.368782	137.466200
1814.165766	131.303030
1815.962371	128.923077
1817.756835	128.254079
1819.552680	126.710956
1821.342869	133.885781
1823.137955	132.244755
1824.927388	134.883450
1826.719959	144.594406
1828.510394	144.344988
1830.298694	148.023310
1832.090130	149.869464
1833.875921	144.314685
1835.663091	140.519814
1837.448129	134.335664
1839.236300	133.067599
1841.020587	124.594406
1842.802743	121.571096
1844.586279	114.762238
1846.367686	118.249417
1848.150471	121.748252
1849.929377	120.808858
1851.709661	129.617716
1853.487820	131.923077
1855.267357	136.818182
1857.044768	136.195804
1858.820057	138.102564
1860.596723	142.463869
1862.371267	144.195804
1864.147188	139.799534
1865.917490	137.822844
1867.690919	135.433566
1869.462228	132.738928
1871.233166	132.081585
1873.005482	132.650350
1874.772184	131.606061
1876.542011	132.815851
1878.307975	134.641026
1880.077063	139.454545
1881.842289	140.344988
1883.607147	141.354312
1885.373381	136.386946
1887.135758	140.503497
1888.897766	138.545455
1890.659408	137.536131
1892.420682	137.424242
1894.181590	132.820513
1895.942130	128.941725
1897.700562	127.881119
1899.458627	130.918415
1901.214585	128.270396
1902.971919	126.512821
1904.728888	126.398601
1906.483750	127.298368
1908.236508	129.727273
1909.988901	128.738928
1911.742671	122.717949
1913.494337	122.317016
1915.243900	120.547786
1916.994840	124.685315
1918.745416	123.867133
1920.492154	131.808858
1922.240267	127.016317
1923.986282	123.104895
1925.733671	122.550117
1927.478962	125.815851
1929.222157	126.636364
1930.966726	124.282051
1932.709199	123.324009
1934.451313	123.200466
1936.193066	125.824009
1937.934459	132.153846
1939.673759	131.376457
1941.412700	140.016317
1943.151282	135.150350
1944.887773	132.324009
1946.623905	131.388112
1948.361413	132.428904
1950.095098	132.730769
1951.830158	132.170163
1953.563129	133.879953
1955.295744	131.286713
1957.028002	133.639860
1958.759905	137.298368
1960.489721	138.074592
1962.217452	139.997669
1963.946558	138.466200
1965.675308	131.923077
1967.401976	124.044289
1969.128288	122.771562
1970.855975	120.221445
1972.578125	120.531469
1974.303376	117.191142
1976.024820	118.745921
1977.749364	121.270396
1979.471829	127.344988
1981.190490	131.340326
1982.912251	133.601399
1984.630209	138.041958
1986.349540	136.477855
1988.065072	139.790210
1989.785424	137.557110
1991.501978	139.263403
1993.214735	142.426573
1994.930588	138.979021
1996.644369	139.680653
1998.357800	138.932401
2000.069160	140.727273
2001.781892	143.592075
2003.490834	138.030303
2005.202868	136.247086
2006.909393	131.536131
2008.619011	128.158508
2010.326561	118.920746
2012.033764	119.305361
2013.738901	120.179487
2015.443692	122.128205
2017.149854	127.827506
2018.852234	129.167832
2020.555985	132.974359
2022.257674	136.664336
2023.959017	134.736597
2025.660016	129.065268
2027.358953	128.307692
2029.059262	126.179487
2030.755795	125.699301
2032.453700	127.086247
2034.149547	129.703963
2035.848479	135.391608
2037.541925	139.431235
2039.236742	136.648019
2040.931216	139.000000
2042.621923	140.531469
2044.315712	138.461538
2046.005736	130.841492
2047.697130	132.314685
2049.386470	125.447552
2051.077182	128.575758
2052.764130	125.449883
2054.450738	127.379953
2056.138717	127.696970
2057.822936	127.125874
2059.508526	123.937063
2061.193775	133.167832
2062.876977	130.561772
2064.561549	126.687646
2066.240657	124.738928
2067.924552	124.396270
2069.602985	124.932401
2071.284496	132.862471
2072.962255	132.060606
2074.639678	135.780886
2076.318470	131.778555
2077.995219	130.568765
2079.669927	131.491841
2081.346005	131.687646
2083.020041	125.878788
2084.693743	127.508159
2086.367109	125.321678
2088.038436	127.976690
2089.709429	128.780886
2091.380088	133.340326
2093.050413	134.696970
2094.720404	135.820513
2096.388359	136.668998
2098.055980	139.825175
2099.721568	142.717949
2101.388524	135.981352
2103.053447	134.685315
2104.718038	133.531469
2106.380597	127.200466
2108.044524	126.934732
2109.706420	127.048951
2111.367986	132.116550
2113.029220	132.193473
2114.688425	135.748252
2116.347301	140.153846
2118.005847	144.333333
2119.664062	144.377622
2121.318555	142.557110
2122.976112	136.011655
2124.633339	136.941725
2126.286846	134.503497
2127.941720	131.328671
2129.592875	133.279720
2131.247093	136.167832
2132.897593	131.468531
2134.549461	134.694639
2136.195920	135.699301
2137.847134	137.503497
2139.494634	131.699301
2141.143501	127.013986
2142.790349	118.076923
2144.436872	118.044289
2146.083069	113.331002
2147.725558	112.282051
2149.371104	117.160839
2151.012944	122.620047
2152.657841	119.752914
2154.299033	127.981352
2155.939901	129.459207
2157.580446	129.843823
2159.218978	124.620047
2160.858876	128.377622
2162.495074	129.899767
2164.132638	129.731935
2165.769880	127.289044
2167.405112	131.258741
2169.040022	133.165501
2170.674611	133.023310
2172.308879	132.617716
2173.939453	134.039627
2175.573079	130.328671
2177.203013	126.275058
2178.834312	121.906760
2180.463606	127.449883
2182.092581	125.617716
2183.721236	123.268065
2185.349572	122.449883
2186.975905	127.517483
2188.601920	130.048951
2190.225934	132.377622
2191.851313	137.636364
2193.474691	135.219114
2195.099434	134.139860
2196.720496	135.030303
2198.341241	131.053613
2199.963350	137.247086
2201.583462	135.167832
2203.201578	131.801865
2204.819378	129.755245
2206.436862	128.974359
2208.054032	130.655012
2209.670885	128.846154
2211.287424	129.179487
2212.901970	127.372960
2214.514523	131.261072
2216.128440	129.797203
2217.740366	123.916084
2219.353655	122.536131
2220.964954	119.386946
2222.574263	112.892774
2224.184935	107.461538
2225.793619	110.995338
2227.401991	111.568765
2229.008376	112.666667
2230.616123	114.620047
2232.221885	116.032634
2233.827335	115.512821
2235.430800	116.668998
2237.035628	118.268065
2238.638472	121.480186
2240.239333	127.892774
2241.841557	130.664336
2243.441799	132.321678
2245.043403	138.680653
2246.641354	137.967366
2248.240668	139.617716
2249.838002	135.631702
2251.435028	130.048951
2253.033415	119.396270
2254.628155	120.039627
2256.220917	116.223776
2257.815042	113.969697
2259.410528	112.948718
2261.002369	114.013986
2262.593904	111.272727
2264.186801	117.317016
2265.774388	120.892774
2267.366671	126.636364
2268.953648	130.850816
2270.543652	131.205128
2272.128352	130.333333
2273.717746	132.424242
2275.301837	128.006993
2276.887290	127.090909
2278.470774	123.895105
2280.057283	122.158508
2281.640159	117.554779
2283.222732	117.940559
2284.805001	115.137529
2286.383640	114.768065
2287.965304	115.951049
2289.543339	115.560606
2291.124397	115.000000
2292.701828	115.558275
2294.277296	115.986014
2295.855786	123.320513
2297.430652	123.951049
2299.005217	126.010490
2300.579481	123.671329
2302.153445	127.262238
2303.727109	129.072261
2305.300473	125.603730
2306.870218	122.009324
2308.439664	117.223776
2310.012128	112.116550
2311.579318	113.545455
2313.149525	111.559441
2314.716119	117.335664
2316.284072	114.356643
2317.850069	114.109557
2319.415769	114.550117
2320.981171	121.086247
2322.544620	127.051282
2324.109428	133.778555
2325.670628	138.568765
2327.234842	141.391608
2328.793794	137.876457
2330.355760	133.037296
2331.915776	134.151515
2333.475496	132.172494
2335.033268	124.174825
2336.590744	117.836830
2338.147926	112.195804
2339.703160	114.337995
2341.258101	118.958042
2342.812747	124.207459
2344.367100	124.867133
2345.921159	122.356643
2347.474925	123.174825
2349.026746	125.317016
2350.576624	130.769231
2352.129511	128.983683
2353.677154	132.118881
2355.227806	125.610723
2356.774866	123.645688
2358.323284	123.498834
2359.871411	120.512821
2361.415949	117.729604
2362.961845	115.310023
2364.505803	113.587413
2366.051117	116.349650
2367.592847	114.361305
2369.135935	116.125874
2370.677086	121.438228
2372.217948	126.988345
2373.758521	129.883450
2375.298805	134.776224
2376.838800	138.361305
2378.375216	135.759907
2379.914634	133.897436
2381.450475	131.027972
2382.987673	122.235431
2384.521295	110.053613
2386.057917	101.365967
2387.592609	104.349650
2389.125371	106.720280
2390.657846	108.890443
2392.188393	119.235431
2393.721938	127.662005
2395.250272	131.319347
2396.779962	130.804196
2398.309367	138.594406
2399.838487	142.638695
2401.367321	136.002331
2402.890951	128.393939
2404.419216	124.757576
2405.942279	126.888112
2407.469975	125.300699
2408.990832	127.477855
2410.516321	131.382284
2412.038251	132.086247
2413.561535	129.629371
2415.082899	132.843823
2416.602343	136.820513
2418.123142	136.771562
2419.642022	131.988345
2421.160621	126.766900
2422.677301	122.601399
2424.195337	125.622378
2425.713091	127.333333
2427.227293	129.547786
2428.741216	128.675991
2430.254858	129.079254
2431.769854	134.717949
2433.281303	134.051282
2434.794105	134.834499
2436.304995	134.545455
2437.815606	133.503497
2439.324305	130.400932
2440.835990	130.897436
2442.344132	131.130536
2443.851996	127.370629
2445.359581	122.146853
2446.863627	123.405594
2448.370657	124.878788
2449.875779	122.599068
2451.380624	119.557110
2452.883562	124.263403
2454.386224	123.797203
2455.888609	122.631702
2457.389089	119.344988
2458.890922	120.193473
2460.390850	115.850816
2461.890503	115.076923
2463.389881	119.666667
2464.887356	121.995338
2466.382929	123.939394
2467.881482	123.209790
2469.376507	128.475524
2470.872884	130.748252
2472.365735	127.417249
2473.859939	122.263403
2475.353869	116.582751
2476.844275	112.815851
2478.337659	112.125874
2479.829145	110.442890
2481.318734	111.149184
2482.808051	110.974359
2484.295472	118.319347
2485.785869	121.916084
2487.272748	126.927739
2488.760978	131.466200
2490.245691	128.839161
2491.730134	133.832168
2493.215929	132.398601
2494.699832	130.272727
2496.185085	131.962704
2497.665205	123.533800
2499.148298	120.088578
2500.629500	121.529138
2502.110433	117.174825
2503.589477	111.540793
2505.068252	110.729604
2506.546759	110.361305
2508.024997	110.319347
2509.502968	115.659674
2510.977433	116.095571
2512.454868	115.720280
2513.928798	116.310023
2515.404080	115.156177
2516.879094	121.079254
2518.350607	124.011655
2519.823471	119.365967
2521.294452	122.498834
2522.766783	127.850816
2524.234000	132.144522
2525.704184	137.622378
2527.172487	141.382284
2528.640525	141.934732
2530.108297	136.892774
2531.575806	135.228438
2533.043049	134.158508
2534.506800	134.731935
2535.971901	129.279720
2537.435125	125.806527
2538.899698	125.018648
2540.360783	122.601399
2541.823217	122.426573
2543.285388	123.832168
2544.744072	129.214452
2546.207329	129.163170
2547.665489	130.547786
2549.124999	132.417249
2550.579414	132.470862
2552.038400	130.932401
2553.495514	131.000000
2554.950756	124.566434
2556.405738	121.025641
2557.858850	115.944056
2559.313311	115.205128
2560.765903	114.662005
2562.218235	111.755245
2563.668699	114.149184
2565.122120	118.582751
2566.570458	122.002331
2568.021751	125.668998
2569.471179	129.335664
2570.917134	130.799534
2572.366044	126.972028
2573.811484	132.932401
2575.258271	132.580420
2576.703195	134.067599
2578.147862	129.841492
2579.593876	129.615385
2581.036424	139.048951
2582.480318	137.177156
2583.920748	138.566434
2585.362526	140.988345
2586.802444	139.181818
2588.243709	135.687646
2589.681512	132.123543
2591.122265	134.895105
2592.557956	133.808858
2593.996595	134.011655
2595.433378	133.820513
2596.868305	138.428904
2598.306179	139.445221
2599.738996	136.270396
2601.173160	136.696970
2602.605470	138.909091
2604.039126	135.083916
2605.470929	134.067599
2606.902478	131.277389
2608.333774	135.710956
2609.763219	135.319347
2611.192411	140.088578
2612.619752	145.438228
2614.048440	152.421911
2615.476875	158.913753
2616.901864	164.116550
2618.328198	166.051282
2619.752685	170.146853
2621.178517	168.706294
2622.600905	169.890443
2624.024638	168.317016
2625.446526	173.207459
2626.868163	161.787879
2628.287956	162.205128
2629.709094	166.790210
2631.129982	172.860140
2632.547431	177.913753
2633.967820	182.857809
2635.384772	185.489510
2636.801476	192.662005
2638.217931	195.328671
2639.634138	202.766900
2641.050097	209.867133
2642.464215	212.209790
2643.878085	203.344988
2645.290116	207.652681
2646.703492	210.223776
2648.113438	208.337995
2649.526320	210.603730
2650.935773	212.785548
2652.344980	215.125874
2653.752351	223.657343
2655.162656	224.244755
2656.571125	234.869464
2657.977760	235.981352
2659.384149	231.519814
2660.788704	235.055944
2662.194603	233.925408
2663.598669	235.937063
2665.002490	240.650350
2666.406067	252.293706
2667.807813	254.794872
2669.210902	262.829837
2670.610573	264.363636
2672.011588	268.738928
2673.409187	270.997669
2674.809715	263.771562
2676.206829	261.342657
2677.605286	266.116550
2679.001916	263.198135
2680.398303	267.934732
2681.794448	271.680653
2683.188767	273.226107
2684.584429	263.379953
2685.976682	260.643357
2687.370277	251.622378
2688.762048	249.377622
2690.155162	245.904429
2691.546452	243.888112
2692.935919	243.645688
2694.325146	241.638695
2695.714134	236.074592
2697.104463	233.487179
2698.489809	229.389277
2699.878078	225.941725
2701.264527	216.927739
2702.650737	213.729604
2704.036708	205.244755
2705.419281	200.494172
2706.803196	200.860140
2708.186872	193.808858
2709.570311	190.685315
2710.950354	185.179487
2712.331739	182.212121
2713.711309	177.976690
2715.092219	176.186480
2716.471315	171.545455
2717.848597	169.286713
2719.227220	166.944056
2720.604029	163.536131
2721.980603	165.720280
2723.356941	168.855478
2724.731467	162.792541
2726.107334	164.363636
2727.479815	166.741259
2728.855211	170.412587
2730.225647	164.608392
2731.597423	162.074592
2732.968966	157.827506
2734.338700	154.044289
2735.709774	148.731935
2737.079041	146.785548
2738.448074	143.939394
2739.815301	133.636364
2741.182294	123.503497
2742.549055	122.785548
2743.915583	127.846154
2745.280307	129.636364
2746.644798	126.205128
2748.009058	127.958042
2749.373085	130.682984
2750.736881	133.566434
2752.097303	134.890443
2753.460635	131.916084
2754.819025	125.055944
2756.180325	118.531469
2757.538255	112.230769
2758.899093	113.550117
2760.258131	120.006993
2761.613802	118.601399
2762.972380	120.142191
2764.327591	120.829837
2765.682573	127.258741
2767.035758	134.473193
2768.391850	131.885781
2769.744578	127.986014
2771.097078	124.424242
2772.449349	125.265734
2773.802958	121.855478
2775.153207	122.445221
2776.501661	126.925408
2777.853020	123.664336
2779.201021	124.668998
2780.550359	123.627040
2781.897905	126.568765
2783.245225	126.067599
2784.592317	120.571096
2785.937619	119.487179
2787.282695	116.883450
2788.627545	117.006993
2789.972169	118.221445
2791.313441	118.529138
2792.656050	120.829837
2793.998435	118.832168
2795.340594	118.256410
2796.679404	117.174825
2798.021114	120.333333
2799.359475	122.237762
2800.699174	121.713287
2802.037088	119.888112
2803.373216	116.377622
2804.709122	112.468531
2806.046365	110.941725
2807.381824	109.878788
2808.717060	106.871795
2810.050513	107.652681
2811.385303	108.498834
2812.716753	107.967366
2814.051098	109.890443
2815.380544	109.477855
2816.711328	108.200466
2818.041891	106.827506
2819.370674	105.396270
2820.700793	102.573427
2822.029134	102.083916
2823.357254	105.519814
2824.683596	111.508159
2826.011274	114.946387
2827.335620	119.207459
2828.661302	117.766900
2829.985208	115.093240
2831.308894	114.300699
2832.633916	109.874126
2833.955609	106.610723
2835.277083	99.072261
2836.598337	93.580420
2837.919374	86.202797
2839.238637	87.321678
2840.559236	86.862471
2841.878063	86.881119
2843.196673	94.055944
2844.513511	99.785548
2845.830132	100.452214
2847.146536	105.925408
2848.461170	108.258741
2849.777139	106.438228
2851.089789	104.365967
2852.403773	105.372960
2853.717541	102.668998
2855.031092	102.461538
2856.342877	99.557110
2857.652895	102.030303
2858.964248	104.324009
2860.272286	106.100233
2861.581658	104.634033
2862.890815	108.324009
2864.199758	107.624709
2865.506936	104.578089
2866.812352	108.249417
2868.119101	112.477855
2869.424089	106.489510
2870.728862	108.226107
2872.031875	108.016317
2873.337768	110.242424
2874.638807	111.347319
2875.941179	115.286713
2877.241793	115.508159
2878.543739	114.997669
2879.845473	112.193473
2881.143903	114.219114
2882.443666	113.223776
2883.741672	105.456876
2885.039466	99.424242
2886.335504	100.550117
2887.632875	96.524476
2888.928490	95.536131
2890.223894	95.522145
2891.519087	95.967366
2892.810983	94.508159
2894.105754	98.960373
2895.397230	103.920746
2896.690038	108.648019
2897.982636	109.510490
2899.271939	108.750583
2900.562576	111.724942
2901.851461	111.650350
2903.141678	106.748252
2904.428604	105.153846
2905.716862	99.988345
2907.003371	99.692308
2908.289671	99.508159
2909.575763	101.522145
2910.860107	97.037296
2912.147323	96.363636
2913.429712	95.265734
2914.713433	97.065268
2915.995407	96.223776
2917.277175	97.557110
2918.557197	96.272727
2919.840090	99.153846
2921.121237	93.606061
2922.399101	97.032634
2923.679835	96.843823
2924.957289	97.599068
2926.234536	93.836830
2927.510041	96.839161
2928.788414	99.272727
2930.061973	103.916084
2931.338399	103.913753
2932.613084	105.573427
2933.886028	107.787879
2935.160304	110.696970
2936.432840	106.456876
2937.705171	104.116550
2938.974230	101.102564
2940.246154	104.207459
2941.516340	102.303030
2942.786322	103.976690
2944.056101	103.603730
2945.324144	101.303030
2946.590450	102.004662
2947.856554	102.655012
2949.123989	105.261072
2950.389688	104.918415
2951.655186	99.573427
2952.920481	94.030303
2954.182511	89.666667
2955.445871	91.356643
2956.709030	91.953380
2957.970457	89.841492
2959.233213	92.958042
2960.494237	98.062937
2961.753531	104.272727
2963.012624	103.398601
2964.271518	105.251748
2965.530211	97.741259
2966.788703	92.079254
2968.045467	81.167832
2969.302032	78.456876
2970.556868	76.188811
2971.813034	77.587413
2973.065945	78.976690
2974.320184	87.925408
2975.574225	92.146853
2976.826540	92.689977
2978.078657	92.843823
2979.329049	94.167832
2980.582296	85.543124
2981.830766	84.888112
2983.082091	83.489510
2984.330166	85.937063
2985.578044	85.027972
2986.825726	83.097902
2988.073210	90.627040
2989.318973	89.167832
2990.564540	87.689977
2991.811434	85.818182
2993.055084	89.132867
2994.300061	89.240093
2995.541796	89.207459
2996.786382	91.797203
2998.029249	93.596737
2999.268875	89.561772
3000.511351	87.657343
3001.750587	81.904429
3002.991151	83.118881
3004.229998	76.804196
3005.468651	77.538462
3006.705588	78.417249
3007.943853	77.673660
3009.180402	76.235431
3010.416758	77.727273
3011.652920	81.102564
3012.887368	82.102564
3014.121623	83.235431
3015.355686	81.682984
3016.588035	84.526807
3017.818673	82.344988
3019.052157	85.550117
3020.283930	88.841492
3021.513991	86.058275
3022.743861	81.981352
3023.972021	84.571096
3025.201508	87.386946
3026.429285	88.587413
3027.656871	86.634033
3028.885783	85.286713
3030.109953	78.526807
3031.336967	79.939394
3032.560756	74.058275
3033.785871	71.694639
3035.009281	73.713287
3036.232500	72.384615
3037.454014	78.237762
3038.678369	83.862471
3039.897989	86.347319
3041.118935	88.757576
3042.339692	89.317016
3043.558745	85.692308
3044.779123	82.946387
3045.996285	83.620047
3047.214773	78.552448
3048.431558	75.624709
3049.648155	84.944056
3050.864565	82.997669
3052.077761	85.547786
3053.293795	82.578089
3054.506617	84.701632
3055.722276	85.428904
3056.933213	84.265734
3058.145474	84.074592
3059.357548	80.934732
3060.569436	79.480186
3061.779627	81.759907
3062.989631	85.694639
3064.199449	90.888112
3065.407571	82.081585
3066.615508	81.538462
3067.821749	83.501166
3069.029315	86.680653
3070.235186	87.421911
3071.440872	87.186480
3072.646374	88.370629
3073.850182	82.673660
3075.055314	82.284382
3076.258753	85.519814
3077.460501	85.379953
3078.662064	86.818182
3079.863444	85.820513
3081.064640	90.081585
3082.264146	92.137529
3083.463469	91.487179
3084.664115	92.813520
3085.863071	88.815851
3087.058833	87.386946
3088.257423	80.594406
3089.452821	76.934732
3090.649541	76.382284
3091.843069	74.976690
3093.039425	75.813520
3094.234094	76.662005
3095.425573	78.312354
3096.621384	78.836830
3097.812500	84.685315
3099.004940	89.701632
3100.194191	91.710956
3101.386269	90.615385
3102.576663	90.899767
3103.763871	86.745921
3104.952401	87.855478
3106.142254	79.955711
3107.328922	75.785548
3108.515411	74.932401
3109.701721	74.696970
3110.889352	73.076923
3112.073801	75.307692
3113.256571	71.960373
3114.442163	70.027972
3115.626076	68.585082
3116.808309	75.172494
3117.990365	69.240093
3119.172242	73.261072
3120.353941	69.524476
3121.533963	73.671329
3122.712308	74.459207
3123.893473	70.279720
3125.071463	66.032634
3126.249276	68.668998
3127.426912	65.137529
3128.602873	65.967366
3129.778658	72.825175
3130.955764	77.100233
3132.131195	77.079254
3133.304953	85.058275
3134.477038	87.776224
3135.650445	89.650350
3136.823675	86.368298
3137.995234	81.074592
3139.168113	74.937063
3140.337825	74.624709
3141.508858	69.305361
3142.678220	66.671329
3143.845913	67.608392
3145.016421	65.128205
3146.182271	66.286713
3147.352429	71.876457
3148.517930	77.515152
3149.683258	78.550117
3150.848412	79.032634
3152.013393	82.764569
3153.179693	80.093240
3154.341340	82.811189
3155.504308	85.279720
3156.667103	84.209790
3157.829725	86.967366
3158.990681	83.347319
3160.151466	82.344988
3161.312078	85.046620
3162.471026	78.638695
3163.629803	72.254079
3164.788407	70.727273
3165.946840	73.407925
3167.105102	73.923077
3168.261701	72.941725
3169.416639	74.769231
3170.572896	73.473193
3171.727492	75.265734
3172.881918	73.293706
3174.034684	67.212121
3175.187279	64.916084
3176.339705	58.713287
3177.491960	57.044289
3178.644046	57.902098
3179.792985	57.009324
3180.944731	57.321678
3182.094820	56.773893
3183.243252	57.717949
3184.391514	59.261072
3185.539608	60.731935
3186.687533	62.116550
3187.833802	60.186480
3188.979903	65.223776
3190.124350	66.137529
3191.268629	70.228438
3192.412739	75.897436
3193.558168	76.638695
3194.700458	75.463869
3195.842581	74.104895
3196.984536	70.664336
3198.126324	68.948718
3199.267945	70.027972
3200.406431	70.783217
3201.546234	70.132867
3202.687354	68.559441
3203.825341	70.263403
3204.961677	72.911422
3206.097849	78.016317
3207.235337	74.923077
3208.371177	74.783217
3209.508334	75.310023
3210.640878	78.391608
3211.777703	74.058275
3212.909918	78.174825
3214.043449	79.405594
3215.176815	76.557110
3216.307055	74.228438
3217.440092	73.592075
3218.570003	72.435897
3219.701230	75.673660
3220.829333	71.363636
3221.960232	71.419580
3223.089487	70.011655
3224.217099	69.881119
3225.341588	65.354312
3226.470353	66.116550
3227.595996	66.097902
3228.721476	63.349650
3229.845315	63.272727
3230.971949	73.247086
3232.093985	77.783217
3233.217337	78.030303
3234.340527	78.687646
3235.463554	78.149184
3236.584943	76.617716
3237.706169	81.937063
3238.825757	83.013986
3239.945184	80.093240
3241.062974	75.237762
3242.183555	74.675991
3243.301023	74.960373
3244.418330	77.505828
3245.535477	71.128205
3246.650987	67.538462
3247.767813	64.715618
3248.881529	56.820513
3249.998034	53.491841
3251.112905	53.335664
3252.224666	50.547786
3253.336269	48.797203
3254.449187	49.328671
3255.561945	55.918415
3256.671597	57.771562
3257.782564	63.946387
3258.893372	68.550117
3260.002548	75.545455
3261.110093	74.806527
3262.218953	71.641026
3263.327654	74.748252
3264.433253	70.524476
3265.540167	68.582751
3266.645451	71.783217
3267.752049	70.377622
3268.855547	66.832168
3269.960359	62.629371
3271.065014	62.205128
3272.166571	60.221445
3273.267971	63.100233
3274.370685	64.671329
3275.473243	63.860140
3276.572704	63.331002
3277.674949	64.312354
3278.774098	64.198135
3279.871622	68.624709
3280.968992	68.582751
3282.069143	64.701632
3283.166202	58.953380
3284.263105	59.293706
3285.359853	60.715618
3286.452042	63.696970
3287.548481	66.899767
3288.643297	64.790210
3289.737959	60.857809
3290.830998	63.156177
3291.923884	57.116550
3293.015149	58.006993
3294.107727	59.177156
3295.198685	54.927739
3296.288023	51.449883
3297.377208	52.867133
3298.467705	57.249417
3299.555119	58.379953
3300.642379	65.974359
3301.730952	71.076923
3302.819372	76.603730
3303.903246	74.440559
3304.991361	72.018648
3306.076394	76.596737
3307.159812	76.696970
3308.244542	72.627040
3309.327656	66.233100
3310.412083	62.743590
3311.493431	62.170163
3312.576091	62.578089
3313.657137	65.720280
3314.738031	68.461538
3315.817313	68.512821
3316.896444	62.198135
3317.976887	65.321678
3319.054255	70.407925
3320.132935	68.379953
3321.210003	66.282051
3322.286921	67.673660
3323.362229	62.617716
3324.437387	62.328671
3325.513856	62.135198
3326.587255	61.170163
3327.660504	60.344988
3328.735065	56.699301
3329.808017	55.186480
3330.879360	54.326340
3331.952014	56.986014
3333.021601	55.585082
3334.092500	58.284382
3335.161791	65.529138
3336.232392	61.752914
3337.301388	67.731935
3338.368777	67.708625
3339.434561	69.048951
3340.504571	68.972028
3341.571518	67.783217
3342.635403	62.305361
3343.702055	57.706294
3344.767104	56.321678
3345.830549	54.459207
3346.893848	57.114219
3347.957000	57.123543
3349.020006	51.272727
3350.082866	57.023310
3351.144123	56.743590
3352.202324	60.955711
3353.264746	65.960373
3354.324112	69.151515
3355.383332	68.659674
3356.443861	72.869464
3357.499882	68.069930
3358.558666	72.351981
3359.612943	75.463869
3360.669984	70.435897
3361.725426	65.638695
3362.782178	69.426573
3363.837331	69.090909
3364.890887	70.648019
3365.942846	67.219114
3366.997568	67.438228
3368.049240	66.603730
3369.100769	65.734266
3370.153606	59.254079
3371.203396	65.212121
3372.254495	62.976690
3373.302547	59.899767
3374.353360	54.449883
3375.401127	55.599068
3376.448752	55.151515
3377.496235	54.142191
3378.542125	50.212121
3379.589323	52.811189
3380.633479	56.433566
3381.680393	57.496503
3382.725715	59.247086
3383.767996	59.862471
3384.810136	58.867133
3385.853585	57.090909
3386.896892	51.149184
3387.938609	51.969697
3388.980186	49.391608
3390.021621	48.557110
3391.061468	50.664336
3392.099726	56.062937
3393.139292	58.561772
3394.178718	58.804196
3395.216556	66.874126
3396.252807	66.174825
3397.288919	66.920746
3398.326338	63.442890
3399.360723	64.482517
3400.396417	65.491841
3401.431971	57.261072
3402.464494	56.736597
3403.499769	59.708625
3404.532015	57.722611
3405.564122	58.002331
3406.594645	59.013986
3407.626475	62.074592
3408.658167	57.181818
3409.686831	57.114219
3410.715358	57.951049
3411.745191	53.620047
3412.774887	54.508159
3413.801557	50.167832
3414.829533	53.188811
3415.854486	52.801865
3416.882188	51.519814
3417.906866	57.967366
3418.932851	61.226107
3419.957257	61.874126
3420.981526	64.652681
3422.004216	65.440559
3423.026770	67.503497
3424.050630	60.806527
3425.071470	64.780886
3426.092174	60.051282
3427.114184	55.735265
3428.133176	53.035631
3429.152033	53.155178
3430.172196	57.296703
3431.189342	66.663004
