-118.067271	-19.216117
-115.397671	-13.959707
-112.731006	-11.491841
-110.065093	-11.110889
-107.402113	-12.115218
-104.737702	-13.803197
-102.076222	-15.473193
-99.413313	-10.277389
-96.755510	-9.841492
-94.096278	-10.974359
-91.437794	-13.559441
-88.782235	-6.247086
-86.125246	-3.258741
-83.473356	-1.573427
-80.820036	-5.368298
-78.169635	-1.664336
-75.517806	-6.899767
-72.871067	-7.293706
-70.222898	-9.934732
-67.575472	-8.743590
-64.930961	-13.881119
-62.285020	-16.668998
-59.644161	-17.417249
-57.001873	-12.983683
-54.362494	-11.610723
-51.721686	-8.396270
-49.081617	-8.270396
-46.446622	2.522145
-43.810197	3.039627
-41.176675	4.086247
-38.541725	0.090909
-35.911841	2.111888
-33.278363	1.181818
-30.649948	1.076923
-28.022267	-0.734266
-25.393157	1.403263
-22.769105	-15.948718
-20.141462	-73.883450
-17.518874	-212.699301
-14.897016	-277.682984
-12.275889	143.993007
-9.655493	951.764569
-7.037984	1663.713287
-4.419047	2175.256410
-1.802996	2470.741259
0.812328	2554.603730
3.426923	2421.307692
6.038637	2081.552448
8.651779	1529.811189
11.259887	820.240093
13.871576	78.869464
16.478235	-370.212121
19.086323	-290.438228
21.693685	-58.909091
24.296023	-8.296037
26.901940	-6.599068
29.502834	-6.284382
32.105156	-3.512821
34.702460	-4.328671
37.303341	-6.184149
39.899206	-12.720280
42.496500	-10.233100
45.093074	-12.363636
47.684639	-7.069930
50.277632	-6.815851
52.867764	-7.482517
55.459323	-4.741259
58.048024	-5.118881
60.638151	-4.310023
63.223279	0.550117
65.809835	-0.473193
68.395677	-1.575758
70.978664	-2.932401
73.563079	-3.249417
76.140365	-9.692308
78.721217	-9.456876
81.299220	-13.960373
83.876513	-19.815851
86.455232	-18.081585
89.028969	-16.424242
91.604133	-10.757576
94.176454	-2.976690
96.748068	0.860140
99.316841	2.421911
101.887041	-0.582751
104.454402	-4.331002
107.023190	-8.030303
109.589141	-5.081585
112.152257	-9.310023
114.718929	-5.128205
117.276379	-8.643357
119.839515	-3.002331
122.397692	2.391608
124.959423	12.347319
127.516197	22.137529
130.074397	31.820513
132.627645	50.636364
135.180195	76.617716
137.736295	102.111888
140.287447	132.174825
142.837902	154.668998
145.387659	182.314685
147.934597	195.825175
150.480840	216.344988
153.028508	228.909091
155.575480	233.571096
158.117517	234.326340
160.658860	230.216783
163.199510	231.592075
165.741586	223.617716
168.280850	216.006993
170.817305	215.559441
173.353070	211.745921
175.890260	213.571096
178.426759	207.121212
180.960452	211.452214
183.491341	213.100233
186.021542	206.114219
188.553169	208.044289
191.081994	207.361305
193.608020	211.114219
196.133360	206.251748
198.660125	209.452214
201.184094	219.172494
203.707378	223.177156
206.229976	223.876457
208.749782	219.710956
211.268905	222.515152
213.787346	224.911422
216.307210	221.578089
218.820072	228.102564
221.336467	232.522145
223.852179	232.617716
226.363001	232.144522
228.875248	236.097902
231.384712	240.710956
233.893498	236.132867
236.401606	227.701632
238.911138	226.025641
241.415789	227.720280
243.919764	229.433566
246.425163	223.771562
248.925687	227.664336
251.429734	228.981352
253.926811	224.526807
256.427411	230.095571
258.925239	232.503497
261.422394	235.020979
263.918876	231.720280
266.410495	230.596737
268.905634	238.487179
271.398006	237.368298
273.889708	236.275058
276.378647	232.519814
278.869009	238.286713
281.356610	235.435897
283.841451	229.242424
286.329807	233.752914
288.811223	229.361305
291.296153	226.498834
293.776238	227.051282
296.259835	232.948718
298.738589	235.860140
301.218766	232.911422
303.696192	235.102564
306.172954	239.529138
308.649052	246.972028
311.122402	248.468531
313.595091	257.310023
316.067118	272.447552
318.538483	283.296037
321.007105	288.601399
323.475067	302.321678
325.944452	310.076923
328.409014	298.627040
330.877080	287.510490
333.340325	275.009324
335.802914	263.398601
338.264846	248.282051
340.726121	238.202797
343.184661	233.736597
345.644625	237.554779
348.101855	244.004662
350.558431	247.983683
353.014353	256.235431
355.467545	262.909091
357.922160	260.296037
360.371973	272.573427
362.825282	266.212121
365.273792	266.344988
367.721652	262.804196
370.170934	259.923077
372.615422	252.578089
375.061332	250.853147
377.506592	250.221445
379.949134	253.685315
382.391028	253.067599
384.832274	257.622378
387.270806	255.578089
389.710758	260.002331
392.147997	250.564103
394.582525	251.944056
397.020539	247.384615
399.453778	241.048951
401.888437	233.324009
404.318324	227.477855
406.751696	232.114219
409.180298	238.083916
411.608258	237.200466
414.037640	241.881119
416.462256	240.578089
418.888294	246.752914
421.313691	248.526807
423.738448	247.421911
426.158446	242.902098
428.579866	247.960373
430.998590	248.897436
433.418734	253.396270
435.836183	256.762238
438.255052	252.249417
440.671227	249.386946
443.082656	254.594406
445.497561	251.601399
447.909777	251.899767
450.321358	247.543124
452.732305	247.212121
455.140565	243.265734
457.548194	251.226107
459.955190	251.365967
462.361555	254.223776
464.765237	247.254079
467.168289	245.151515
469.570711	240.431235
471.972503	243.482517
474.371617	236.261072
476.772151	233.272727
479.172056	226.226107
481.567239	228.864802
483.965888	223.585082
486.359816	226.941725
488.753119	225.251748
491.145797	220.652681
493.537849	217.125874
495.931319	215.067599
498.320077	217.484848
500.706169	219.044289
503.093681	208.969697
505.480570	205.494172
507.864795	200.762238
510.250438	202.881119
512.633420	198.519814
515.013741	198.174825
517.395481	187.568765
519.774562	184.111888
522.155061	188.955711
524.532904	186.512821
526.908090	188.328671
529.282660	178.962704
531.658647	171.748252
534.031982	171.750583
536.406734	170.137529
538.776800	169.023310
541.146252	166.011655
543.517121	167.398601
545.883309	161.184149
548.250916	168.034965
550.615878	173.790210
552.980226	169.046620
555.343961	167.363636
557.709114	167.762238
560.069595	171.011655
562.431494	170.941725
564.790752	165.079254
567.147372	162.517483
569.507438	156.615385
571.860812	155.428904
574.217631	149.118881
576.571815	151.568765
578.925390	152.093240
581.278358	156.407925
583.628693	156.174825
585.980446	161.118881
588.325522	165.023310
590.676061	157.974359
593.019928	155.144522
595.369256	153.517483
597.713935	149.305361
600.055990	145.160839
602.399462	143.279720
604.740311	147.060606
607.080557	153.615385
609.418183	160.829837
611.759244	161.417249
614.095668	169.424242
616.433508	169.776224
618.768731	164.167832
621.101337	163.023310
623.435361	156.955711
625.766770	151.951049
628.097581	145.806527
630.427794	144.442890
632.757410	147.051282
635.082402	149.843823
637.412836	155.235431
639.738649	159.899767
642.061854	160.778555
644.386476	156.727273
646.708492	152.615385
649.029914	149.818182
651.348733	148.291375
653.668969	148.053613
655.988611	147.372960
658.305652	148.480186
660.622101	148.561772
662.935952	151.627040
665.251219	159.515152
667.563889	156.930070
669.877974	151.296037
672.187459	150.114219
674.498360	150.354312
676.806668	147.515152
679.114388	146.792541
681.423522	141.312354
683.728064	141.226107
686.032020	138.342657
688.335390	136.526807
690.640174	139.163170
692.940371	142.118881
695.241984	141.652681
697.543011	144.641026
699.839457	148.976690
702.137318	153.000000
704.434595	151.244755
706.731289	147.685315
709.023407	141.365967
711.318936	140.717949
713.609891	134.358974
715.902261	132.261072
718.192056	129.764569
720.481270	136.153846
722.769905	138.340326
725.055967	143.009324
727.343444	148.254079
729.628349	157.778555
731.912677	160.251748
734.194436	159.477855
736.477609	158.489510
738.760205	159.484848
741.038245	157.324009
743.317699	152.382284
745.596578	150.452214
747.874882	154.214452
750.148636	150.011655
752.423803	149.813520
754.698397	152.531469
756.970432	152.041958
759.243880	146.713287
761.514770	142.913753
763.783104	142.937063
766.052851	147.762238
768.320043	144.759907
770.586666	140.358974
772.852718	144.300699
775.116219	146.867133
777.381133	147.244755
779.645477	148.706294
781.905292	151.603730
784.166519	144.589744
786.427179	142.820513
788.685293	140.561772
790.940862	141.508159
793.199821	141.137529
795.452282	134.643357
797.710110	139.254079
799.963419	143.030303
802.214188	146.848485
804.466369	151.111888
806.716011	156.296037
808.967065	156.445221
811.213609	159.743590
813.461564	158.944056
815.706985	153.431235
817.953817	148.613054
820.200088	143.692308
822.441854	140.424242
824.687004	142.979021
826.925681	142.305361
829.167740	145.580420
831.405301	147.470862
833.644274	149.354312
835.880720	152.848485
838.118577	157.149184
840.353909	152.958042
842.586718	146.615385
844.820937	141.589744
847.052635	141.727273
849.283778	139.568765
851.514366	136.219114
853.744400	135.151515
855.973880	134.179487
858.198878	131.925408
860.427250	134.454545
862.651144	134.930070
864.876449	133.932401
867.097278	135.268065
869.321479	134.715618
871.541207	131.568765
873.762345	136.557110
875.982933	134.447552
878.201012	139.389277
880.420500	139.319347
882.635522	138.400932
884.849996	134.874126
887.063923	142.186480
889.277303	144.156177
891.490135	148.517483
893.702420	149.808858
895.912204	149.431235
898.121442	145.221445
900.330135	149.599068
902.536328	148.186480
904.743932	153.664336
906.949037	146.365967
909.153599	145.475524
911.355666	141.265734
913.559142	148.948718
915.760124	147.557110
917.960564	148.643357
920.162413	149.843823
922.357871	148.841492
924.556687	152.843823
926.751066	159.587413
928.948802	163.076923
931.142102	166.969697
933.336811	165.118881
935.529033	164.261072
937.720718	158.652681
939.911865	157.764569
942.100529	148.608392
944.288657	145.937063
946.474303	145.004662
948.663303	145.715618
950.847879	153.214452
953.031920	156.540793
955.219311	160.065268
957.398398	159.195804
959.580836	163.505828
961.762740	163.874126
963.942169	162.354312
966.119126	161.107226
968.297491	157.745921
970.477263	158.967366
972.650686	159.293706
974.827455	162.456876
976.999817	162.620047
979.173587	158.727273
981.342953	157.645688
983.515663	156.736597
985.685908	164.286713
987.855623	170.729604
990.024810	172.228438
992.189600	177.172494
994.357732	180.146853
996.521468	185.107226
998.686612	184.874126
1000.849296	184.463869
1003.011455	182.389277
1005.171157	180.438228
1007.330334	176.137529
1009.490918	179.020979
1011.649047	180.088578
1013.806653	186.090909
1015.963735	182.461538
1018.120293	188.342657
1020.272472	190.986014
1022.426058	193.848485
1024.579122	192.596737
1026.729737	191.666667
1028.881758	192.086247
1031.029407	194.102564
1033.180387	190.386946
1035.326996	192.641026
1037.473086	194.743590
1039.618658	204.396270
1041.765635	203.228438
1043.906323	209.167832
1046.050340	208.207459
1048.191918	204.041958
1050.332978	199.764569
1052.475444	199.083916
1054.611629	194.627040
1056.751141	193.177156
1058.886297	189.205128
1061.024778	192.652681
1063.158906	199.069930
1065.292520	203.643357
1067.427538	203.447552
1069.558208	207.377622
1071.690282	210.172494
1073.819927	210.685315
1075.949060	207.890443
1078.077681	209.510490
1080.205791	205.277389
1082.331475	208.442890
1084.456649	207.692308
1086.583227	206.223776
1088.705467	198.365967
1090.829112	198.354312
1092.948422	196.764569
1095.072961	194.230769
1097.191256	193.326340
1099.310954	191.850816
1101.428235	191.449883
1103.545008	189.976690
1105.661276	189.209790
1107.775127	187.685315
1109.890382	183.685315
1112.001315	179.240093
1114.115560	174.261072
1116.225484	179.920746
1118.336812	181.296037
1120.447635	181.988345
1122.554142	186.804196
1124.663958	194.741259
1126.769461	197.317016
1128.876366	199.615385
1130.977056	196.445221
1133.082958	193.365967
1135.184551	191.356643
1137.287547	185.188811
1139.390042	179.414918
1141.486330	173.244755
1143.587825	172.009324
1145.685018	175.468531
1147.781713	179.156177
1149.877909	179.550117
1151.973607	179.832168
1154.068808	189.149184
1156.161612	186.046620
1158.255818	189.442890
1160.343833	186.172494
1162.437047	177.773893
1164.524072	175.722611
1166.614396	171.377622
1168.700432	175.198135
1170.789766	179.878788
1172.872920	178.081585
1174.957475	182.484848
1177.043432	188.018648
1179.125107	196.822844
1181.208183	193.836830
1183.288874	194.990676
1185.369074	189.086247
1187.448782	189.030303
1189.527999	185.731935
1191.604833	185.023310
1193.679287	185.410256
1195.757033	184.207459
1197.830508	184.538462
1199.905385	196.002331
1201.975994	191.589744
1204.048004	195.242424
1206.117638	194.638695
1208.188673	197.265734
1210.259221	194.902098
1212.325507	201.564103
1214.393194	197.296037
1216.458508	202.048951
1218.525224	201.969697
1220.587683	205.799534
1222.653427	205.713287
1224.714917	210.009324
1226.777808	201.181818
1228.838330	201.624709
1230.898370	203.393939
1232.957926	200.629371
1235.015118	200.146853
1237.071827	205.219114
1239.126174	208.027972
1241.183802	207.324009
1243.239066	210.962704
1245.290091	217.361305
1247.342515	214.410256
1249.394459	213.930070
1251.444045	211.678322
1253.493152	212.170163
1255.541780	211.279720
1257.589930	210.529138
1259.637602	214.606061
1261.681043	217.305361
1263.727760	216.934732
1265.772123	213.468531
1267.816010	216.389277
1269.857545	222.771562
1271.896731	220.554779
1273.939190	215.958042
1275.977426	220.636364
1278.017061	224.174825
1280.056221	225.018648
1282.091162	232.883450
1284.127502	235.303030
1286.161498	234.174825
1288.196891	231.512821
1290.228071	234.466200
1292.260650	235.475524
1294.292757	240.109557
1296.322523	242.319347
1298.353686	242.599068
1300.380643	249.328671
1302.408997	253.857809
1304.433146	258.326340
1306.460561	262.533800
1308.483773	264.258741
1310.508383	264.522145
1312.530659	265.235431
1314.554331	270.503497
1316.575671	270.948718
1318.596544	273.177156
1320.616949	275.275058
1322.633161	276.916084
1324.650770	272.484848
1326.666051	278.242424
1328.684591	277.531469
1330.698941	277.062937
1332.710966	276.179487
1334.726249	272.794872
1336.737346	272.109557
1338.749839	276.298368
1340.758150	276.564103
1342.769717	274.494172
1344.775245	276.317016
1346.784028	278.960373
1348.788633	273.291375
1350.796492	275.745921
1352.803889	269.634033
1354.805255	262.041958
1356.808017	254.242424
1358.810320	253.675991
1360.812163	253.407925
1362.813546	257.881119
1364.812615	253.477855
1366.811227	255.599068
1368.809379	258.041958
1370.807074	258.622378
1372.800606	257.941725
1374.795533	257.146853
1376.790004	254.862471
1378.784018	245.417249
1380.775725	244.247086
1382.766976	243.079254
1384.755922	238.512821
1386.746264	242.319347
1388.736150	232.454545
1390.723732	227.641026
1392.710861	223.554779
1394.695688	224.477855
1396.681910	222.125874
1398.665831	224.214452
1400.649300	223.454545
1402.632317	222.452214
1404.613036	231.228438
1406.595149	234.072261
1408.574965	240.247086
1410.554331	247.986014
1412.529558	244.391608
1414.508023	241.461538
1416.484195	238.815851
1418.459917	235.198135
1420.435191	231.724942
1422.408173	234.123543
1424.380707	232.902098
1426.352793	233.354312
1428.324432	235.354312
1430.291942	232.188811
1432.264526	226.254079
1434.229304	223.202797
1436.199155	218.864802
1438.164881	211.892774
1440.132001	205.927739
1442.096837	205.843823
1444.057553	207.892774
1446.023337	207.958042
1447.983166	204.811189
1449.944389	205.074592
1451.907003	208.240093
1453.865503	210.034965
1455.823561	213.734266
1457.781177	220.459207
1459.738350	223.009324
1461.693248	226.205128
1463.649539	227.785548
1465.603555	227.060606
1467.557130	221.123543
1469.508433	216.645688
1471.461128	215.135198
1473.411552	222.191142
1475.361537	227.424242
1477.311083	235.484848
1479.258360	239.890443
1481.203369	240.580420
1483.149771	246.582751
1485.095735	249.356643
1487.041262	244.258741
1488.984523	239.545455
1490.927348	234.825175
1492.867910	236.911422
1494.809864	242.848485
1496.749555	244.235431
1498.688811	242.200466
1500.627633	244.736597
1502.564195	243.494172
1504.502148	246.983683
1506.437842	253.025641
1508.373103	251.375291
1510.306107	246.552448
1512.238679	242.650350
1514.170819	240.389277
1516.102527	240.815851
1518.031982	243.773893
1519.962827	237.347319
1521.893240	236.512821
1523.819581	241.216783
1525.747312	244.536131
1527.672794	250.752914
1529.597846	259.368298
1531.522469	266.272727
1533.446662	271.620047
1535.368609	280.018648
1537.291946	293.958042
1539.213036	310.482517
1541.131882	327.995338
1543.052118	343.501166
1544.970110	369.153846
1546.887676	403.104895
1548.803001	435.200466
1550.719715	481.321678
1552.632374	536.811189
1554.548236	598.510490
1556.461860	659.724942
1558.373245	724.221445
1560.286020	777.657343
1562.194745	814.832168
1564.104859	830.557110
1566.014550	828.552448
1567.923818	808.962704
1569.830851	770.477855
1571.735653	715.491841
1573.641842	660.720280
1575.545801	606.384615
1577.449338	559.293706
1579.352455	510.116550
1581.253342	472.275058
1583.155618	438.123543
1585.055665	409.832168
1586.957101	390.086247
1588.854503	376.923077
1590.751486	357.072261
1592.648051	339.328671
1594.546003	334.580420
1596.438121	330.871795
1598.333433	329.132867
1600.228327	326.832168
1602.120999	317.512821
1604.013254	312.351981
1605.903290	306.487179
1607.792910	301.715618
1609.682115	296.291375
1611.570904	287.030303
1613.457477	271.268065
1615.345437	261.585082
1617.229380	255.764569
1619.114710	250.398601
1620.999627	243.034965
1622.882330	232.925408
1624.766420	221.792541
1626.646498	216.899767
1628.527964	212.233100
1630.407218	205.699301
1632.287860	198.911422
1634.162697	199.680653
1636.042515	199.179487
1637.918329	196.932401
1639.793732	193.806527
1641.670521	199.426573
1643.541513	193.226107
1645.415688	187.335664
1647.285863	187.275058
1649.159219	189.153846
1651.030372	186.170163
1652.899323	180.650350
1654.769660	182.561772
1656.636004	183.442890
1658.503733	182.410256
1660.369263	174.198135
1662.236179	173.293706
1664.099105	171.412587
1665.963418	169.083916
1667.825534	169.342657
1669.687245	170.027972
1671.550341	170.997669
1673.411243	167.515152
1675.269952	165.466200
1677.128257	165.030303
1678.987946	164.258741
1680.841869	161.456876
1682.698965	158.662005
1684.555657	159.335664
1686.408374	162.988345
1688.264262	163.571096
1690.116176	161.321678
1691.967689	159.191142
1693.818801	162.554779
1695.669512	159.904429
1697.519823	156.890443
1699.367950	155.692308
1701.217461	155.505828
1703.061222	156.589744
1704.909934	162.461538
1706.752899	159.270396
1708.599030	160.123543
1710.441200	154.757576
1712.286535	151.307692
1714.126129	149.815851
1715.967107	147.191142
1717.809468	141.517483
1719.647872	140.766900
1721.487660	139.606061
1723.325273	142.088578
1725.162491	149.340326
1726.997535	152.132867
1728.833962	151.806527
1730.668216	152.279720
1732.502077	154.135198
1734.335543	155.930070
1736.165063	155.699301
1737.997743	149.368298
1739.826478	142.505828
1741.658370	149.158508
1743.486320	149.813520
1745.313878	151.757576
1747.141045	149.710956
1748.967820	147.794872
1750.794203	148.736597
1752.616650	146.895105
1754.442252	146.132867
1756.263919	149.627040
1758.086967	145.498834
1759.907855	141.375291
1761.728354	135.382284
1763.550233	137.531469
1765.366413	135.904429
1767.185745	132.051282
1769.001150	130.871795
1770.819706	129.759907
1772.634336	132.666667
1774.448579	134.310023
1776.262436	136.657343
1778.075906	141.839161
1779.887223	143.771562
1781.699920	145.706294
1783.512232	139.841492
1785.320625	137.004662
1787.130400	140.344988
1788.936260	136.102564
1790.745265	136.431235
1792.550357	131.184149
1794.356830	134.228438
1796.162919	134.060606
1797.965097	130.480186
1799.770420	130.314685
1801.571833	131.855478
1803.374628	134.634033
1805.173516	134.158508
1806.973785	136.599068
1808.773672	137.692308
1810.571417	136.815851
1812.368782	134.240093
1814.165766	133.545455
1815.962371	132.918415
1817.756835	132.076923
1819.552680	128.811189
1821.342869	129.016317
1823.137955	125.818182
1824.927388	128.846154
1826.719959	125.834499
1828.510394	122.755245
1830.298694	127.079254
1832.090130	128.881119
1833.875921	125.377622
1835.663091	130.244755
1837.448129	130.356643
1839.236300	136.221445
1841.020587	133.540793
1842.802743	130.624709
1844.586279	123.431235
1846.367686	122.557110
1848.150471	116.421911
1849.929377	114.573427
1851.709661	122.510490
1853.487820	115.522145
1855.267357	118.916084
1857.044768	123.445221
1858.820057	129.389277
1860.596723	134.377622
1862.371267	137.944056
1864.147188	142.142191
1865.917490	141.850816
1867.690919	140.055944
1869.462228	140.599068
1871.233166	142.967366
1873.005482	145.062937
1874.772184	142.013986
1876.542011	147.780886
1878.307975	148.685315
1880.077063	150.599068
1881.842289	147.139860
1883.607147	146.027972
1885.373381	141.692308
1887.135758	136.181818
1888.897766	128.694639
1890.659408	129.163170
1892.420682	127.715618
1894.181590	125.347319
1895.942130	124.953380
1897.700562	123.659674
1899.458627	124.692308
1901.214585	118.860140
1902.971919	116.892774
1904.728888	116.696970
1906.483750	114.559441
1908.236508	117.965035
1909.988901	124.160839
1911.742671	127.452214
1913.494337	125.867133
1915.243900	125.757576
1916.994840	129.752914
1918.745416	128.172494
1920.492154	132.421911
1922.240267	128.160839
1923.986282	132.529138
1925.733671	135.655012
1927.478962	139.706294
1929.222157	145.729604
1930.966726	147.039627
1932.709199	142.715618
1934.451313	137.920746
1936.193066	134.846154
1937.934459	133.237762
1939.673759	128.487179
1941.412700	130.585082
1943.151282	128.137529
1944.887773	127.815851
1946.623905	125.699301
1948.361413	131.142191
1950.095098	135.752914
1951.830158	139.608392
1953.563129	142.167832
1955.295744	145.582751
1957.028002	147.836830
1958.759905	148.235431
1960.489721	145.827506
1962.217452	146.575758
1963.946558	140.200466
1965.675308	127.764569
1967.401976	120.750583
1969.128288	122.284382
1970.855975	119.547786
1972.578125	122.494172
1974.303376	120.018648
1976.024820	128.820513
1977.749364	133.188811
1979.471829	136.335664
1981.190490	136.846154
1982.912251	142.116550
1984.630209	138.459207
1986.349540	137.097902
1988.065072	138.419580
1989.785424	135.890443
1991.501978	131.932401
1993.214735	132.421911
1994.930588	129.662005
1996.644369	136.650350
1998.357800	134.526807
2000.069160	138.109557
2001.781892	141.445221
2003.490834	143.270396
2005.202868	145.216783
2006.909393	144.573427
2008.619011	140.536131
2010.326561	134.456876
2012.033764	127.801865
2013.738901	124.298368
2015.443692	120.212121
2017.149854	123.496503
2018.852234	119.799534
2020.555985	124.386946
2022.257674	129.710956
2023.959017	133.193473
2025.660016	133.536131
2027.358953	131.715618
2029.059262	132.435897
2030.755795	134.109557
2032.453700	134.766900
2034.149547	135.160839
2035.848479	135.757576
2037.541925	136.386946
2039.236742	129.170163
2040.931216	130.212121
2042.621923	128.722611
2044.315712	125.454545
2046.005736	116.997669
2047.697130	119.347319
2049.386470	116.955711
2051.077182	123.547786
2052.764130	125.034965
2054.450738	130.282051
2056.138717	132.715618
2057.822936	131.918415
2059.508526	127.741259
2061.193775	132.755245
2062.876977	129.864802
2064.561549	129.118881
2066.240657	123.659674
2067.924552	124.615385
2069.602985	118.769231
2071.284496	121.023310
2072.962255	117.874126
2074.639678	125.237762
2076.318470	124.426573
2077.995219	125.522145
2079.669927	128.561772
2081.346005	136.004662
2083.020041	137.589744
2084.693743	140.741259
2086.367109	138.417249
2088.038436	130.200466
2089.709429	123.480186
2091.380088	118.034965
2093.050413	114.484848
2094.720404	122.738928
2096.388359	122.869464
2098.055980	122.757576
2099.721568	125.566434
2101.388524	123.689977
2103.053447	122.878788
2104.718038	125.440559
2106.380597	119.041958
2108.044524	112.762238
2109.706420	115.074592
2111.367986	116.580420
2113.029220	121.969697
2114.688425	133.895105
2116.347301	133.461538
2118.005847	133.442890
2119.664062	135.016317
2121.318555	136.393939
2122.976112	134.060606
2124.633339	133.379953
2126.286846	124.349650
2127.941720	124.979021
2129.592875	126.687646
2131.247093	133.202797
2132.897593	135.256410
2134.549461	137.787879
2136.195920	137.095571
2137.847134	134.904429
2139.494634	134.156177
2141.143501	132.386946
2142.790349	128.920746
2144.436872	122.107226
2146.083069	114.060606
2147.725558	115.296037
2149.371104	116.328671
2151.012944	117.412587
2152.657841	115.344988
2154.299033	118.592075
2155.939901	117.473193
2157.580446	113.296037
2159.218978	117.277389
2160.858876	122.536131
2162.495074	127.193473
2164.132638	127.361305
2165.769880	127.128205
2167.405112	128.354312
2169.040022	125.972028
2170.674611	121.319347
2172.308879	123.172494
2173.939453	127.121212
2175.573079	123.037296
2177.203013	118.592075
2178.834312	119.580420
2180.463606	119.172494
2182.092581	120.911422
2183.721236	121.997669
2185.349572	120.503497
2186.975905	123.202797
2188.601920	125.948718
2190.225934	130.888112
2191.851313	134.496503
2193.474691	139.759907
2195.099434	138.897436
2196.720496	141.888112
2198.341241	138.258741
2199.963350	138.153846
2201.583462	135.969697
2203.201578	124.755245
2204.819378	119.662005
2206.436862	114.237762
2208.054032	107.934732
2209.670885	105.223776
2211.287424	104.643357
2212.901970	107.941725
2214.514523	116.475524
2216.128440	124.745921
2217.740366	120.904429
2219.353655	124.123543
2220.964954	128.736597
2222.574263	126.682984
2224.184935	127.109557
2225.793619	126.850816
2227.401991	122.801865
2229.008376	122.958042
2230.616123	122.682984
2232.221885	122.990676
2233.827335	123.027972
2235.430800	120.417249
2237.035628	119.025641
2238.638472	120.878788
2240.239333	128.205128
2241.841557	128.958042
2243.441799	131.251748
2245.043403	133.398601
2246.641354	134.944056
2248.240668	132.146853
2249.838002	131.794872
2251.435028	131.571096
2253.033415	125.393939
2254.628155	129.032634
2256.220917	128.011655
2257.815042	119.587413
2259.410528	117.100233
2261.002369	115.438228
2262.593904	109.771562
2264.186801	110.599068
2265.774388	113.783217
2267.366671	116.375291
2268.953648	121.750583
2270.543652	123.538462
2272.128352	128.172494
2273.717746	137.967366
2275.301837	133.491841
2276.887290	128.067599
2278.470774	128.002331
2280.057283	120.410256
2281.640159	114.463869
2283.222732	117.320513
2284.805001	117.932401
2286.383640	117.840326
2287.965304	118.233100
2289.543339	124.353147
2291.124397	129.016317
2292.701828	133.392774
2294.277296	130.102564
2295.855786	133.446387
2297.430652	133.090909
2299.005217	128.674825
2300.579481	126.337995
2302.153445	127.583916
2303.727109	129.321678
2305.300473	122.426573
2306.870218	122.060606
2308.439664	123.941725
2310.012128	118.710956
2311.579318	118.566434
2313.149525	117.030303
2314.716119	121.557110
2316.284072	112.832168
2317.850069	111.979021
2319.415769	112.671329
2320.981171	118.867133
2322.544620	131.298368
2324.109428	136.275058
2325.670628	142.438228
2327.234842	143.298368
2328.793794	138.442890
2330.355760	136.517483
2331.915776	135.286713
2333.475496	130.137529
2335.033268	114.489510
2336.590744	115.731935
2338.147926	115.703963
2339.703160	117.417249
2341.258101	125.808858
2342.812747	127.659674
2344.367100	130.519814
2345.921159	126.552448
2347.474925	125.790210
2349.026746	125.237762
2350.576624	129.601399
2352.129511	124.510490
2353.677154	121.013986
2355.227806	124.850816
2356.774866	122.016317
2358.323284	120.032634
2359.871411	117.750583
2361.415949	116.391608
2362.961845	115.116550
2364.505803	113.244755
2366.051117	114.559441
2367.592847	114.916084
2369.135935	119.349650
2370.677086	121.237762
2372.217948	121.624709
2373.758521	123.627040
2375.298805	122.484848
2376.838800	130.710956
2378.375216	130.694639
2379.914634	131.205128
2381.450475	128.445221
2382.987673	129.324009
2384.521295	123.424242
2386.057917	122.953380
2387.592609	127.783217
2389.125371	122.895105
2390.657846	114.734266
2392.188393	116.547786
2393.721938	119.839161
2395.250272	124.011655
2396.779962	121.272727
2398.309367	125.438228
2399.838487	129.881119
2401.367321	130.895105
2402.890951	126.815851
2404.419216	134.044289
2405.942279	137.326340
2407.469975	130.445221
2408.990832	130.270396
2410.516321	129.878788
2412.038251	127.358974
2413.561535	125.871795
2415.082899	127.745921
2416.602343	128.354312
2418.123142	128.650350
2419.642022	129.020979
2421.160621	127.132867
2422.677301	128.916084
2424.195337	131.671329
2425.713091	133.109557
2427.227293	132.494172
2428.741216	124.606061
2430.254858	124.186480
2431.769854	127.538462
2433.281303	125.265734
2434.794105	124.247086
2436.304995	123.188811
2437.815606	131.734266
2439.324305	131.370629
2440.835990	134.762238
2442.344132	138.200466
2443.851996	138.375291
2445.359581	130.589744
2446.863627	122.128205
2448.370657	119.179487
2449.875779	120.431235
2451.380624	116.706294
2452.883562	121.317016
2454.386224	120.958042
2455.888609	124.088578
2457.389089	117.729604
2458.890922	121.510490
2460.390850	120.592075
2461.890503	115.881119
2463.389881	116.216783
2464.887356	116.284382
2466.382929	119.906760
2467.881482	126.512821
2469.376507	126.776224
2470.872884	127.648019
2472.365735	122.981352
2473.859939	121.606061
2475.353869	116.421911
2476.844275	115.284382
2478.337659	106.986014
2479.829145	103.442890
2481.318734	105.193473
2482.808051	105.916084
2484.295472	107.181818
2485.785869	111.867133
2487.272748	117.792541
2488.760978	123.307692
2490.245691	129.282051
2491.730134	140.715618
2493.215929	138.328671
2494.699832	133.321678
2496.185085	132.004662
2497.665205	130.713287
2499.148298	125.715618
2500.629500	123.773893
2502.110433	113.025641
2503.589477	114.403263
2505.068252	115.696970
2506.546759	115.123543
2508.024997	115.871795
2509.502968	120.405594
2510.977433	116.174825
2512.454868	115.020979
2513.928798	114.358974
2515.404080	113.349650
2516.879094	117.717949
2518.350607	118.636364
2519.823471	113.519814
2521.294452	123.337995
2522.766783	126.703963
2524.234000	132.806527
2525.704184	137.946387
2527.172487	139.181818
2528.640525	136.722611
2530.108297	135.550117
2531.575806	133.468531
2533.043049	134.407925
2534.506800	134.766900
2535.971901	133.708625
2537.435125	132.909091
2538.899698	136.983683
2540.360783	136.501166
2541.823217	139.226107
2543.285388	134.550117
2544.744072	132.258741
2546.207329	130.347319
2547.665489	125.445221
2549.124999	123.724942
2550.579414	122.701632
2552.038400	118.755245
2553.495514	122.468531
2554.950756	117.207459
2556.405738	118.848485
2557.858850	119.179487
2559.313311	121.857809
2560.765903	120.449883
2562.218235	129.226107
2563.668699	128.941725
2565.122120	126.874126
2566.570458	128.953380
2568.021751	134.808858
2569.471179	139.137529
2570.917134	141.662005
2572.366044	135.256410
2573.811484	138.055944
2575.258271	134.841492
2576.703195	133.370629
2578.147862	131.561772
2579.593876	136.792541
2581.036424	136.242424
2582.480318	132.764569
2583.920748	130.505828
2585.362526	135.223776
2586.802444	133.613054
2588.243709	129.818182
2589.681512	127.538462
2591.122265	129.363636
2592.557956	128.293706
2593.996595	127.529138
2595.433378	129.020979
2596.868305	135.701632
2598.306179	138.191142
2599.738996	135.447552
2601.173160	135.850816
2602.605470	134.979021
2604.039126	130.379953
2605.470929	130.228438
2606.902478	129.708625
2608.333774	132.883450
2609.763219	132.067599
2611.192411	135.508159
2612.619752	139.820513
2614.048440	147.002331
2615.476875	152.820513
2616.901864	153.708625
2618.328198	149.815851
2619.752685	146.510490
2621.178517	145.920746
2622.600905	147.610723
2624.024638	148.925408
2625.446526	154.573427
2626.868163	151.123543
2628.287956	159.939394
2629.709094	164.389277
2631.129982	169.937063
2632.547431	175.093240
2633.967820	175.016317
2635.384772	173.149184
2636.801476	177.403263
2638.217931	184.303030
2639.634138	189.235431
2641.050097	197.808858
2642.464215	202.349650
2643.878085	199.559441
2645.290116	203.829837
2646.703492	201.668998
2648.113438	200.452214
2649.526320	202.904429
2650.935773	203.601399
2652.344980	203.603730
2653.752351	211.333333
2655.162656	219.293706
2656.571125	228.102564
2657.977760	234.536131
2659.384149	238.482517
2660.788704	244.135198
2662.194603	244.170163
2663.598669	246.107226
2665.002490	250.538462
2666.406067	254.869464
2667.807813	255.009324
2669.210902	253.051282
2670.610573	257.899767
2672.011588	259.899767
2673.409187	261.724942
2674.809715	258.121212
2676.206829	260.995338
2677.605286	268.034965
2679.001916	267.055944
2680.398303	267.804196
2681.794448	269.391608
2683.188767	266.477855
2684.584429	258.317016
2685.976682	249.452214
2687.370277	244.074592
2688.762048	232.990676
2690.155162	230.573427
2691.546452	229.041958
2692.935919	225.060606
2694.325146	224.741259
2695.714134	219.512821
2697.104463	214.780886
2698.489809	213.219114
2699.878078	217.251748
2701.264527	213.692308
2702.650737	212.179487
2704.036708	212.962704
2705.419281	210.125874
2706.803196	214.601399
2708.186872	204.046620
2709.570311	196.599068
2710.950354	187.687646
2712.331739	181.510490
2713.711309	171.969697
2715.092219	169.501166
2716.471315	168.002331
2717.848597	163.144522
2719.227220	160.480186
2720.604029	162.832168
2721.980603	159.426573
2723.356941	160.447552
2724.731467	152.226107
2726.107334	156.158508
2727.479815	149.508159
2728.855211	152.212121
2730.225647	150.990676
2731.597423	148.062937
2732.968966	144.258741
2734.338700	142.107226
2735.709774	139.107226
2737.079041	139.228438
2738.448074	138.242424
2739.815301	138.291375
2741.182294	127.951049
2742.549055	124.853147
2743.915583	118.515152
2745.280307	121.254079
2746.644798	119.011655
2748.009058	116.680653
2749.373085	118.044289
2750.736881	119.967366
2752.097303	125.277389
2753.460635	127.934732
2754.819025	126.337995
2756.180325	123.496503
2757.538255	116.195804
2758.899093	115.571096
2760.258131	115.594406
2761.613802	110.764569
2762.972380	108.986014
2764.327591	111.522145
2765.682573	111.755245
2767.035758	115.291375
2768.391850	113.601399
2769.744578	108.629371
2771.097078	107.317016
2772.449349	108.354312
2773.802958	102.888112
2775.153207	104.282051
2776.501661	103.055944
2777.853020	101.587413
2779.201021	104.214452
2780.550359	107.990676
2781.897905	112.720280
2783.245225	118.058275
2784.592317	117.860140
2785.937619	119.701632
2787.282695	122.533800
2788.627545	123.097902
2789.972169	118.916084
2791.313441	121.491841
2792.656050	119.566434
2793.998435	117.377622
2795.340594	112.885781
2796.679404	108.864802
2798.021114	103.447552
2799.359475	102.333333
2800.699174	102.671329
2802.037088	101.694639
2803.373216	100.899767
2804.709122	99.808858
2806.046365	97.808858
2807.381824	103.426573
2808.717060	104.867133
2810.050513	107.326340
2811.385303	105.303030
2812.716753	103.941725
2814.051098	101.041958
2815.380544	99.843823
2816.711328	98.226107
2818.041891	98.258741
2819.370674	96.853147
2820.700793	95.759907
2822.029134	93.599068
2823.357254	102.237762
2824.683596	108.869464
2826.011274	112.179487
2827.335620	112.016317
2828.661302	113.783217
2829.985208	109.575758
2831.308894	100.573427
2832.633916	92.046620
2833.955609	90.923077
2835.277083	85.748252
2836.598337	83.086247
2837.919374	78.734266
2839.238637	85.386946
2840.559236	88.722611
2841.878063	90.902098
2843.196673	94.757576
2844.513511	100.862471
2845.830132	99.983683
2847.146536	104.083916
2848.461170	102.163170
2849.777139	103.869464
2851.089789	103.030303
2852.403773	106.135198
2853.717541	103.657343
2855.031092	106.906760
2856.342877	107.762238
2857.652895	108.969697
2858.964248	104.419580
2860.272286	107.918415
2861.581658	105.072261
2862.890815	106.932401
2864.199758	98.687646
2865.506936	95.710956
2866.812352	96.312354
2868.119101	98.738928
2869.424089	95.480186
2870.728862	100.349650
2872.031875	103.438228
2873.337768	106.503497
2874.638807	107.923077
2875.941179	112.198135
2877.241793	110.184149
2878.543739	110.216783
2879.845473	105.979021
2881.143903	103.808858
2882.443666	104.452214
2883.741672	98.533800
2885.039466	95.041958
2886.335504	95.592075
2887.632875	100.032634
2888.928490	106.058275
2890.223894	104.785548
2891.519087	103.939394
2892.810983	100.953380
2894.105754	104.517483
2895.397230	100.710956
2896.690038	96.144522
2897.982636	95.095571
2899.271939	93.062937
2900.562576	91.778555
2901.851461	95.550117
2903.141678	98.951049
2904.428604	103.972028
2905.716862	103.053613
2907.003371	106.522145
2908.289671	108.384615
2909.575763	106.375291
2910.860107	100.657343
2912.147323	96.564103
2913.429712	97.603730
2914.713433	96.519814
2915.995407	92.247086
2917.277175	94.107226
2918.557197	89.941725
2919.840090	93.496503
2921.121237	91.317016
2922.399101	93.186480
2923.679835	99.123543
2924.957289	99.135198
2926.234536	99.144522
2927.510041	101.093240
2928.788414	101.254079
2930.061973	99.237762
2931.338399	99.685315
2932.613084	99.610723
2933.886028	99.282051
2935.160304	101.202797
2936.432840	99.146853
2937.705171	101.545455
2938.974230	105.097902
2940.246154	105.741259
2941.516340	101.953380
2942.786322	99.974359
2944.056101	93.442890
2945.324144	91.547786
2946.590450	88.435897
2947.856554	85.165501
2949.123989	87.030303
2950.389688	86.088578
2951.655186	82.524476
2952.920481	83.417249
2954.182511	91.456876
2955.445871	96.020979
2956.709030	96.783217
2957.970457	98.041958
2959.233213	100.902098
2960.494237	102.687646
2961.753531	101.254079
2963.012624	99.032634
2964.271518	94.778555
2965.530211	87.904429
2966.788703	79.771562
2968.045467	77.410256
2969.302032	80.596737
2970.556868	77.165501
2971.813034	74.594406
2973.065945	81.379953
2974.320184	88.902098
2975.574225	88.165501
2976.826540	92.244755
2978.078657	94.878788
2979.329049	93.356643
2980.582296	97.179487
2981.830766	94.405594
2983.082091	92.745921
2984.330166	91.139860
2985.578044	89.247086
2986.825726	87.773893
2988.073210	94.706294
2989.318973	93.638695
2990.564540	91.706294
2991.811434	93.953380
2993.055084	96.170163
2994.300061	98.932401
2995.541796	101.773893
2996.786382	102.009324
2998.029249	98.233100
2999.268875	93.913753
3000.511351	92.797203
3001.750587	90.312354
3002.991151	89.020979
3004.229998	86.354312
3005.468651	85.543124
3006.705588	82.130536
3007.943853	81.470862
3009.180402	80.685315
3010.416758	81.435897
3011.652920	87.925408
3012.887368	83.694639
3014.121623	85.081585
3015.355686	89.072261
3016.588035	85.769231
3017.818673	84.459207
3019.052157	83.571096
3020.283930	80.904429
3021.513991	78.104895
3022.743861	76.473193
3023.972021	79.958042
3025.201508	85.808858
3026.429285	89.097902
3027.656871	86.517483
3028.885783	86.953380
3030.109953	83.307692
3031.336967	80.296037
3032.560756	81.034965
3033.785871	77.307692
3035.009281	77.470862
3036.232500	76.100233
3037.454014	79.566434
3038.678369	83.589744
3039.897989	83.209790
3041.118935	79.820513
3042.339692	77.170163
3043.558745	76.958042
3044.779123	74.547786
3045.996285	77.261072
3047.214773	78.291375
3048.431558	81.195804
3049.648155	89.289044
3050.864565	89.032634
3052.077761	90.324009
3053.293795	86.137529
3054.506617	84.121212
3055.722276	83.962704
3056.933213	85.981352
3058.145474	89.752914
3059.357548	85.787879
3060.569436	82.622378
3061.779627	83.799534
3062.989631	88.530303
3064.199449	90.888112
3065.407571	83.597902
3066.615508	78.871795
3067.821749	81.252914
3069.029315	80.065268
3070.235186	86.858974
3071.440872	90.834499
3072.646374	92.465035
3073.850182	89.072261
3075.055314	87.385781
3076.258753	89.613054
3077.460501	86.747086
3078.662064	85.925408
3079.863444	83.368298
3081.064640	82.771562
3082.264146	81.589744
3083.463469	78.487179
3084.664115	81.456876
3085.863071	78.986014
3087.058833	81.529138
3088.257423	78.573427
3089.452821	78.582751
3090.649541	80.494172
3091.843069	81.041958
3093.039425	79.016317
3094.234094	79.347319
3095.425573	79.342657
3096.621384	76.717949
3097.812500	79.869464
3099.004940	83.820513
3100.194191	87.932401
3101.386269	88.932401
3102.576663	88.815851
3103.763871	87.515152
3104.952401	87.312354
3106.142254	82.247086
3107.328922	74.974359
3108.515411	75.167832
3109.701721	76.848485
3110.889352	74.673660
3112.073801	78.244755
3113.256571	79.636364
3114.442163	78.081585
3115.626076	72.452214
3116.808309	75.729604
3117.990365	67.454545
3119.172242	66.834499
3120.353941	60.524476
3121.533963	65.573427
3122.712308	68.641026
3123.893473	70.862471
3125.071463	70.456876
3126.249276	76.953380
3127.426912	72.025641
3128.602873	76.296037
3129.778658	79.906760
3130.955764	84.254079
3132.131195	81.666667
3133.304953	83.766900
3134.477038	78.902098
3135.650445	85.477855
3136.823675	85.039627
3137.995234	83.468531
3139.168113	81.344988
3140.337825	83.706294
3141.508858	75.030303
3142.678220	77.142191
3143.845913	73.981352
3145.016421	77.300699
3146.182271	74.876457
3147.352429	73.256410
3148.517930	73.659674
3149.683258	78.482517
3150.848412	81.934732
3152.013393	84.419580
3153.179693	84.121212
3154.341340	88.025641
3155.504308	81.174825
3156.667103	80.284382
3157.829725	81.797203
3158.990681	84.428904
3160.151466	79.843823
3161.312078	80.198135
3162.471026	75.037296
3163.629803	70.407925
3164.788407	72.536131
3165.946840	71.370629
3167.105102	70.585082
3168.261701	69.773893
3169.416639	69.694639
3170.572896	66.620047
3171.727492	71.456876
3172.881918	69.820513
3174.034684	67.508159
3175.187279	65.689977
3176.339705	58.568765
3177.491960	58.965035
3178.644046	61.445221
3179.792985	59.442890
3180.944731	59.783217
3182.094820	58.517483
3183.243252	59.666667
3184.391514	58.778555
3185.539608	67.030303
3186.687533	70.652681
3187.833802	70.186480
3188.979903	69.496503
3190.124350	72.419580
3191.268629	75.811189
3192.412739	76.468531
3193.558168	76.888112
3194.700458	72.181818
3195.842581	66.911422
3196.984536	62.911422
3198.126324	62.494172
3199.267945	67.263403
3200.406431	70.969697
3201.546234	73.104895
3202.687354	76.356643
3203.825341	81.571096
3204.961677	84.603730
3206.097849	88.051282
3207.235337	89.090909
3208.371177	87.004662
3209.508334	82.263403
3210.640878	81.391608
3211.777703	75.564103
3212.909918	77.536131
3214.043449	79.277389
3215.176815	73.326340
3216.307055	66.179487
3217.440092	61.174825
3218.570003	62.002331
3219.701230	64.745921
3220.829333	59.603730
3221.960232	57.829837
3223.089487	56.536131
3224.217099	61.226107
3225.341588	59.228438
3226.470353	62.067599
3227.595996	64.412587
3228.721476	56.925408
3229.845315	54.170163
3230.971949	60.974359
3232.093985	66.745921
3233.217337	65.615385
3234.340527	66.533800
3235.463554	65.888112
3236.584943	69.179487
3237.706169	71.004662
3238.825757	68.198135
3239.945184	66.435897
3241.062974	63.011655
3242.183555	59.783217
3243.301023	61.477855
3244.418330	63.104895
3245.535477	65.501166
3246.650987	69.759907
3247.767813	73.738928
3248.881529	66.011655
3249.998034	63.953380
3251.112905	60.489510
3252.224666	55.503497
3253.336269	49.811189
3254.449187	47.370629
3255.561945	48.904429
3256.671597	51.223776
3257.782564	50.310023
3258.893372	63.144522
3260.002548	67.578089
3261.110093	66.310023
3262.218953	63.531469
3263.327654	62.696970
3264.433253	61.580420
3265.540167	52.272727
3266.645451	50.263403
3267.752049	49.424242
3268.855547	48.039627
3269.960359	47.475524
3271.065014	48.839161
3272.166571	54.060606
3273.267971	54.745921
3274.370685	64.585082
3275.473243	66.319347
3276.572704	70.139860
3277.674949	70.745921
3278.774098	69.324009
3279.871622	69.151515
3280.968992	63.379953
3282.069143	61.137529
3283.166202	57.470862
3284.263105	52.748252
3285.359853	50.326340
3286.452042	50.925408
3287.548481	57.599068
3288.643297	53.076923
3289.737959	57.953380
3290.830998	55.461538
3291.923884	60.986014
3293.015149	59.974359
3294.107727	59.044289
3295.198685	60.102564
3296.288023	62.058275
3297.377208	59.496503
3298.467705	62.100233
3299.555119	61.426573
3300.642379	65.822844
3301.730952	65.249417
3302.819372	67.163170
3303.903246	58.636364
3304.991361	65.268065
3306.076394	62.445221
3307.159812	60.314685
3308.244542	58.405594
3309.327656	60.135198
3310.412083	58.766900
3311.493431	59.512821
3312.576091	61.107226
3313.657137	65.652681
3314.738031	67.240093
3315.817313	61.671329
3316.896444	57.254079
3317.976887	62.062937
3319.054255	64.517483
3320.132935	65.491841
3321.210003	62.655012
3322.286921	64.123543
3323.362229	59.002331
3324.437387	57.030303
3325.513856	57.067599
3326.587255	56.328671
3327.660504	53.566434
3328.735065	49.407925
3329.808017	52.780886
3330.879360	53.524476
3331.952014	58.426573
3333.021601	62.067599
3334.092500	65.675991
3335.161791	67.494172
3336.232392	61.146853
3337.301388	61.930070
3338.368777	57.184149
3339.434561	57.067599
3340.504571	55.920746
3341.571518	55.149184
3342.635403	53.002331
3343.702055	53.720280
3344.767104	55.694639
3345.830549	61.750583
3346.893848	62.324009
3347.957000	62.048951
3349.020006	57.109557
3350.082866	58.543124
3351.144123	58.435897
3352.202324	62.615385
3353.264746	59.797203
3354.324112	58.993007
3355.383332	59.958042
3356.443861	65.743590
3357.499882	61.776224
3358.558666	66.568765
3359.612943	66.941725
3360.669984	67.531469
3361.725426	64.657343
3362.782178	66.699301
3363.837331	62.561772
3364.890887	62.002331
3365.942846	57.848485
3366.997568	57.142191
3368.049240	57.391608
3369.100769	60.384615
3370.153606	57.836830
3371.203396	59.627040
3372.254495	56.699301
3373.302547	59.668998
3374.353360	57.522145
3375.401127	59.505828
3376.448752	56.668998
3377.496235	63.787879
3378.542125	64.375291
3379.589323	67.013986
3380.633479	68.734266
3381.680393	65.379953
3382.725715	59.685315
3383.767996	54.986014
3384.810136	53.717949
3385.853585	56.881119
3386.896892	53.969697
3387.938609	53.713287
3388.980186	50.317016
3390.021621	56.557110
3391.061468	60.487179
3392.099726	67.072261
3393.139292	67.107226
3394.178718	62.874126
3395.216556	60.829837
3396.252807	55.365967
3397.288919	53.324009
3398.326338	54.391608
3399.360723	49.850816
3400.396417	42.703963
3401.431971	33.221445
3402.464494	36.265734
3403.499769	41.456876
3404.532015	47.806527
3405.564122	53.662005
3406.594645	57.687646
3407.626475	55.673660
3408.658167	55.587413
3409.686831	55.312354
3410.715358	62.741259
3411.745191	57.219114
3412.774887	52.764569
3413.801557	47.857809
3414.829533	50.214452
3415.854486	51.815851
3416.882188	54.037296
3417.906866	58.296037
3418.932851	58.389277
3419.957257	55.650350
3420.981526	60.825175
3422.004216	60.440559
3423.026770	63.967366
3424.050630	55.312354
3425.071470	55.585082
3426.092174	51.199134
3427.114184	47.142108
3428.133176	44.123210
3429.152033	42.851648
3430.172196	44.036630
3431.189342	48.387363
