-118.702670	-1.750000
-116.033069	-1.173626
-113.366404	-0.026474
-110.700491	1.509291
-108.037511	3.251499
-105.373100	5.017982
-102.711620	6.626573
-100.048711	8.423776
-97.390908	7.779021
-94.731676	5.251748
-92.073192	7.360839
-89.417633	5.551049
-86.760644	7.317483
-84.108754	10.655944
-81.455434	13.055944
-78.805033	7.848951
-76.153204	7.808392
-73.506465	8.325874
-70.858296	6.109091
-68.210870	6.018182
-65.566359	4.742657
-62.920418	6.404196
-60.279559	7.230769
-57.637271	7.439161
-54.997892	9.370629
-52.357084	13.602797
-49.717015	14.012587
-47.082020	8.737063
-44.445595	6.409790
-41.812073	7.795804
-39.177123	9.434965
-36.547239	12.696503
-33.913761	15.188811
-31.285346	17.381818
-28.657665	17.464336
-26.028555	12.057343
-23.404503	-30.651748
-20.776860	-234.219580
-18.154272	-583.169231
-15.532414	-778.611189
-12.911287	622.156643
-10.290891	2836.549650
-7.673382	4720.626573
-5.054445	6035.798601
-2.438394	6769.430769
0.176930	6925.867133
2.791525	6503.282517
5.403239	5507.304895
8.016381	3967.840559
10.624489	1997.532867
13.236178	57.204196
15.842837	-1088.934266
18.450925	-634.015385
21.058287	-80.551049
23.660625	23.779021
26.266542	23.372028
28.867436	18.745455
31.469758	18.321678
34.067062	15.600000
36.667943	11.288112
39.263808	9.744056
41.861101	9.958042
44.457675	8.004196
47.049240	10.089510
49.642234	6.692308
52.232366	3.973427
54.823925	5.605594
57.412626	0.413986
60.002753	-0.118881
62.587881	2.440559
65.174437	4.096503
67.760278	5.325874
70.343266	6.822378
72.927681	7.290909
75.504967	5.794406
78.085818	11.006993
80.663822	10.304895
83.241114	6.932867
85.819834	7.072727
88.393571	2.751049
90.968735	3.551049
93.541056	6.745455
96.112670	9.025175
98.681443	10.107692
101.251643	10.461538
103.819004	11.116084
106.387792	12.812587
108.953743	13.226573
111.516859	11.837762
114.083531	8.492308
116.640981	10.184615
119.204117	11.834965
121.762294	13.016783
124.324025	20.805594
126.880799	34.608392
129.438999	54.426573
131.992247	76.806993
134.544797	101.027972
137.100897	127.195804
139.652049	149.738462
142.202504	175.397203
144.752261	192.416783
147.299199	203.840559
149.845442	217.089510
152.393110	224.120280
154.940082	230.753846
157.482118	234.594406
160.023462	236.400000
162.564112	237.227972
165.106187	233.672727
167.645452	230.268531
170.181907	223.804196
172.717672	219.436364
175.254862	213.786014
177.791361	211.813986
180.325054	218.932867
182.855943	218.432168
185.386144	220.496503
187.917771	219.111888
190.446596	220.790210
192.972622	223.636364
195.497962	222.401399
198.024727	221.401399
200.548696	221.071329
203.071979	218.916084
205.594578	219.358042
208.114384	222.934266
210.633507	224.366434
213.151947	222.704895
215.671812	224.043357
218.184674	222.032168
220.701068	225.451748
223.216781	224.352448
225.727603	224.969231
228.239850	225.430769
230.749314	226.959441
233.258100	226.004196
235.766208	229.008392
238.275740	233.714685
240.780391	231.604196
243.284366	234.593007
245.789765	236.504895
248.290289	237.590210
250.794336	244.401399
253.291413	244.376224
255.792012	244.843357
258.289840	244.461538
260.786995	246.657343
263.283478	249.177622
265.775097	244.861538
268.270236	245.537063
270.762608	243.233566
273.254310	246.420979
275.743249	245.425175
278.233611	244.770629
280.721212	243.573427
283.206053	236.121678
285.694409	233.486713
288.175825	235.071329
290.660755	241.713287
293.140839	249.048951
295.624436	251.970629
298.103191	254.661538
300.583368	262.220979
303.060794	262.366434
305.537556	264.808392
308.013654	270.184615
310.487004	276.882517
312.959693	292.893706
315.431720	307.216783
317.903085	317.662937
320.371707	326.893706
322.839669	330.012587
325.309054	326.555245
327.773616	312.552448
330.241682	302.219580
332.704927	283.959441
335.167516	273.125874
337.629448	267.261538
340.090723	268.899301
342.549263	274.096503
345.009226	271.159441
347.466457	269.772028
349.923033	275.004196
352.378955	274.699301
354.832147	276.647552
357.286762	276.739860
359.736575	276.232168
362.189884	279.146853
364.638394	278.318881
367.086254	280.893706
369.535536	284.004196
371.980023	281.132867
374.425933	275.587413
376.871194	273.123077
379.313736	277.881119
381.755630	274.808392
384.196876	276.429371
386.635408	278.713287
389.075360	279.819580
391.512599	276.653147
393.947127	273.632168
396.385141	276.959441
398.818380	276.559441
401.253039	276.433566
403.682926	275.379021
406.116298	277.246154
408.544900	280.406993
410.972860	279.808392
413.402241	280.068531
415.826858	281.819580
418.252895	277.899301
420.678293	272.202797
423.103050	275.034965
425.523048	280.917483
427.944468	280.994406
430.363192	284.718881
432.783335	283.767832
435.200784	285.665734
437.619654	283.956643
440.035829	285.895105
442.447258	280.567832
444.862163	280.702098
447.274378	276.436364
449.685960	279.411189
452.096907	278.869930
454.505167	281.276923
456.912796	280.132867
459.319792	275.864336
461.726157	272.374825
464.129839	268.767832
466.532891	262.865734
468.935313	263.608392
471.337105	258.979021
473.736219	261.560839
476.136753	261.541259
478.536658	263.208392
480.931841	263.223776
483.330489	269.689510
485.724418	273.352448
488.117721	268.008392
490.510399	271.292308
492.902451	265.483916
495.295921	260.917483
497.684679	254.706294
500.070771	247.862937
502.458283	240.734266
504.845172	227.427972
507.229396	215.369231
509.615040	210.348252
511.998022	201.209790
514.378342	195.309091
516.760083	187.790210
519.139164	185.061538
521.519663	178.707692
523.897506	173.890909
526.272692	171.467133
528.647261	170.099301
531.023249	168.002797
533.396584	165.169231
535.771336	166.928671
538.141402	169.633566
540.510854	167.360839
542.881723	168.762238
545.247911	166.047552
547.615518	163.579021
549.980479	165.693706
552.344828	165.457343
554.708563	165.483916
557.073716	164.521678
559.434197	162.781818
561.796095	161.288112
564.155354	160.402797
566.511974	161.001399
568.872040	157.075524
571.225414	153.581818
573.582233	148.279720
575.936417	148.158042
578.289992	147.583217
580.642960	147.751049
582.993295	145.809790
585.345048	142.520280
587.690124	141.481119
590.040663	139.827972
592.384530	144.006993
594.733858	151.496503
597.078537	146.945455
599.420592	147.380420
601.764064	149.437762
604.104913	152.658741
606.445159	148.984615
608.782785	149.875524
611.123846	148.904895
613.460270	146.806993
615.798110	150.541259
618.133333	149.896503
620.465939	155.124476
622.799963	154.889510
625.131372	149.574825
627.462183	150.499301
629.792396	148.580420
632.122012	140.006993
634.447004	135.058741
636.777438	133.886713
639.103251	132.742657
641.426456	132.517483
643.751078	135.173427
646.073094	136.030769
648.394516	137.777622
650.713335	135.030769
653.033571	134.145455
655.353212	131.944056
657.670254	127.092308
659.986703	123.765035
662.300554	127.046154
664.615821	125.742657
666.928491	126.783217
669.242576	127.899301
671.552061	132.398601
673.862962	129.370629
676.171270	125.927273
678.478989	123.236364
680.788124	120.504895
683.092666	123.586014
685.396622	123.213986
687.699991	123.181818
690.004776	121.647552
692.304973	121.169231
694.606586	122.089510
696.907613	124.450350
699.204059	126.798601
701.501920	120.854545
703.799197	118.755245
706.095891	121.823776
708.388009	124.033566
710.683538	125.772028
712.974493	124.584615
715.266863	121.485315
717.556657	120.925874
719.845872	121.565035
722.134507	123.620979
724.420569	128.177622
726.708045	129.605594
728.992951	132.562238
731.277279	136.065734
733.559038	138.297902
735.842211	134.573427
738.124807	131.422378
740.402847	130.453147
742.682301	124.311888
744.961180	120.983217
747.239484	119.489510
749.513237	118.641958
751.788405	122.836364
754.062999	125.924476
756.335034	130.419580
758.608482	131.808392
760.879372	129.325874
763.147706	127.202797
765.417453	130.275524
767.684645	131.758042
769.951268	132.206993
772.217320	133.671329
774.480821	135.141259
776.745734	138.429371
779.010079	139.420979
781.269893	136.830769
783.531121	135.815385
785.791781	134.822378
788.049895	132.541259
790.305464	134.846154
792.564423	135.404196
794.816884	134.567832
797.074712	136.441958
799.328021	137.647552
801.578790	138.215385
803.830971	139.601399
806.080613	133.944056
808.331667	130.023776
810.578210	131.156643
812.826166	130.847552
815.071586	128.183217
817.318419	124.202797
819.564689	121.497902
821.806456	120.251748
824.051605	123.720280
826.290283	124.423776
828.532342	128.758042
830.769903	131.843357
833.008876	128.450350
835.245322	127.958042
837.483179	127.885315
839.718511	120.169231
841.951320	115.002797
844.185539	112.269930
846.417237	116.855944
848.648380	116.044755
850.878968	115.615385
853.109002	116.627972
855.338481	122.871329
857.563480	129.573427
859.791852	132.401399
862.015746	134.855944
864.241051	132.938462
866.461880	127.328671
868.686081	125.191608
870.905809	126.871329
873.126947	127.082517
875.347535	123.762238
877.565614	121.696503
879.785102	126.349650
882.000124	126.190210
884.214598	128.903497
886.428525	128.423776
888.641904	120.997203
890.854737	114.276923
893.067022	110.751049
895.276806	107.404196
897.486044	111.190210
899.694737	111.232168
901.900930	114.275524
904.108533	117.549650
906.313639	124.973427
908.518201	125.772028
910.720268	126.787413
912.923744	125.755245
915.124726	120.219580
917.325166	119.925874
919.527015	123.314685
921.722473	118.935664
923.921289	118.288112
926.115668	117.514685
928.313404	118.369231
930.506704	119.212587
932.701413	124.006993
934.893635	126.567832
937.085320	125.335664
939.276467	131.405594
941.465131	133.163636
943.653259	134.648951
945.838905	137.274126
948.027905	135.215385
950.212480	135.945455
952.396521	136.875524
954.583913	135.232168
956.763000	133.780420
958.945438	133.086713
961.127342	137.132867
963.306771	140.788811
965.483728	146.974825
967.662093	145.897902
969.841865	148.144056
972.015288	151.103497
974.192057	152.005594
976.364419	150.801399
978.538189	147.527273
980.707555	145.004196
982.880265	144.244755
985.050510	144.671329
987.220225	148.636364
989.389412	150.909091
991.554202	153.194406
993.722334	155.734266
995.886070	160.998601
998.051214	162.342657
1000.213898	164.372028
1002.376057	165.706294
1004.535759	163.794406
1006.694936	168.236364
1008.855520	170.903497
1011.013649	169.858741
1013.171255	171.369231
1015.328337	173.724476
1017.484895	175.460140
1019.637074	175.717483
1021.790660	178.495105
1023.943724	176.489510
1026.094339	175.272727
1028.246360	179.510490
1030.394009	178.857343
1032.544989	185.102098
1034.691598	184.595804
1036.837688	184.804196
1038.983260	183.716084
1041.130237	183.660140
1043.270925	190.893706
1045.414942	193.125874
1047.556520	196.328671
1049.697580	194.713287
1051.840046	193.528671
1053.976231	195.394406
1056.115743	197.427972
1058.250899	195.650350
1060.389380	191.651748
1062.523508	188.040559
1064.657122	184.145455
1066.792140	184.924476
1068.922810	186.246154
1071.054884	181.577622
1073.184528	179.584615
1075.313661	180.623776
1077.442283	178.752448
1079.570393	179.924476
1081.696077	181.335664
1083.821251	177.885315
1085.947829	177.756643
1088.070069	172.023776
1090.193714	170.888112
1092.313024	165.675524
1094.437563	159.923077
1096.555858	158.756643
1098.675556	155.383217
1100.792837	158.461538
1102.909610	160.441958
1105.025877	161.481119
1107.139729	158.113287
1109.254984	157.247552
1111.365917	153.383217
1113.480162	148.567832
1115.590086	149.602797
1117.701413	145.806993
1119.812237	143.125874
1121.918744	142.758042
1124.028560	141.668531
1126.134062	145.710490
1128.240968	149.507692
1130.341658	149.711888
1132.447560	147.542657
1134.549153	148.103497
1136.652148	147.527273
1138.754644	146.229371
1140.850932	146.448951
1142.952427	141.608392
1145.049620	138.464336
1147.146314	136.896503
1149.242511	133.888112
1151.338209	133.924476
1153.433410	134.900699
1155.526214	136.858741
1157.620420	136.669930
1159.708435	138.560839
1161.801648	136.904895
1163.888674	133.388811
1165.978998	134.604196
1168.065034	133.152448
1170.154368	132.257343
1172.237521	132.036364
1174.322077	133.853147
1176.408034	137.123077
1178.489709	137.648951
1180.572785	139.706294
1182.653476	139.570629
1184.733676	137.755245
1186.813384	131.225175
1188.892601	126.386014
1190.969435	125.797203
1193.043889	126.914685
1195.121635	127.439161
1197.195110	130.299301
1199.269987	133.406993
1201.340596	131.991608
1203.412606	126.923077
1205.482240	128.018182
1207.553275	126.039161
1209.623822	124.290909
1211.690109	121.868531
1213.757796	120.096503
1215.823110	121.616783
1217.889825	123.211189
1219.952284	123.353846
1222.018029	125.209790
1224.079519	124.923077
1226.142410	126.099301
1228.202932	124.440559
1230.262972	125.496503
1232.322528	126.602797
1234.379720	125.777622
1236.436429	124.065734
1238.490776	123.639161
1240.548403	122.268531
1242.603668	120.426573
1244.654693	117.346853
1246.707117	115.419580
1248.759061	116.829371
1250.808647	118.446154
1252.857754	119.109091
1254.906382	116.206993
1256.954532	118.251748
1259.002204	116.160839
1261.045645	119.548252
1263.092362	120.542657
1265.136725	119.264336
1267.180611	117.139860
1269.222147	117.173427
1271.261333	115.450350
1273.303792	114.071329
1275.342028	114.579021
1277.381663	114.213986
1279.420822	114.660140
1281.455764	116.693706
1283.492104	120.213986
1285.526100	122.517483
1287.561493	119.706294
1289.592673	120.078322
1291.625252	117.872727
1293.657359	117.953846
1295.687125	111.935664
1297.718288	107.679720
1299.745244	112.801399
1301.773599	114.984615
1303.797748	119.546853
1305.825163	120.170629
1307.848375	125.502098
1309.872985	123.317483
1311.895260	123.572028
1313.918933	122.716084
1315.940273	118.829371
1317.961146	117.053147
1319.981551	114.236364
1321.997763	111.833566
1324.015372	114.963636
1326.030653	113.900699
1328.049193	113.004196
1330.063543	109.973427
1332.075568	109.639161
1334.090851	109.244755
1336.101948	108.885315
1338.114441	106.537063
1340.122752	107.048951
1342.134319	110.986014
1344.139847	112.383217
1346.148630	112.840559
1348.153235	116.379021
1350.161094	118.016783
1352.168491	119.241958
1354.169857	118.093706
1356.172619	119.809790
1358.174922	122.787413
1360.176765	121.234965
1362.178148	118.430769
1364.177217	122.490909
1366.175828	124.558042
1368.173981	125.356643
1370.171676	126.890909
1372.165208	126.793007
1374.160135	123.000000
1376.154606	118.608392
1378.148620	115.593007
1380.140327	115.963636
1382.131578	114.250350
1384.120524	115.180420
1386.110865	116.169231
1388.100752	125.420979
1390.088334	127.082517
1392.075463	132.500699
1394.060290	133.867133
1396.046512	132.504895
1398.030433	132.672727
1400.013902	131.728671
1401.996919	130.198601
1403.977638	127.317483
1405.959751	125.674126
1407.939567	121.275524
1409.918933	117.058741
1411.894160	114.565035
1413.872625	115.195804
1415.848797	118.408392
1417.824519	117.860140
1419.799792	118.509091
1421.772775	122.244755
1423.745309	120.460140
1425.717395	120.006993
1427.689034	118.471329
1429.656544	118.702098
1431.629128	110.404196
1433.593906	108.264336
1435.563757	107.648951
1437.529483	110.917483
1439.496603	114.082517
1441.461439	114.609790
1443.422155	118.096503
1445.387939	121.711888
1447.347768	122.460140
1449.308991	128.053147
1451.271605	133.051748
1453.230105	132.061538
1455.188163	128.966434
1457.145779	128.825175
1459.102952	128.513287
1461.057850	128.781818
1463.014141	131.995804
1464.968157	130.732867
1466.921732	131.067133
1468.873035	130.223776
1470.825730	128.668531
1472.776154	127.269930
1474.726139	125.099301
1476.675685	120.854545
1478.622962	120.239161
1480.567971	120.475524
1482.514373	121.572028
1484.460337	121.373427
1486.405864	123.237762
1488.349125	121.297902
1490.291950	123.836364
1492.232512	125.974825
1494.174466	127.468531
1496.114157	129.379021
1498.053413	131.232168
1499.992235	133.257343
1501.928797	132.314685
1503.866750	132.997203
1505.802444	131.827972
1507.737705	129.602797
1509.670709	127.474126
1511.603281	123.032168
1513.535421	124.388811
1515.467129	124.316084
1517.396584	130.369231
1519.327429	133.353846
1521.257842	134.339860
1523.184183	137.878322
1525.111914	143.483916
1527.037396	144.640559
1528.962448	146.597203
1530.887070	146.415385
1532.811264	145.436364
1534.733211	144.346853
1536.656548	142.240559
1538.577638	142.794406
1540.496484	146.910490
1542.416720	147.379021
1544.334712	150.549650
1546.252278	160.208392
1548.167603	167.390210
1550.084317	169.113287
1551.996975	181.646154
1553.912838	189.678322
1555.826462	195.241958
1557.737847	204.004196
1559.650622	214.332867
1561.559347	231.472727
1563.469461	255.142657
1565.379152	289.188811
1567.288420	344.048951
1569.195453	425.065734
1571.100254	523.647552
1573.006444	635.657343
1574.910403	741.220979
1576.813940	816.209790
1578.717057	846.882517
1580.617944	844.455944
1582.520220	801.503497
1584.420267	718.594406
1586.321703	611.013986
1588.219104	498.706294
1590.116088	398.688112
1592.012653	324.984615
1593.910605	270.620979
1595.802723	237.909091
1597.698035	217.127273
1599.592928	202.714685
1601.485601	187.303497
1603.377856	184.282517
1605.267892	178.053147
1607.157512	169.984615
1609.046717	162.962238
1610.935506	162.864336
1612.822079	158.623776
1614.710039	157.503497
1616.593982	148.706294
1618.479312	141.660140
1620.364229	137.745455
1622.246932	135.790210
1624.131022	131.595804
1626.011100	130.026573
1627.892566	127.517483
1629.771820	128.230769
1631.652462	130.001399
1633.527299	129.261538
1635.407117	125.206993
1637.282930	127.871329
1639.158334	127.739860
1641.035123	127.373427
1642.906115	127.841958
1644.780290	129.413986
1646.650465	127.523077
1648.523821	125.549650
1650.394974	126.151049
1652.263925	129.201399
1654.134262	131.391608
1656.000606	132.058741
1657.868335	134.018182
1659.733865	136.657343
1661.600781	137.509091
1663.463707	134.055944
1665.328020	131.387413
1667.190136	128.402797
1669.051847	124.233566
1670.914943	120.404196
1672.775845	116.632168
1674.634554	116.268531
1676.492859	117.848951
1678.352548	121.751049
1680.206471	124.422378
1682.063567	125.085315
1683.920259	126.054545
1685.772976	125.888112
1687.628864	123.212587
1689.480778	124.257343
1691.332291	123.313287
1693.183403	121.248951
1695.034114	117.744056
1696.884425	117.551049
1698.732552	122.058741
1700.582063	121.443357
1702.425824	121.408392
1704.274536	122.265734
1706.117501	120.551049
1707.963632	120.089510
1709.805802	119.000000
1711.651137	121.443357
1713.490730	123.065734
1715.331709	123.020979
1717.174070	118.784615
1719.012474	120.653147
1720.852262	121.695105
1722.689875	121.623776
1724.527093	122.490909
1726.362137	126.037762
1728.198564	123.422378
1730.032818	120.257343
1731.866679	121.408392
1733.700145	120.521678
1735.529665	123.047552
1737.362345	123.413986
1739.191079	121.934266
1741.022972	125.890909
1742.850922	127.776224
1744.678480	133.685315
1746.505647	134.276923
1748.332422	135.406993
1750.158805	134.739860
1751.981252	129.041958
1753.806854	124.265734
1755.628520	118.651748
1757.451569	117.173427
1759.272457	116.693706
1761.092955	115.379021
1762.914835	114.351049
1764.731015	115.784615
1766.550347	120.170629
1768.365752	121.563636
1770.184308	127.734266
1771.998938	131.630769
1773.813181	130.488112
1775.627038	128.471329
1777.440508	126.938462
1779.251824	123.865734
1781.064522	118.637762
1782.876834	115.304895
1784.685227	112.006993
1786.495002	109.904895
1788.300861	111.201399
1790.109867	112.131469
1791.914959	117.177622
1793.721432	115.916084
1795.527520	117.627972
1797.329699	121.731469
1799.135021	121.867133
1800.936435	122.458741
1802.739230	120.958042
1804.538118	122.416783
1806.338387	119.548252
1808.138274	120.448951
1809.936019	121.097902
1811.733384	120.400000
1813.530368	119.711888
1815.326972	120.510490
1817.121437	123.191608
1818.917282	128.409790
1820.707471	128.296503
1822.502557	131.006993
1824.291990	132.425175
1826.084561	129.320280
1827.874996	123.965035
1829.663296	126.079720
1831.454732	120.921678
1833.240523	120.709091
1835.027692	119.240559
1836.812731	120.016783
1838.600902	117.471329
1840.385188	120.707692
1842.167345	120.151049
1843.950881	123.058741
1845.732288	123.865734
1847.515073	122.019580
1849.293979	119.446154
1851.074263	120.426573
1852.852422	121.029371
1854.631958	121.728671
1856.409370	121.058741
1858.184659	117.802797
1859.961325	115.622378
1861.735869	119.692308
1863.511790	120.766434
1865.282092	123.560839
1867.055521	121.048951
1868.826830	121.956643
1870.597768	118.500699
1872.370084	121.619580
1874.136786	123.604196
1875.906613	122.787413
1877.672577	122.237762
1879.441665	117.797203
1881.206891	117.942657
1882.971749	118.753846
1884.737983	122.393007
1886.500359	123.225175
1888.262368	121.177622
1890.024010	125.850350
1891.785284	126.437762
1893.546192	131.177622
1895.306732	126.180420
1897.065164	126.960839
1898.823229	123.400000
1900.579187	122.186014
1902.336521	123.854545
1904.093490	123.275524
1905.848352	128.247552
1907.601109	126.096503
1909.353503	125.358042
1911.107273	121.418182
1912.858939	118.264336
1914.608502	115.830769
1916.359442	105.760839
1918.110018	105.183217
1919.856756	102.974825
1921.604869	104.331469
1923.350883	111.883916
1925.098273	111.732867
1926.843564	117.177622
1928.586758	119.896503
1930.331328	121.404196
1932.073801	120.025175
1933.815914	122.840559
1935.557668	122.284615
1937.299061	120.760839
1939.038361	120.967133
1940.777302	121.664336
1942.515884	121.933566
1944.252375	124.006993
1945.988507	121.460839
1947.726015	124.016783
1949.459700	127.402098
1951.194760	122.745455
1952.927731	119.537762
1954.660346	119.348252
1956.392604	118.313986
1958.124506	118.745455
1959.854323	116.419580
1961.582054	114.937063
1963.311160	115.944056
1965.039910	116.461538
1966.766577	120.026573
1968.492890	125.160839
1970.220577	126.654545
1971.942727	126.467133
1973.667978	128.503497
1975.389422	129.693706
1977.113966	127.562238
1978.836431	126.773427
1980.555092	121.251748
1982.276852	119.608392
1983.994811	118.200000
1985.714142	117.893706
1987.429674	118.111888
1989.150026	118.812587
1990.866580	119.784615
1992.579337	125.205594
1994.295190	122.195804
1996.008971	117.706294
1997.722402	116.615385
1999.433762	115.795804
2001.146494	114.530070
2002.855435	117.425175
2004.567470	115.134266
2006.273995	119.718881
2007.983613	119.544056
2009.691163	119.278322
2011.398366	120.822378
2013.103503	121.812587
2014.808293	117.346853
2016.514456	117.479720
2018.216835	119.734266
2019.920587	121.773427
2021.622276	121.823776
2023.323619	125.518881
2025.024618	127.390210
2026.723555	131.811189
2028.423864	131.471329
2030.120397	132.071329
2031.818302	128.653147
2033.514149	129.386014
2035.213081	126.282517
2036.906527	125.243357
2038.601344	123.545455
2040.295818	124.173427
2041.986525	119.151049
2043.680314	122.127273
2045.370338	124.941259
2047.061731	123.762238
2048.751072	124.188811
2050.441784	125.601399
2052.128732	118.832168
2053.815340	116.060140
2055.503319	114.464336
2057.187538	112.388811
2058.873127	114.741259
2060.558377	115.939860
2062.241579	112.134266
2063.926151	112.892308
2065.605259	112.506294
2067.289154	112.867133
2068.967587	114.987413
2070.649098	117.015385
2072.326857	114.874126
2074.004280	115.696503
2075.683072	119.683916
2077.359821	118.918881
2079.034529	121.376224
2080.710607	122.644755
2082.384643	123.500699
2084.058345	125.065734
2085.731711	125.348252
2087.403038	127.584615
2089.074031	125.170629
2090.744690	125.648951
2092.415015	126.144056
2094.085006	122.648951
2095.752960	122.605594
2097.420582	119.583217
2099.086170	119.600000
2100.753126	122.337063
2102.418049	125.892308
2104.082640	128.737063
2105.745199	128.634965
2107.409126	127.534266
2109.071022	122.692308
2110.732587	122.153846
2112.393822	120.813986
2114.053027	119.475524
2115.711903	122.015385
2117.370448	119.127273
2119.028664	118.525874
2120.683157	120.972028
2122.340714	124.124476
2123.997941	127.388811
2125.651448	126.600000
2127.306322	126.827972
2128.957477	123.130070
2130.611695	118.738462
2132.262195	115.323077
2133.914063	115.779021
2135.560522	112.290909
2137.211735	109.321678
2138.859236	109.260140
2140.508103	113.225175
2142.154951	114.669930
2143.801474	119.260140
2145.447671	117.146853
2147.090159	122.834965
2148.735706	120.034965
2150.377546	114.337063
2152.022443	112.068531
2153.663635	113.710490
2155.304503	113.388811
2156.945048	115.486713
2158.583580	118.558042
2160.223478	121.334266
2161.859676	120.131469
2163.497240	121.381818
2165.134482	119.774825
2166.769714	124.648951
2168.404624	122.125874
2170.039213	123.201399
2171.673481	123.818182
2173.304055	126.349650
2174.937681	128.200000
2176.567614	126.454545
2178.198914	128.520280
2179.828208	128.683916
2181.457183	121.412587
2183.085838	118.683916
2184.714174	115.090909
2186.340507	112.604196
2187.966522	111.541259
2189.590536	112.300699
2191.215915	109.409790
2192.839293	109.721678
2194.464036	115.365035
2196.085098	114.676923
2197.705843	119.900699
2199.327952	120.450350
2200.948064	116.994406
2202.566180	121.772028
2204.183980	120.475524
2205.801464	121.170629
2207.418634	124.139860
2209.035487	124.023776
2210.652026	125.563636
2212.266571	128.979021
2213.879125	130.570629
2215.493042	126.102098
2217.104968	124.351049
2218.718257	119.289510
2220.329555	118.988811
2221.938865	118.700699
2223.549537	116.695105
2225.158221	113.292308
2226.766593	112.531469
2228.372978	111.213986
2229.980725	112.155245
2231.586487	111.923077
2233.191937	109.373427
2234.795402	109.324476
2236.400230	108.988811
2238.003074	110.174825
2239.603935	115.342657
2241.206159	117.590210
2242.806401	121.730070
2244.408005	123.225175
2246.005956	124.619580
2247.605270	125.601399
2249.202604	123.788811
2250.799630	122.296503
2252.398017	118.046154
2253.992757	115.296503
2255.585519	115.057343
2257.179644	116.381818
2258.775130	118.283916
2260.366971	120.092308
2261.958506	122.918881
2263.551402	123.983217
2265.138990	122.893706
2266.731273	119.667133
2268.318249	116.531469
2269.908254	113.637762
2271.492954	108.360839
2273.082348	109.225175
2274.666439	110.158042
2276.251892	114.837762
2277.835376	117.574825
2279.421885	121.685315
2281.004761	123.572028
2282.587334	122.753846
2284.169603	120.963636
2285.748242	113.846154
2287.329906	110.520280
2288.907941	105.386014
2290.488999	101.532867
2292.066430	101.892308
2293.641898	101.269930
2295.220388	110.840559
2296.795254	114.072727
2298.369819	114.338462
2299.944083	115.688112
2301.518047	115.429371
2303.091711	111.174825
2304.665075	105.008392
2306.234820	102.917483
2307.804266	100.616783
2309.376730	100.528671
2310.943920	103.513287
2312.514127	103.597203
2314.080721	108.183217
2315.648673	107.651748
2317.214671	104.013986
2318.780371	104.509091
2320.345773	105.959441
2321.909222	107.517483
2323.474030	113.987413
2325.035229	121.672727
2326.599443	125.370629
2328.158396	128.046154
2329.720362	130.123077
2331.280378	127.030769
2332.840098	123.374825
2334.397870	115.479720
2335.955346	108.958042
2337.512528	104.103497
2339.067762	103.447552
2340.622702	106.117483
2342.177349	109.468531
2343.731702	111.190210
2345.285761	110.779021
2346.839527	110.398601
2348.391348	111.311888
2349.941226	113.139860
2351.494113	111.167832
2353.041756	108.563636
2354.592407	108.227972
2356.139468	108.916084
2357.687886	110.055944
2359.236013	115.481119
2360.780551	116.030769
2362.326447	115.862937
2363.870404	119.847552
2365.415719	121.872727
2366.957449	124.406993
2368.500537	126.302098
2370.041688	125.878322
2371.582550	123.053147
2373.123123	121.345455
2374.663407	118.935664
2376.203402	120.247552
2377.739818	118.637762
2379.279236	110.995804
2380.815077	110.527273
2382.352275	111.770629
2383.885897	110.441958
2385.422519	111.523077
2386.957211	110.734266
2388.489972	112.513287
2390.022448	110.713287
2391.552995	112.713287
2393.086540	108.892308
2394.614874	108.198601
2396.144564	103.169231
2397.673969	99.634965
2399.203089	103.990210
2400.731923	105.577622
2402.255553	107.755245
2403.783818	110.353846
2405.306880	110.794406
2406.834577	115.606993
2408.355434	115.211189
2409.880923	120.331469
2411.402853	116.288112
2412.926137	119.625175
2414.447501	121.580420
2415.966945	120.443357
2417.487744	122.520280
2419.006624	121.917483
2420.525223	118.381818
2422.041903	116.646154
2423.559939	114.180420
2425.077693	115.516084
2426.591895	118.871329
2428.105818	121.763636
2429.619460	118.948252
2431.134456	125.093706
2432.645905	126.309091
2434.158707	126.681119
2435.669597	125.672727
2437.180208	124.798601
2438.688907	126.746853
2440.200592	127.690909
2441.708734	126.734266
2443.216598	128.797203
2444.724183	129.657343
2446.228229	125.579021
2447.735259	123.433566
2449.240381	125.102098
2450.745226	124.822378
2452.248164	127.924476
2453.750825	124.925874
2455.253211	125.836364
2456.753690	126.690909
2458.255524	121.213986
2459.755452	119.030769
2461.255105	116.191608
2462.754483	116.973427
2464.251958	119.057343
2465.747531	119.742657
2467.246084	119.605594
2468.741109	121.160839
2470.237486	122.102098
2471.730337	117.391608
2473.224541	117.152448
2474.718471	115.507692
2476.208877	113.813986
2477.702261	115.328671
2479.193747	114.323077
2480.683336	118.406993
2482.172653	116.758042
2483.660074	110.695105
2485.150471	107.591608
2486.637350	105.479720
2488.125580	105.353846
2489.610293	104.897902
2491.094736	102.882517
2492.580531	104.537063
2494.064434	111.723077
2495.549687	112.123077
2497.029807	111.888112
2498.512899	112.591608
2499.994102	111.008392
2501.475035	105.510490
2502.954078	109.015385
2504.432854	111.749650
2505.911361	114.927273
2507.389599	113.881119
2508.867570	117.604196
2510.342035	118.942657
2511.819470	120.232168
2513.293400	117.020979
2514.768682	116.281119
2516.243696	117.854545
2517.715209	115.029371
2519.188073	116.934266
2520.659054	119.085315
2522.131385	121.812587
2523.598602	121.541259
2525.068786	120.439161
2526.537089	120.882517
2528.005126	114.149650
2529.472899	110.415385
2530.940407	108.255944
2532.407651	109.952448
2533.871402	117.006993
2535.336503	116.100699
2536.799727	119.110490
2538.264300	119.090909
2539.725385	121.453147
2541.187819	116.683916
2542.649990	116.057343
2544.108674	117.071329
2545.571931	118.725874
2547.030091	115.213986
2548.489601	110.794406
2549.944016	112.625175
2551.403002	116.018182
2552.860116	112.356643
2554.315358	109.085315
2555.770340	112.029371
2557.223452	111.348252
2558.677913	108.285315
2560.130505	112.518881
2561.582837	116.251748
2563.033301	120.089510
2564.486722	117.868531
2565.935060	118.952448
2567.386353	123.320280
2568.835780	123.865734
2570.281736	124.650350
2571.730646	125.307692
2573.176085	126.811189
2574.622873	125.095105
2576.067797	118.388811
2577.512464	116.906294
2578.958478	113.572028
2580.401025	112.248951
2581.844920	112.264336
2583.285350	115.352448
2584.727128	116.850350
2586.167046	117.374825
2587.608311	122.009790
2589.046114	123.391608
2590.486867	126.390210
2591.922558	127.837762
2593.361197	121.772028
2594.797980	122.089510
2596.232907	114.676923
2597.670781	112.675524
2599.103598	109.976224
2600.537762	111.406993
2601.970071	111.033566
2603.403728	112.541259
2604.835530	112.443357
2606.267080	112.654545
2607.698376	114.478322
2609.127821	113.267133
2610.557013	111.387413
2611.984354	115.406993
2613.413042	116.400000
2614.841477	118.630769
2616.266466	118.837762
2617.692800	124.265734
2619.117287	121.897902
2620.543118	121.041958
2621.965507	120.779021
2623.389240	120.860140
2624.811128	119.089510
2626.232765	119.606993
2627.652558	117.951049
2629.073696	122.632168
2630.494584	128.791608
2631.912033	128.215385
2633.332422	130.219580
2634.749374	132.889510
2636.166078	131.387413
2637.582533	131.685315
2638.998740	133.899301
2640.414699	136.264336
2641.828817	137.179021
2643.242687	137.991608
2644.654718	137.391608
2646.068094	141.055944
2647.478040	142.041958
2648.890922	141.977622
2650.300375	145.911888
2651.709582	148.165035
2653.116953	148.984615
2654.527258	150.464336
2655.935727	156.429371
2657.342362	161.409790
2658.748750	168.387413
2660.153306	173.436364
2661.559205	176.676923
2662.963270	182.731469
2664.367092	188.727273
2665.770669	198.718881
2667.172415	202.779021
2668.575504	208.780420
2669.975175	209.092308
2671.376190	211.346853
2672.773789	213.097902
2674.174317	210.735664
2675.571431	211.623776
2676.969888	207.779021
2678.366517	207.167832
2679.762905	209.584615
2681.159050	210.644755
2682.553369	215.916084
2683.949031	214.504895
2685.341284	219.254545
2686.734879	218.288112
2688.126650	222.243357
2689.519764	224.117483
2690.911053	227.208392
2692.300521	228.918881
2693.689748	230.612587
2695.078735	234.609790
2696.469065	235.451748
2697.854411	239.509091
2699.242680	248.696503
2700.629129	250.805594
2702.015339	256.405594
2703.401310	262.917483
2704.783883	271.030769
2706.167798	279.749650
2707.551474	290.306294
2708.934913	297.963636
2710.314956	305.409790
2711.696341	311.387413
2713.075910	317.528671
2714.456821	320.555245
2715.835917	326.159441
2717.213199	326.986014
2718.591822	324.401399
2719.968631	319.742657
2721.345205	310.676923
2722.721543	299.177622
2724.096069	286.903497
2725.471936	274.493706
2726.844416	258.823776
2728.219813	247.434965
2729.590249	236.651748
2730.962025	223.559441
2732.333568	216.197203
2733.703302	211.939860
2735.074376	205.780420
2736.443643	200.587413
2737.812676	193.400000
2739.179903	185.574825
2740.546896	180.524476
2741.913657	178.685315
2743.280185	173.092308
2744.644909	170.377622
2746.009400	163.683916
2747.373659	156.502098
2748.737687	153.079720
2750.101482	145.413986
2751.461905	142.060140
2752.825237	138.841958
2754.183627	132.601399
2755.544927	128.489510
2756.902857	126.334266
2758.263695	124.552448
2759.622733	120.832168
2760.978403	117.089510
2762.336982	119.794406
2763.692193	120.330070
2765.047175	117.801399
2766.400360	113.205594
2767.756452	114.587413
2769.109180	115.471329
2770.461679	112.773427
2771.813951	114.481119
2773.167560	112.144056
2774.517808	109.627972
2775.866263	110.629371
2777.217622	110.997203
2778.565622	118.226573
2779.914961	116.464336
2781.262507	114.654545
2782.609827	115.758042
2783.956919	114.930070
2785.302221	114.883916
2786.647297	116.890909
2787.992147	119.650350
2789.336771	117.310490
2790.678043	115.089510
2792.020652	114.268531
2793.363037	112.481119
2794.705196	114.311888
2796.044006	111.149650
2797.385716	112.464336
2798.724077	109.606993
2800.063776	106.160839
2801.401689	102.692308
2802.737818	107.330070
2804.073724	108.109091
2805.410967	102.453147
2806.746425	99.741259
2808.081661	98.643357
2809.415115	98.138462
2810.749905	99.229371
2812.081354	96.218182
2813.415699	100.820979
2814.745146	97.486713
2816.075930	96.246154
2817.406492	96.455944
2818.735275	97.623776
2820.065395	94.935664
2821.393736	91.611189
2822.721855	96.081119
2824.048198	94.875524
2825.375876	93.609790
2826.700222	96.626573
2828.025904	98.974825
2829.349810	105.895105
2830.673496	102.685315
2831.998518	104.553846
2833.320211	103.862937
2834.641685	101.436364
2835.962939	97.134266
2837.283975	96.117483
2838.603239	97.723077
2839.923838	94.620979
2841.242665	95.634965
2842.561274	98.956643
2843.878113	101.850350
2845.194734	100.537063
2846.511138	98.307692
2847.825772	98.282517
2849.141741	99.015385
2850.454391	98.111888
2851.768375	95.295105
2853.082143	94.009790
2854.395694	98.290909
2855.707479	98.643357
2857.017497	99.499301
2858.328850	99.697902
2859.636888	97.411189
2860.946260	95.237762
2862.255417	94.772028
2863.564359	92.560839
2864.871538	94.676923
2866.176953	92.990210
2867.483703	89.963636
2868.788691	88.896503
2870.093464	86.911888
2871.396477	84.813986
2872.702370	83.675524
2874.003409	81.327273
2875.305781	79.713287
2876.606395	78.826573
2877.908341	81.850350
2879.210075	80.276923
2880.508505	84.060140
2881.808268	85.346853
2883.106274	84.739860
2884.404068	91.076923
2885.700105	91.306294
2886.997476	99.152448
2888.293092	101.297902
2889.588496	100.236364
2890.883689	100.639161
2892.175585	96.878322
2893.470356	95.367832
2894.761832	87.239161
2896.054640	84.447552
2897.347238	82.482517
2898.636541	84.695105
2899.927178	91.451748
2901.216063	94.537063
2902.506280	99.909091
2903.793206	99.781818
2905.081464	102.918881
2906.367973	102.062937
2907.654273	96.924476
2908.940365	92.641958
2910.224709	88.688112
2911.511925	85.379021
2912.794314	86.862937
2914.078035	88.595804
2915.360009	90.787413
2916.641777	92.216783
2917.921799	93.822378
2919.204691	94.548252
2920.485838	98.646154
2921.763703	97.518881
2923.044437	95.366434
2924.321890	95.590210
2925.599138	95.685315
2926.874643	89.963636
2928.153016	93.255944
2929.426575	94.732867
2930.703001	98.092308
2931.977685	96.239161
2933.250630	94.320280
2934.524906	93.869930
2935.797441	95.925874
2937.069773	95.327273
2938.338832	92.762238
2939.610756	94.131469
2940.880942	92.925874
2942.150924	88.784615
2943.420703	93.363636
2944.688746	93.360839
2945.955052	89.296503
2947.221156	87.538462
2948.488591	85.472727
2949.754290	84.137063
2951.019788	81.363636
2952.285083	79.630769
2953.547113	79.310490
2954.810473	81.057343
2956.073632	81.970629
2957.335058	82.690909
2958.597815	85.706294
2959.858839	87.040559
2961.118133	86.868531
2962.377226	89.879720
2963.636120	90.044755
2964.894812	86.876923
2966.153305	83.773427
2967.410069	85.018182
2968.666634	86.362238
2969.921470	87.162238
2971.177636	87.590210
2972.430547	87.865734
2973.684786	90.181818
2974.938827	89.756643
2976.191142	85.457343
2977.443259	83.678322
2978.693651	81.939860
2979.946898	81.317483
2981.195368	82.890909
2982.446693	86.744056
2983.694768	88.065734
2984.942646	86.917483
2986.190328	89.197203
2987.437812	93.244755
2988.683575	96.012587
2989.929141	96.994406
2991.176036	94.794406
2992.419686	94.090909
2993.664663	90.953846
2994.906398	88.823776
2996.150984	84.928671
2997.393851	81.518881
2998.633477	77.520280
2999.875953	78.394406
3001.115189	82.130070
3002.355753	86.704895
3003.594600	87.090909
3004.833253	91.352448
3006.070190	93.861538
3007.308455	94.353846
3008.545004	93.288112
3009.781360	89.043357
3011.017522	87.430769
3012.251970	85.404196
3013.486225	84.072727
3014.720287	86.120280
3015.952637	86.711888
3017.183275	86.760839
3018.416759	84.159441
3019.648532	84.062937
3020.878593	83.903497
3022.108463	84.853147
3023.336623	87.369231
3024.566110	87.050350
3025.793887	88.053147
3027.021473	86.057343
3028.250385	85.671329
3029.474555	89.116084
3030.701568	89.672727
3031.925358	88.186014
3033.150473	84.588811
3034.373883	79.762238
3035.597102	77.012587
3036.818616	80.092308
3038.042971	83.650350
3039.262591	84.500699
3040.483537	87.012587
3041.704293	84.478322
3042.923347	83.576224
3044.143725	83.441958
3045.360887	81.149650
3046.579374	77.923077
3047.796160	75.993007
3049.012757	78.376224
3050.229167	76.142657
3051.442363	77.455944
3052.658397	77.793007
3053.871219	82.815385
3055.086878	84.606993
3056.297814	80.977622
3057.510076	77.769231
3058.722150	76.544056
3059.934038	78.418182
3061.144229	78.169231
3062.354233	82.858741
3063.564051	87.798601
3064.772173	85.780420
3065.980110	87.548252
3067.186351	89.453147
3068.393917	91.654545
3069.599788	90.811189
3070.805474	87.558042
3072.010976	82.253147
3073.214784	79.704895
3074.419916	76.815385
3075.623355	74.355245
3076.825102	73.723077
3078.026666	72.499301
3079.228046	74.026573
3080.429242	74.400000
3081.628748	72.418182
3082.828071	70.973427
3084.028717	74.159441
3085.227673	75.457343
3086.423434	76.643357
3087.622025	77.464336
3088.817422	77.683916
3090.014143	80.234965
3091.207671	78.806993
3092.404027	81.579021
3093.598696	84.000000
3094.790175	80.461538
3095.985986	79.351049
3097.177102	79.243357
3098.369542	81.777622
3099.558793	81.123077
3100.750871	78.595804
3101.941265	72.493706
3103.128473	69.580420
3104.317003	69.997203
3105.506856	69.081119
3106.693524	70.458741
3107.880013	69.549650
3109.066323	70.783217
3110.253954	73.440559
3111.438403	77.532867
3112.621173	77.885315
3113.806765	79.955245
3114.990678	83.034965
3116.172911	81.730070
3117.354967	82.836364
3118.536844	87.227972
3119.718543	87.437762
3120.898565	84.369231
3122.076910	86.393007
3123.258075	88.176224
3124.436065	87.047552
3125.613878	86.911888
3126.791514	82.046154
3127.967475	85.000000
3129.143260	82.672727
3130.320365	78.767832
3131.495797	79.398601
3132.669555	81.327273
3133.841640	83.440559
3135.015046	85.068531
3136.188277	89.323077
3137.359836	91.464336
3138.532715	90.604196
3139.702427	90.672727
3140.873460	88.618182
3142.042822	88.618182
3143.210515	85.076923
3144.381023	81.755245
3145.546872	81.643357
3146.717031	78.910490
3147.882532	80.373427
3149.047860	74.490909
3150.213014	70.163636
3151.377995	66.615385
3152.544295	66.012587
3153.705942	71.853147
3154.868910	71.990210
3156.031705	77.226573
3157.194326	75.872727
3158.355283	73.741259
3159.516068	74.373427
3160.676680	72.653147
3161.835628	69.176224
3162.994405	65.451748
3164.153009	65.267133
3165.311442	63.843357
3166.469703	63.981818
3167.626303	69.000000
3168.781241	69.265734
3169.937498	73.955245
3171.092094	71.889510
3172.246520	72.000000
3173.399285	72.156643
3174.551881	73.246154
3175.704307	68.313287
3176.856562	71.241958
3178.008648	68.383217
3179.157587	67.472727
3180.309333	68.250350
3181.459422	73.965035
3182.607853	79.955245
3183.756116	84.513287
3184.904210	87.516084
3186.052135	87.671329
3187.198404	89.132867
3188.344505	87.675524
3189.488952	84.239161
3190.633230	80.836364
3191.777341	73.657343
3192.922770	73.395804
3194.065060	74.306294
3195.207182	71.289510
3196.349138	73.043357
3197.490926	73.711888
3198.632547	74.900699
3199.771033	76.860140
3200.910836	78.240559
3202.051956	80.062937
3203.189943	85.027972
3204.326279	81.004196
3205.462451	79.016783
3206.599939	80.497902
3207.735779	77.951049
3208.872936	72.348252
3210.005480	70.997203
3211.142305	72.388811
3212.274520	74.099301
3213.408051	72.986014
3214.541417	72.313287
3215.671657	76.146853
3216.804694	79.123077
3217.934605	79.376224
3219.065832	78.065734
3220.193934	77.765035
3221.324834	74.444755
3222.454089	72.011189
3223.581701	67.130070
3224.706190	69.093706
3225.834955	66.472727
3226.960598	66.696503
3228.086078	67.488112
3229.209917	69.925874
3230.336551	68.095105
3231.458587	67.034965
3232.581939	64.415385
3233.705128	66.580420
3234.828156	66.015385
3235.949544	68.850350
3237.070771	69.669930
3238.190359	75.973427
3239.309786	78.190210
3240.427576	84.834965
3241.548157	89.398601
3242.665625	93.103497
3243.782932	91.113287
3244.900079	88.137063
3246.015589	86.134266
3247.132415	85.834965
3248.246130	82.797203
3249.362636	84.001399
3250.477506	82.290909
3251.589268	80.272727
3252.700871	79.107692
3253.813789	79.566434
3254.926547	81.848951
3256.036199	83.036364
3257.147166	82.061538
3258.257974	78.959441
3259.367150	78.309091
3260.474695	78.903497
3261.583555	78.104895
3262.692256	74.913287
3263.797855	73.166434
3264.904769	73.552448
3266.010053	73.190210
3267.116651	74.419580
3268.220149	74.006993
3269.324961	76.149650
3270.429616	76.739860
3271.531173	76.015385
3272.632573	78.595804
3273.735287	79.454545
3274.837845	75.759441
3275.937306	72.545455
3277.039551	73.372028
3278.138700	70.899301
3279.236224	65.109091
3280.333594	64.609790
3281.433745	62.400000
3282.530804	59.615385
3283.627707	59.479720
3284.724455	61.962238
3285.816644	64.250350
3286.913083	65.481119
3288.007899	67.062937
3289.102560	70.036364
3290.195600	70.123077
3291.288486	70.737063
3292.379751	71.226573
3293.472329	72.834965
3294.563287	71.204196
3295.652625	68.155245
3296.741810	69.111888
3297.832307	71.107692
3298.919721	68.644755
3300.006981	67.360839
3301.095554	65.760839
3302.183974	62.993007
3303.267848	61.142657
3304.355963	63.723077
3305.440996	66.434965
3306.524414	65.548252
3307.609144	60.772028
3308.692258	62.246154
3309.776684	62.232168
3310.858033	65.208392
3311.940693	64.485315
3313.021738	60.956643
3314.102633	58.804196
3315.181915	54.330070
3316.261046	53.906294
3317.341489	58.078322
3318.418857	59.337063
3319.497537	58.476923
3320.574605	56.165035
3321.651523	60.704895
3322.726831	60.808392
3323.801989	60.583217
3324.878458	62.653147
3325.951857	58.570629
3327.025106	60.867133
3328.099667	56.142657
3329.172619	60.359441
3330.243962	61.660140
3331.316616	59.404196
3332.386203	61.247552
3333.457101	60.093706
3334.526393	62.281119
3335.596994	61.593007
3336.665989	59.500699
3337.733379	61.450350
3338.799163	59.823776
3339.869173	65.083916
3340.936120	61.423776
3342.000005	62.556643
3343.066657	61.125874
3344.131706	60.539860
3345.195151	60.188811
3346.258450	61.595804
3347.321602	62.595804
3348.384608	64.172028
3349.447468	64.362238
3350.508725	67.215385
3351.566926	70.226573
3352.629348	72.681119
3353.688714	67.071329
3354.747934	64.813986
3355.808463	64.548252
3356.864484	64.439161
3357.923268	62.472727
3358.977545	63.855944
3360.034586	65.598601
3361.090028	68.212587
3362.146780	71.420979
3363.201933	73.499301
3364.255489	75.323077
3365.307448	75.451748
3366.362170	73.366434
3367.413842	73.518881
3368.465370	70.565035
3369.518208	66.987413
3370.567998	63.209790
3371.619097	58.861538
3372.667149	60.037762
3373.717962	58.281119
3374.765729	57.390210
3375.813354	54.805594
3376.860837	55.448951
3377.906727	55.144056
3378.953925	55.728671
3379.998080	52.867133
3381.044995	52.342657
3382.090317	53.925874
3383.132598	58.388811
3384.174738	62.274126
3385.218187	68.181818
3386.261494	68.076923
3387.303211	68.994406
3388.344788	70.405594
3389.386223	73.331469
3390.426070	71.801399
3391.464328	69.100699
3392.503894	66.376224
3393.543320	65.907692
3394.581158	64.606993
3395.617409	65.373427
3396.653520	63.395804
3397.690939	59.911888
3398.725325	57.344056
3399.761019	55.295105
3400.796573	55.323077
3401.829095	54.155245
3402.864371	53.921678
3403.896617	55.309091
3404.928723	60.546853
3405.959247	62.155245
3406.991077	63.892308
3408.022769	64.640559
3409.051433	65.713287
3410.079960	65.793007
3411.109793	64.620979
3412.139489	63.823776
3413.166159	62.488112
3414.194135	59.337063
3415.219087	64.116084
3416.246790	66.104895
3417.271468	72.247552
3418.297453	71.801399
3419.321859	68.579021
3420.346128	67.809790
3421.368818	67.755245
3422.391372	60.994406
3423.415232	57.987413
3424.436072	59.937063
3425.456776	58.799800
3426.478786	58.321528
3427.497778	58.736863
3428.516635	60.280420
3429.536798	63.186813
3430.553944	67.690659
