-116.654669	-3.990000
-113.985068	3.510000
-111.318403	-2.320000
-108.652490	2.160000
-105.989510	4.000000
-103.325099	5.800000
-100.663619	2.220000
-98.000710	1.520000
-95.342908	-0.910000
-92.683675	4.720000
-90.025191	-1.450000
-87.369632	0.430000
-84.712643	-0.740000
-82.060753	1.030000
-79.407433	4.840000
-76.757032	3.850000
-74.105203	-2.330000
-71.458464	0.530000
-68.810295	-0.880000
-66.162870	2.780000
-63.518358	8.060000
-60.872417	3.770000
-58.231559	6.300000
-55.589270	2.200000
-52.949891	-0.950000
-50.309083	2.270000
-47.669014	3.440000
-45.034019	5.900000
-42.397594	3.390000
-39.764073	5.240000
-37.129122	-2.280000
-34.499238	7.220000
-31.865760	4.120000
-29.237345	3.820000
-26.609664	6.350000
-23.980555	7.840000
-21.356502	4.560000
-18.728859	9.690000
-16.106271	14.530000
-13.484413	27.970000
-10.863286	39.920000
-8.242890	117.650000
-5.625381	373.220000
-3.006444	1136.170000
-0.390393	2306.670000
2.224931	2586.740000
4.839526	1247.870000
7.451240	137.290000
10.064381	21.210000
12.672490	18.650000
15.284179	3.790000
17.890838	11.480000
20.498925	3.110000
23.106288	4.850000
25.708626	1.670000
28.314542	6.980000
30.915437	2.980000
33.517759	2.920000
36.115063	-0.850000
38.715943	2.140000
41.311809	2.480000
43.909102	4.210000
46.505676	0.520000
49.097241	3.580000
51.690235	5.200000
54.280367	5.930000
56.871926	5.790000
59.460626	1.840000
62.050754	0.530000
64.635882	5.140000
67.222438	7.800000
69.808279	4.480000
72.391267	1.550000
74.975682	3.910000
77.552967	4.790000
80.133819	1.460000
82.711822	1.060000
85.289115	4.890000
87.867835	0.140000
90.441572	-1.970000
93.016736	5.140000
95.589057	4.760000
98.160671	3.390000
100.729444	3.420000
103.299644	-0.330000
105.867005	2.880000
108.435793	3.580000
111.001744	5.510000
113.564859	5.200000
116.131532	10.540000
118.688982	7.450000
121.252118	10.270000
123.810295	11.930000
126.372026	15.190000
128.928800	24.540000
131.487000	28.570000
134.040248	47.000000
136.592797	71.750000
139.148898	95.660000
141.700050	118.220000
144.250505	142.670000
146.800262	153.790000
149.347200	162.460000
151.893443	168.900000
154.441111	174.290000
156.988083	178.820000
159.530119	171.400000
162.071463	168.410000
164.612113	171.810000
167.154188	166.880000
169.693453	162.110000
172.229908	168.220000
174.765673	168.830000
177.302863	160.330000
179.839362	168.000000
182.373055	159.220000
184.903944	161.000000
187.434145	157.740000
189.965771	158.160000
192.494597	158.910000
195.020623	164.120000
197.545963	160.480000
200.072728	163.610000
202.596697	165.850000
205.119980	163.470000
207.642579	171.010000
210.162385	159.930000
212.681508	163.420000
215.199948	169.810000
217.719813	157.840000
220.232675	165.780000
222.749069	166.320000
225.264782	165.730000
227.775604	168.990000
230.287851	166.820000
232.797315	166.000000
235.306101	173.890000
237.814209	167.970000
240.323741	171.380000
242.828392	168.640000
245.332367	163.770000
247.837766	167.270000
250.338290	178.730000
252.842337	175.340000
255.339414	173.970000
257.840013	170.690000
260.337841	173.460000
262.834996	175.860000
265.331479	180.450000
267.823098	183.710000
270.318236	173.030000
272.810609	178.050000
275.302311	180.430000
277.791250	182.150000
280.281612	180.000000
282.769213	176.350000
285.254054	177.030000
287.742410	181.490000
290.223826	178.790000
292.708756	182.810000
295.188840	183.310000
297.672437	181.990000
300.151192	187.770000
302.631369	185.990000
305.108795	180.680000
307.585557	185.150000
310.061655	191.950000
312.535005	203.280000
315.007694	204.670000
317.479721	222.430000
319.951086	239.130000
322.419708	256.530000
324.887670	253.440000
327.357055	234.480000
329.821617	215.390000
332.289683	212.360000
334.752928	201.340000
337.215517	200.400000
339.677448	203.730000
342.138724	202.130000
344.597264	199.650000
347.057227	203.040000
349.514458	198.790000
351.971034	204.200000
354.426955	199.210000
356.880148	196.520000
359.334763	195.640000
361.784576	203.480000
364.237885	202.670000
366.686395	198.960000
369.134255	197.770000
371.583536	202.360000
374.028024	194.760000
376.473934	202.040000
378.919195	201.220000
381.361737	206.570000
383.803631	198.990000
386.244877	201.740000
388.683408	194.730000
391.123361	197.690000
393.560600	198.900000
395.995127	204.350000
398.433142	193.360000
400.866381	199.450000
403.301040	190.530000
405.730927	201.390000
408.164299	194.840000
410.592901	198.190000
413.020861	194.750000
415.450242	200.270000
417.874859	200.340000
420.300896	200.200000
422.726294	202.220000
425.151051	203.510000
427.571049	197.550000
429.992469	196.250000
432.411192	200.050000
434.831336	200.910000
437.248785	194.780000
439.667655	204.280000
442.083830	198.150000
444.495259	205.020000
446.910164	201.390000
449.322379	203.680000
451.733960	202.420000
454.144908	197.210000
456.553168	195.130000
458.960797	200.690000
461.367793	194.200000
463.774157	189.860000
466.177840	193.470000
468.580892	189.870000
470.983314	186.660000
473.385106	192.710000
475.784220	191.780000
478.184754	189.850000
480.584659	184.780000
482.979842	190.710000
485.378490	189.770000
487.772419	195.340000
490.165722	186.160000
492.558399	190.190000
494.950451	182.630000
497.343922	171.840000
499.732680	169.320000
502.118772	166.610000
504.506284	151.510000
506.893173	146.740000
509.277397	140.800000
511.663041	136.370000
514.046022	130.440000
516.426343	127.290000
518.808083	124.830000
521.187165	121.150000
523.567664	119.490000
525.945506	122.820000
528.320693	115.500000
530.695262	115.570000
533.071250	110.520000
535.444584	108.810000
537.819337	111.010000
540.189403	110.820000
542.558854	108.420000
544.929724	112.120000
547.295912	106.860000
549.663519	114.220000
552.028480	111.120000
554.392829	110.860000
556.756564	106.460000
559.121717	103.440000
561.482198	100.860000
563.844096	105.940000
566.203355	103.990000
568.559975	104.930000
570.920041	104.030000
573.273415	101.370000
575.630234	104.070000
577.984418	103.210000
580.337993	100.540000
582.690961	101.920000
585.041296	100.410000
587.393049	94.670000
589.738124	94.290000
592.088664	97.440000
594.432531	101.040000
596.781859	100.150000
599.126538	96.610000
601.468593	100.100000
603.812065	95.670000
606.152914	100.800000
608.493160	100.290000
610.830786	98.520000
613.171847	91.290000
615.508271	94.480000
617.846111	96.020000
620.181333	90.450000
622.513940	91.360000
624.847964	92.960000
627.179373	91.170000
629.510184	86.800000
631.840397	94.640000
634.170013	85.830000
636.495005	90.650000
638.825439	85.970000
641.151251	84.100000
643.474457	88.310000
645.799079	81.520000
648.121095	85.060000
650.442517	88.060000
652.761336	87.100000
655.081571	82.650000
657.401213	80.330000
659.718255	84.560000
662.034704	83.030000
664.348555	84.140000
666.663822	87.630000
668.976491	81.150000
671.290576	82.460000
673.600062	95.710000
675.910962	83.820000
678.219270	82.130000
680.526990	81.020000
682.836125	87.390000
685.140667	85.840000
687.444623	79.680000
689.747992	81.550000
692.052777	80.560000
694.352974	80.920000
696.654587	74.960000
698.955614	79.180000
701.252060	79.740000
703.549920	80.260000
705.847198	76.900000
708.143891	81.890000
710.436010	75.550000
712.731538	81.260000
715.022494	76.920000
717.314864	80.870000
719.604658	79.030000
721.893873	85.820000
724.182508	74.410000
726.468570	82.370000
728.756046	75.840000
731.040952	85.210000
733.325280	81.560000
735.607039	78.130000
737.890212	79.930000
740.172808	78.780000
742.450848	78.850000
744.730302	80.880000
747.009181	82.460000
749.287485	87.360000
751.561238	83.750000
753.836406	74.460000
756.111000	74.150000
758.383035	84.370000
760.656483	84.700000
762.927373	88.980000
765.195707	88.060000
767.465454	80.000000
769.732646	82.400000
771.999269	84.340000
774.265321	78.710000
776.528822	87.300000
778.793735	84.090000
781.058080	84.940000
783.317894	88.000000
785.579122	89.190000
787.839782	95.130000
790.097895	88.560000
792.353465	90.750000
794.612424	86.310000
796.864885	86.310000
799.122713	87.730000
801.376022	84.360000
803.626790	86.820000
805.878972	80.780000
808.128614	89.480000
810.379668	85.170000
812.626211	87.890000
814.874167	77.160000
817.119587	89.240000
819.366420	74.090000
821.612690	79.480000
823.854457	75.280000
826.099606	87.660000
828.338284	77.040000
830.580343	79.670000
832.817904	72.250000
835.056877	82.020000
837.293323	76.800000
839.531180	78.460000
841.766512	79.190000
843.999320	77.880000
846.233540	77.080000
848.465238	78.440000
850.696381	75.100000
852.926969	73.950000
855.157003	70.620000
857.386482	70.920000
859.611481	69.420000
861.839853	78.510000
864.063747	75.590000
866.289052	72.610000
868.509880	73.110000
870.734082	74.020000
872.953810	68.990000
875.174948	76.810000
877.395536	71.070000
879.613615	76.550000
881.833103	71.720000
884.048125	73.860000
886.262599	72.140000
888.476526	73.170000
890.689905	67.900000
892.902738	70.680000
895.115023	77.690000
897.324807	73.430000
899.534045	70.250000
901.742737	75.150000
903.948931	70.570000
906.156534	78.320000
908.361640	76.020000
910.566202	78.450000
912.768269	74.600000
914.971745	74.990000
917.172727	78.190000
919.373167	76.110000
921.575016	74.850000
923.770474	77.900000
925.969290	74.580000
928.163669	74.860000
930.361405	68.740000
932.554705	84.130000
934.749413	74.800000
936.941636	77.670000
939.133321	73.450000
941.324468	77.600000
943.513132	74.730000
945.701259	78.990000
947.886906	83.260000
950.075906	81.260000
952.260481	83.090000
954.444522	85.830000
956.631914	88.620000
958.811001	89.200000
960.993439	89.990000
963.175342	97.510000
965.354772	95.250000
967.531729	91.630000
969.710094	91.270000
971.889865	97.610000
974.063288	93.800000
976.240058	99.010000
978.412420	98.270000
980.586190	107.390000
982.755556	96.790000
984.928266	101.810000
987.098510	97.690000
989.268226	98.880000
991.437413	99.930000
993.602203	108.800000
995.770335	108.050000
997.934071	101.170000
1000.099215	108.450000
1002.261899	105.130000
1004.424058	111.750000
1006.583759	113.270000
1008.742937	111.890000
1010.903521	110.630000
1013.061650	110.160000
1015.219256	116.400000
1017.376337	111.910000
1019.532896	120.540000
1021.685075	110.540000
1023.838661	112.640000
1025.991725	116.350000
1028.142340	118.730000
1030.294361	116.390000
1032.442010	119.260000
1034.592990	121.530000
1036.739599	121.750000
1038.885689	125.090000
1041.031261	124.490000
1043.178238	118.920000
1045.318926	130.400000
1047.462943	135.820000
1049.604521	131.960000
1051.745581	127.970000
1053.888047	132.640000
1056.024232	130.310000
1058.163744	132.780000
1060.298900	128.820000
1062.437381	133.790000
1064.571509	133.090000
1066.705123	134.400000
1068.840141	123.810000
1070.970810	127.390000
1073.102885	125.340000
1075.232529	134.910000
1077.361662	119.800000
1079.490284	127.530000
1081.618394	119.870000
1083.744078	118.940000
1085.869252	115.420000
1087.995830	121.880000
1090.118070	119.700000
1092.241715	116.510000
1094.361025	121.720000
1096.485564	116.620000
1098.603859	116.700000
1100.723557	115.420000
1102.840838	115.420000
1104.957611	110.110000
1107.073878	105.650000
1109.187730	114.440000
1111.302985	108.740000
1113.413918	111.580000
1115.528163	107.830000
1117.638087	109.540000
1119.749414	103.850000
1121.860238	107.960000
1123.966745	105.740000
1126.076561	106.330000
1128.182063	100.370000
1130.288969	102.980000
1132.389659	102.520000
1134.495560	105.870000
1136.597154	103.130000
1138.700149	111.550000
1140.802644	102.990000
1142.898933	102.720000
1145.000428	93.780000
1147.097621	103.840000
1149.194315	96.490000
1151.290512	103.990000
1153.386210	103.480000
1155.481411	102.040000
1157.574215	96.680000
1159.668421	107.230000
1161.756436	97.160000
1163.849649	99.260000
1165.936674	94.800000
1168.026999	95.510000
1170.113035	98.270000
1172.202369	101.500000
1174.285522	97.060000
1176.370078	100.340000
1178.456035	96.360000
1180.537710	99.240000
1182.620786	97.560000
1184.701477	99.030000
1186.781677	95.870000
1188.861385	97.710000
1190.940602	93.880000
1193.017436	94.630000
1195.091890	95.520000
1197.169636	85.870000
1199.243111	100.290000
1201.317988	98.210000
1203.388597	97.440000
1205.460607	94.070000
1207.530241	98.010000
1209.601276	96.920000
1211.671823	95.560000
1213.738110	98.550000
1215.805797	94.380000
1217.871111	94.960000
1219.937826	88.060000
1222.000285	96.050000
1224.066030	95.190000
1226.127520	95.120000
1228.190410	92.430000
1230.250933	98.090000
1232.310973	90.920000
1234.370529	93.510000
1236.427721	96.000000
1238.484430	98.340000
1240.538777	97.420000
1242.596404	93.830000
1244.651669	93.230000
1246.702693	93.490000
1248.755118	97.160000
1250.807062	100.220000
1252.856648	96.330000
1254.905755	100.340000
1256.954383	102.380000
1259.002533	102.000000
1261.050205	100.590000
1263.093646	99.880000
1265.140362	101.080000
1267.184726	106.070000
1269.228612	102.060000
1271.270148	107.120000
1273.309334	91.290000
1275.351792	110.640000
1277.390029	101.750000
1279.429663	98.700000
1281.468823	103.980000
1283.503765	97.400000
1285.540105	105.380000
1287.574100	102.450000
1289.609494	110.360000
1291.640674	101.990000
1293.673253	109.240000
1295.705360	112.190000
1297.735126	112.190000
1299.766289	109.600000
1301.793245	114.070000
1303.821599	120.110000
1305.845749	115.620000
1307.873164	124.420000
1309.896376	125.570000
1311.920986	127.160000
1313.943261	126.050000
1315.966934	135.240000
1317.988274	131.550000
1320.009147	137.720000
1322.029552	136.040000
1324.045764	147.310000
1326.063373	150.110000
1328.078654	157.370000
1330.097194	154.610000
1332.111544	163.830000
1334.123569	169.410000
1336.138852	176.890000
1338.149949	180.840000
1340.162442	185.890000
1342.170753	186.230000
1344.182320	186.260000
1346.187848	186.710000
1348.196631	187.680000
1350.201236	184.030000
1352.209095	187.870000
1354.216492	179.430000
1356.217857	183.080000
1358.220620	178.960000
1360.222923	176.310000
1362.224766	164.640000
1364.226149	163.030000
1366.225218	148.870000
1368.223829	151.520000
1370.221982	141.020000
1372.219677	133.850000
1374.213208	131.590000
1376.208136	128.200000
1378.202607	120.170000
1380.196621	124.480000
1382.188328	122.720000
1384.179579	121.600000
1386.168525	116.690000
1388.158866	112.680000
1390.148752	114.670000
1392.136335	119.390000
1394.123464	108.180000
1396.108291	114.760000
1398.094513	116.860000
1400.078434	109.750000
1402.061903	116.480000
1404.044920	116.960000
1406.025639	111.130000
1408.007752	112.950000
1409.987568	112.090000
1411.966934	110.280000
1413.942161	111.680000
1415.920626	115.560000
1417.896798	109.240000
1419.872520	113.720000
1421.847793	109.570000
1423.820776	110.810000
1425.793310	108.250000
1427.765396	107.990000
1429.737034	105.340000
1431.704545	110.960000
1433.677129	106.520000
1435.641907	116.280000
1437.611758	108.550000
1439.577484	116.730000
1441.544604	110.020000
1443.509440	108.110000
1445.470156	109.370000
1447.435940	103.520000
1449.395769	110.250000
1451.356991	104.810000
1453.319606	109.940000
1455.278106	114.650000
1457.236164	108.200000
1459.193779	116.230000
1461.150953	109.130000
1463.105851	113.820000
1465.062141	115.600000
1467.016158	111.670000
1468.969733	105.280000
1470.921036	114.080000
1472.873731	111.720000
1474.824155	112.530000
1476.774140	108.460000
1478.723686	117.920000
1480.670962	111.200000
1482.615972	121.110000
1484.562374	114.890000
1486.508338	114.520000
1488.453865	124.550000
1490.397126	116.440000
1492.339951	115.110000
1494.280513	113.920000
1496.222467	115.690000
1498.162158	122.700000
1500.101414	119.580000
1502.040236	118.830000
1503.976798	118.410000
1505.914751	128.160000
1507.850445	125.780000
1509.785706	128.180000
1511.718710	128.610000
1513.651282	135.240000
1515.583422	128.540000
1517.515130	135.830000
1519.444585	143.990000
1521.375430	138.120000
1523.305843	143.260000
1525.232184	151.710000
1527.159915	149.560000
1529.085396	154.940000
1531.010449	156.190000
1532.935071	169.010000
1534.859265	164.180000
1536.781212	175.450000
1538.704548	181.200000
1540.625639	185.870000
1542.544485	203.610000
1544.464721	217.740000
1546.382713	230.260000
1548.300279	252.120000
1550.215604	283.720000
1552.132317	311.850000
1554.044976	351.740000
1555.960839	402.340000
1557.874463	463.490000
1559.785848	531.860000
1561.698623	611.980000
1563.607348	712.580000
1565.517462	820.920000
1567.427153	921.780000
1569.336421	996.890000
1571.243454	1028.180000
1573.148255	1024.290000
1575.054445	994.630000
1576.958404	928.110000
1578.861941	834.480000
1580.765057	741.820000
1582.665945	668.770000
1584.568221	574.530000
1586.468268	499.980000
1588.369704	428.660000
1590.267105	378.510000
1592.164089	345.630000
1594.060654	316.410000
1595.958606	291.430000
1597.850724	269.720000
1599.746036	249.590000
1601.640929	235.440000
1603.533602	224.110000
1605.425857	224.510000
1607.315893	214.750000
1609.205513	215.560000
1611.094718	206.480000
1612.983507	196.920000
1614.870080	183.660000
1616.758040	187.860000
1618.641983	175.500000
1620.527313	168.870000
1622.412230	153.120000
1624.294933	147.420000
1626.179023	138.780000
1628.059101	136.880000
1629.940566	126.520000
1631.819821	122.000000
1633.700462	118.920000
1635.575300	121.230000
1637.455118	117.030000
1639.330931	118.670000
1641.206335	108.070000
1643.083124	108.930000
1644.954116	109.840000
1646.828291	105.160000
1648.698466	100.020000
1650.571822	105.390000
1652.442975	95.140000
1654.311926	102.390000
1656.182263	94.810000
1658.048606	95.520000
1659.916336	97.110000
1661.781866	96.030000
1663.648782	94.150000
1665.511708	90.940000
1667.376020	93.400000
1669.238137	95.420000
1671.099848	91.170000
1672.962944	86.760000
1674.823846	90.210000
1676.682555	91.710000
1678.540860	83.440000
1680.400549	82.270000
1682.254472	78.330000
1684.111568	89.020000
1685.968260	82.280000
1687.820977	85.710000
1689.676865	88.080000
1691.528779	84.870000
1693.380292	76.190000
1695.231404	90.870000
1697.082115	76.010000
1698.932426	81.100000
1700.780553	76.170000
1702.630064	80.960000
1704.473825	80.240000
1706.322537	78.730000
1708.165502	77.300000
1710.011633	79.890000
1711.853803	82.420000
1713.699137	80.560000
1715.538731	71.580000
1717.379709	75.920000
1719.222071	74.130000
1721.060475	80.620000
1722.900263	74.010000
1724.737876	77.060000
1726.575093	75.260000
1728.410137	81.020000
1730.246565	74.610000
1732.080819	77.810000
1733.914680	78.190000
1735.748146	79.710000
1737.577666	69.930000
1739.410345	80.950000
1741.239080	77.550000
1743.070973	75.890000
1744.898923	78.130000
1746.726481	77.780000
1748.553648	72.210000
1750.380423	72.330000
1752.206806	71.740000
1754.029253	73.960000
1755.854855	70.180000
1757.676521	71.220000
1759.499570	70.180000
1761.320458	68.360000
1763.140956	68.620000
1764.962836	68.850000
1766.779016	68.270000
1768.598348	67.950000
1770.413753	71.240000
1772.232309	70.090000
1774.046939	69.080000
1775.861182	76.780000
1777.675039	70.550000
1779.488509	73.260000
1781.299825	66.190000
1783.112523	70.780000
1784.924834	63.890000
1786.733228	71.710000
1788.543003	62.490000
1790.348862	69.920000
1792.157868	61.090000
1793.962960	72.710000
1795.769432	66.980000
1797.575521	70.040000
1799.377700	64.190000
1801.183022	64.580000
1802.984436	67.210000
1804.787230	68.330000
1806.586119	72.360000
1808.386387	67.250000
1810.186275	66.200000
1811.984020	67.440000
1813.781385	65.280000
1815.578369	69.060000
1817.374973	61.610000
1819.169438	68.260000
1820.965283	67.880000
1822.755472	63.010000
1824.550558	66.880000
1826.339991	74.920000
1828.132562	68.160000
1829.922997	66.150000
1831.711297	64.370000
1833.502733	66.840000
1835.288524	68.910000
1837.075693	72.530000
1838.860732	67.050000
1840.648903	76.480000
1842.433189	68.260000
1844.215346	69.020000
1845.998882	67.590000
1847.780289	70.600000
1849.563074	66.320000
1851.341980	67.960000
1853.122264	61.860000
1854.900423	60.720000
1856.679959	69.160000
1858.457371	71.000000
1860.232660	68.490000
1862.009326	70.260000
1863.783870	70.410000
1865.559791	72.920000
1867.330093	63.940000
1869.103522	67.130000
1870.874831	65.820000
1872.645769	73.620000
1874.418084	66.210000
1876.184787	64.280000
1877.954614	64.960000
1879.720578	69.630000
1881.489666	66.360000
1883.254892	69.870000
1885.019750	66.800000
1886.785984	69.440000
1888.548360	60.930000
1890.310369	69.150000
1892.072011	66.570000
1893.833285	71.380000
1895.594193	66.830000
1897.354733	69.600000
1899.113165	62.460000
1900.871230	64.720000
1902.627188	62.220000
1904.384522	63.810000
1906.141491	57.470000
1907.896353	65.520000
1909.649110	69.210000
1911.401504	69.020000
1913.155274	62.590000
1914.906940	62.100000
1916.656503	66.750000
1918.407443	66.340000
1920.158019	65.330000
1921.904757	68.570000
1923.652870	69.240000
1925.398884	63.020000
1927.146274	60.090000
1928.891565	67.570000
1930.634759	60.760000
1932.379329	68.390000
1934.121802	65.930000
1935.863915	66.130000
1937.605669	62.030000
1939.347062	69.750000
1941.086362	64.990000
1942.825303	64.490000
1944.563885	67.660000
1946.300376	68.000000
1948.036508	65.625000
1949.774015	63.250000
1951.507701	64.640000
1953.242761	72.390000
1954.975732	67.220000
1956.708347	67.530000
1958.440605	62.200000
1960.172507	68.540000
1961.902323	66.950000
1963.630055	66.590000
1965.359161	65.350000
1967.087911	68.290000
1968.814578	65.930000
1970.540891	62.180000
1972.268578	60.710000
1973.990728	66.230000
1975.715979	64.090000
1977.437423	63.920000
1979.161967	61.270000
1980.884432	64.320000
1982.603093	69.860000
1984.324853	67.070000
1986.042811	61.990000
1987.762143	64.550000
1989.477674	64.810000
1991.198027	68.640000
1992.914581	68.680000
1994.627338	71.710000
1996.343191	59.780000
1998.056972	69.260000
1999.770403	67.050000
2001.481763	71.870000
2003.194495	66.660000
2004.903436	67.480000
2006.615471	66.850000
2008.321996	70.950000
2010.031614	65.770000
2011.739164	72.560000
2013.446367	69.440000
2015.151504	68.690000
2016.856294	65.410000
2018.562457	66.930000
2020.264836	63.850000
2021.968588	68.220000
2023.670277	70.900000
2025.371620	67.470000
2027.072619	64.430000
2028.771556	73.890000
2030.471865	65.700000
2032.168398	71.560000
2033.866303	66.930000
2035.562150	67.060000
2037.261082	68.950000
2038.954528	68.790000
2040.649345	65.030000
2042.343819	69.690000
2044.034525	66.930000
2045.728315	72.610000
2047.418338	67.460000
2049.109732	66.650000
2050.799073	68.440000
2052.489784	62.580000
2054.176733	63.820000
2055.863341	68.870000
2057.551320	62.990000
2059.235539	66.710000
2060.921128	68.760000
2062.606378	70.440000
2064.289580	65.040000
2065.974152	66.790000
2067.653260	63.540000
2069.337155	68.450000
2071.015588	62.010000
2072.697099	59.280000
2074.374858	64.440000
2076.052281	63.300000
2077.731073	66.020000
2079.407822	63.600000
2081.082530	63.050000
2082.758607	66.140000
2084.432644	62.500000
2086.106345	65.340000
2087.779712	61.340000
2089.451039	67.900000
2091.122032	64.580000
2092.792691	62.590000
2094.463016	61.300000
2096.133006	65.190000
2097.800961	68.560000
2099.468583	62.430000
2101.134171	61.100000
2102.801127	61.870000
2104.466050	63.770000
2106.130640	64.930000
2107.793199	65.310000
2109.457127	65.540000
2111.119023	60.160000
2112.780588	60.470000
2114.441823	64.250000
2116.101028	62.000000
2117.759904	62.760000
2119.418449	69.520000
2121.076665	61.510000
2122.731158	63.130000
2124.388715	60.990000
2126.045942	62.860000
2127.699449	55.450000
2129.354323	65.030000
2131.005478	65.490000
2132.659696	61.670000
2134.310196	64.340000
2135.962064	65.090000
2137.608523	62.040000
2139.259736	60.310000
2140.907237	61.410000
2142.556104	75.090000
2144.202952	64.090000
2145.849475	67.150000
2147.495672	62.920000
2149.138160	75.480000
2150.783707	66.420000
2152.425547	70.080000
2154.070444	66.080000
2155.711636	70.570000
2157.352504	69.340000
2158.993049	64.470000
2160.631581	65.940000
2162.271479	65.830000
2163.907677	63.410000
2165.545241	66.760000
2167.182483	64.940000
2168.817715	64.660000
2170.452625	62.080000
2172.087214	62.680000
2173.721482	58.160000
2175.352056	63.010000
2176.985682	62.250000
2178.615615	66.530000
2180.246915	63.050000
2181.876209	60.900000
2183.505184	65.040000
2185.133839	65.630000
2186.762175	61.600000
2188.388508	59.660000
2190.014523	65.790000
2191.638537	70.450000
2193.263916	63.830000
2194.887294	66.790000
2196.512037	65.580000
2198.133098	68.650000
2199.753844	65.770000
2201.375953	67.140000
2202.996065	62.820000
2204.614181	63.730000
2206.231981	64.390000
2207.849465	66.700000
2209.466634	67.950000
2211.083488	60.570000
2212.700027	63.140000
2214.314572	62.110000
2215.927126	69.530000
2217.541043	67.250000
2219.152969	65.260000
2220.766258	61.960000
2222.377556	65.110000
2223.986866	63.980000
2225.597538	67.270000
2227.206222	61.890000
2228.814594	61.080000
2230.420979	65.720000
2232.028726	67.460000
2233.634488	64.180000
2235.239938	60.410000
2236.843403	62.080000
2238.448231	65.100000
2240.051075	72.360000
2241.651936	60.100000
2243.254160	69.480000
2244.854402	56.410000
2246.456006	67.460000
2248.053957	64.010000
2249.653271	60.780000
2251.250605	64.250000
2252.847631	61.130000
2254.446018	62.680000
2256.040757	70.370000
2257.633520	64.650000
2259.227644	66.100000
2260.823131	62.140000
2262.414972	62.880000
2264.006507	61.690000
2265.599403	69.730000
2267.186990	63.360000
2268.779274	61.040000
2270.366250	62.800000
2271.956255	64.620000
2273.540955	65.270000
2275.130349	65.990000
2276.714440	62.490000
2278.299893	68.540000
2279.883377	64.560000
2281.469886	60.820000
2283.052762	58.520000
2284.635334	64.270000
2286.217604	63.760000
2287.796243	62.300000
2289.377907	62.670000
2290.955942	60.860000
2292.537000	61.370000
2294.114431	61.225000
2295.689899	61.080000
2297.268389	63.890000
2298.843254	64.020000
2300.417820	62.370000
2301.992084	56.450000
2303.566048	67.310000
2305.139712	62.240000
2306.713076	65.700000
2308.282820	61.500000
2309.852266	63.950000
2311.424731	63.200000
2312.991921	65.710000
2314.562128	57.120000
2316.128722	58.570000
2317.696674	62.150000
2319.262672	65.670000
2320.828372	61.690000
2322.393774	66.820000
2323.957223	65.050000
2325.522031	70.420000
2327.083230	71.900000
2328.647444	89.470000
2330.206397	82.670000
2331.768363	79.700000
2333.328379	67.290000
2334.888099	65.130000
2336.445870	68.670000
2338.003347	63.870000
2339.560528	59.640000
2341.115763	63.410000
2342.670703	60.820000
2344.225350	65.530000
2345.779703	65.730000
2347.333762	62.970000
2348.887528	68.780000
2350.439349	63.350000
2351.989227	63.710000
2353.542113	65.870000
2355.089757	64.910000
2356.640408	64.450000
2358.187469	67.270000
2359.735887	70.810000
2361.284013	65.590000
2362.828552	69.320000
2364.374448	64.740000
2365.918405	60.980000
2367.463720	61.970000
2369.005450	64.620000
2370.548538	60.500000
2372.089689	66.260000
2373.630551	67.100000
2375.171124	64.440000
2376.711408	74.860000
2378.251403	66.330000
2379.787819	68.050000
2381.327237	60.530000
2382.863078	66.000000
2384.400276	70.780000
2385.933898	67.470000
2387.470520	65.090000
2389.005212	68.510000
2390.537973	66.240000
2392.070449	65.770000
2393.600996	67.800000
2395.134541	68.990000
2396.662875	66.130000
2398.192565	69.800000
2399.721970	69.690000
2401.251090	71.100000
2402.779924	76.840000
2404.303554	71.170000
2405.831819	71.430000
2407.354881	75.330000
2408.882578	74.940000
2410.403434	76.630000
2411.928924	75.990000
2413.450854	70.120000
2414.974138	77.590000
2416.495502	79.960000
2418.014946	77.230000
2419.535745	77.770000
2421.054625	79.870000
2422.573224	79.760000
2424.089904	85.190000
2425.607940	82.490000
2427.125694	86.530000
2428.639896	80.380000
2430.153818	84.020000
2431.667461	84.230000
2433.182457	89.280000
2434.693906	88.780000
2436.206708	89.140000
2437.717598	86.930000
2439.228208	83.970000
2440.736907	87.440000
2442.248593	95.970000
2443.756735	89.650000
2445.264599	82.880000
2446.772184	85.770000
2448.276230	93.440000
2449.783260	86.800000
2451.288382	88.550000
2452.793227	85.530000
2454.296165	89.170000
2455.798826	89.460000
2457.301212	84.640000
2458.801691	85.790000
2460.303524	86.390000
2461.803453	82.300000
2463.303106	82.490000
2464.802484	79.550000
2466.299959	82.620000
2467.795532	82.150000
2469.294085	77.910000
2470.789110	75.320000
2472.285487	82.530000
2473.778338	75.030000
2475.272541	77.320000
2476.766472	78.570000
2478.256878	78.760000
2479.750262	74.870000
2481.241748	79.270000
2482.731337	80.350000
2484.220654	77.040000
2485.708075	77.000000
2487.198472	77.170000
2488.685350	71.580000
2490.173581	81.510000
2491.658294	81.050000
2493.142737	73.010000
2494.628532	70.370000
2496.112434	79.520000
2497.597688	75.930000
2499.077808	71.080000
2500.560900	73.430000
2502.042103	79.040000
2503.523035	69.330000
2505.002079	79.880000
2506.480855	70.330000
2507.959362	72.080000
2509.437600	73.610000
2510.915571	78.130000
2512.390036	69.340000
2513.867470	73.980000
2515.341401	73.800000
2516.816683	70.550000
2518.291697	74.020000
2519.763210	76.420000
2521.236074	74.290000
2522.707055	72.750000
2524.179386	76.190000
2525.646603	77.610000
2527.116787	82.730000
2528.585090	73.610000
2530.053127	72.290000
2531.520900	73.830000
2532.988408	75.740000
2534.455652	73.190000
2535.919403	76.240000
2537.384504	70.750000
2538.847728	69.100000
2540.312301	76.030000
2541.773386	77.820000
2543.235820	83.080000
2544.697991	75.630000
2546.156675	73.730000
2547.619932	76.860000
2549.078092	77.010000
2550.537601	75.210000
2551.992017	72.740000
2553.451003	76.450000
2554.908116	75.910000
2556.363359	71.180000
2557.818341	78.200000
2559.271453	76.370000
2560.725914	79.040000
2562.178506	82.110000
2563.630838	77.340000
2565.081302	77.040000
2566.534723	86.200000
2567.983061	80.100000
2569.434354	87.670000
2570.883781	80.820000
2572.329737	82.710000
2573.778647	83.700000
2575.224086	85.980000
2576.670874	89.390000
2578.115798	87.550000
2579.560465	82.030000
2581.006479	80.020000
2582.449026	91.630000
2583.892921	84.220000
2585.333351	81.330000
2586.775129	94.240000
2588.215047	90.110000
2589.656312	92.870000
2591.094115	86.430000
2592.534868	86.800000
2593.970558	93.120000
2595.409198	89.170000
2596.845981	92.770000
2598.280907	93.430000
2599.718782	91.330000
2601.151599	92.750000
2602.585763	86.830000
2604.018072	99.950000
2605.451729	97.740000
2606.883531	101.360000
2608.315081	101.330000
2609.746377	103.190000
2611.175822	102.980000
2612.605014	111.570000
2614.032355	109.510000
2615.461043	112.770000
2616.889478	112.980000
2618.314467	117.470000
2619.740801	118.840000
2621.165287	118.240000
2622.591119	115.440000
2624.013507	124.310000
2625.437241	125.640000
2626.859129	126.420000
2628.280766	129.100000
2629.700559	133.950000
2631.121696	126.170000
2632.542584	140.960000
2633.960034	133.950000
2635.380423	144.020000
2636.797375	144.120000
2638.214079	153.270000
2639.630534	149.770000
2641.046741	156.990000
2642.462699	151.530000
2643.876818	162.980000
2645.290688	162.870000
2646.702719	169.230000
2648.116095	165.940000
2649.526041	175.000000
2650.938923	174.860000
2652.348376	188.920000
2653.757583	190.340000
2655.164954	198.090000
2656.575259	197.330000
2657.983728	211.760000
2659.390362	203.720000
2660.796751	212.590000
2662.201306	223.860000
2663.607205	226.340000
2665.011271	224.050000
2666.415093	238.150000
2667.818670	239.970000
2669.220416	244.580000
2670.623505	252.540000
2672.023176	265.750000
2673.424191	266.250000
2674.821790	274.650000
2676.222318	271.150000
2677.619432	270.300000
2679.017889	280.050000
2680.414518	281.770000
2681.810906	282.980000
2683.207051	285.680000
2684.601370	282.370000
2685.997032	288.410000
2687.389284	282.500000
2688.782880	290.060000
2690.174651	286.680000
2691.567764	278.160000
2692.959054	283.150000
2694.348521	280.180000
2695.737749	284.830000
2697.126736	284.490000
2698.517066	278.120000
2699.902412	290.050000
2701.290681	282.900000
2702.677130	274.680000
2704.063340	272.400000
2705.449311	276.590000
2706.831884	269.710000
2708.215799	268.230000
2709.599475	267.030000
2710.982914	263.760000
2712.362957	254.390000
2713.744342	251.530000
2715.123911	241.210000
2716.504822	237.430000
2717.883918	230.450000
2719.261200	224.330000
2720.639823	223.140000
2722.016632	213.200000
2723.393206	207.260000
2724.769544	199.940000
2726.144070	190.460000
2727.519937	194.160000
2728.892417	182.570000
2730.267814	176.940000
2731.638250	162.400000
2733.010026	155.040000
2734.381569	152.560000
2735.751303	150.330000
2737.122377	137.920000
2738.491644	140.330000
2739.860677	132.030000
2741.227903	126.390000
2742.594897	121.910000
2743.961658	120.700000
2745.328186	113.140000
2746.692910	114.760000
2748.057401	108.950000
2749.421660	103.900000
2750.785688	108.080000
2752.149483	105.730000
2753.509905	100.600000
2754.873238	94.460000
2756.231628	87.450000
2757.592928	93.840000
2758.950857	94.040000
2760.311696	97.520000
2761.670734	88.870000
2763.026404	92.190000
2764.384983	82.890000
2765.740194	84.870000
2767.095176	87.510000
2768.448361	86.730000
2769.804453	85.030000
2771.157181	89.490000
2772.509680	80.870000
2773.861952	84.790000
2775.215561	83.040000
2776.565809	78.990000
2777.914264	76.860000
2779.265623	77.600000
2780.613623	78.810000
2781.962962	77.360000
2783.310508	78.090000
2784.657828	80.920000
2786.004920	73.610000
2787.350222	74.140000
2788.695298	78.030000
2790.040148	75.070000
2791.384772	75.260000
2792.726043	73.950000
2794.068653	75.300000
2795.411038	76.440000
2796.753197	79.110000
2798.092007	74.660000
2799.433717	73.110000
2800.772078	75.260000
2802.111777	70.570000
2803.449690	67.560000
2804.785819	71.700000
2806.121725	73.480000
2807.458967	65.000000
2808.794426	66.300000
2810.129662	74.670000
2811.463116	72.860000
2812.797906	66.040000
2814.129355	75.610000
2815.463700	71.580000
2816.793147	71.770000
2818.123931	62.900000
2819.454493	72.420000
2820.783276	72.930000
2822.113396	62.600000
2823.441737	64.620000
2824.769856	65.960000
2826.096199	69.530000
2827.423877	68.280000
2828.748223	63.560000
2830.073905	64.110000
2831.397811	64.860000
2832.721497	67.190000
2834.046519	61.750000
2835.368212	68.250000
2836.689685	61.130000
2838.010940	66.440000
2839.331976	69.020000
2840.651240	58.640000
2841.971839	65.210000
2843.290666	62.780000
2844.609275	58.790000
2845.926114	66.070000
2847.242735	58.800000
2848.559139	61.820000
2849.873773	63.950000
2851.189742	68.880000
2852.502392	68.570000
2853.816376	61.590000
2855.130144	65.180000
2856.443695	62.780000
2857.755479	62.950000
2859.065498	60.500000
2860.376851	70.030000
2861.684888	68.510000
2862.994261	59.950000
2864.303418	62.930000
2865.612360	62.410000
2866.919539	69.070000
2868.224954	61.920000
2869.531704	64.790000
2870.836692	63.960000
2872.141465	64.260000
2873.444478	62.080000
2874.750371	67.180000
2876.051410	57.170000
2877.353782	66.490000
2878.654395	64.810000
2879.956342	65.200000
2881.258076	64.520000
2882.556506	63.680000
2883.856269	55.010000
2885.154275	64.850000
2886.452069	66.070000
2887.748106	68.000000
2889.045477	64.400000
2890.341093	68.020000
2891.636497	59.580000
2892.931690	60.140000
2894.223585	57.890000
2895.518357	67.000000
2896.809833	64.400000
2898.102641	64.340000
2899.395239	62.820000
2900.684542	63.080000
2901.975179	63.080000
2903.264064	62.920000
2904.554281	59.460000
2905.841207	65.170000
2907.129465	55.200000
2908.415974	62.890000
2909.702274	59.320000
2910.988366	67.450000
2912.272710	63.020000
2913.559926	70.130000
2914.842315	61.020000
2916.126036	65.990000
2917.408010	59.240000
2918.689778	61.070000
2919.969800	61.650000
2921.252692	65.980000
2922.533839	61.360000
2923.811704	62.900000
2925.092438	63.870000
2926.369891	66.010000
2927.647139	59.890000
2928.922644	61.760000
2930.201017	62.090000
2931.474576	63.860000
2932.751001	63.810000
2934.025686	59.450000
2935.298631	65.030000
2936.572907	62.870000
2937.845442	64.740000
2939.117774	62.910000
2940.386833	60.900000
2941.658757	59.870000
2942.928943	64.280000
2944.198925	67.330000
2945.468704	60.300000
2946.736746	60.250000
2948.003053	55.110000
2949.269157	61.240000
2950.536592	55.040000
2951.802291	60.470000
2953.067788	58.640000
2954.333084	61.090000
2955.595114	55.380000
2956.858474	57.590000
2958.121633	59.150000
2959.383059	62.950000
2960.645816	55.400000
2961.906840	59.940000
2963.166134	56.020000
2964.425227	57.280000
2965.684120	52.260000
2966.942813	55.540000
2968.201306	54.560000
2969.458070	58.230000
2970.714635	58.640000
2971.969471	55.630000
2973.225637	57.140000
2974.478547	64.890000
2975.732787	56.610000
2976.986828	61.380000
2978.239143	56.140000
2979.491260	56.480000
2980.741652	55.950000
2981.994899	54.630000
2983.243369	57.360000
2984.494694	56.790000
2985.742769	56.130000
2986.990647	56.490000
2988.238329	57.980000
2989.485813	52.330000
2990.731576	52.660000
2991.977142	53.140000
2993.224037	58.550000
2994.467687	49.200000
2995.712664	54.890000
2996.954399	55.710000
2998.198985	51.830000
2999.441852	58.490000
3000.681477	47.520000
3001.923954	51.410000
3003.163190	50.710000
3004.403754	52.480000
3005.642601	49.880000
3006.881254	56.390000
3008.118191	55.420000
3009.356456	54.070000
3010.593005	50.990000
3011.829361	54.640000
3013.065523	56.210000
3014.299971	58.690000
3015.534226	52.440000
3016.768288	58.920000
3018.000638	48.400000
3019.231276	55.340000
3020.464760	47.750000
3021.696533	61.240000
3022.926594	53.940000
3024.156464	59.080000
3025.384624	48.520000
3026.614111	60.220000
3027.841888	51.460000
3029.069474	52.020000
3030.298386	51.890000
3031.522556	53.300000
3032.749569	53.940000
3033.973359	55.320000
3035.198474	52.590000
3036.421884	52.410000
3037.645103	54.650000
3038.866617	57.360000
3040.090972	54.710000
3041.310592	53.100000
3042.531538	59.010000
3043.752294	54.250000
3044.971348	55.880000
3046.191726	51.960000
3047.408888	55.420000
3048.627375	50.900000
3049.844161	48.650000
3051.060758	56.630000
3052.277168	51.450000
3053.490364	51.420000
3054.706398	48.070000
3055.919220	48.640000
3057.134879	54.100000
3058.345815	53.000000
3059.558077	52.470000
3060.770151	52.470000
3061.982039	51.440000
3063.192229	52.270000
3064.402234	47.720000
3065.612052	48.610000
3066.820174	53.510000
3068.028111	47.010000
3069.234352	50.100000
3070.441918	46.580000
3071.647789	50.015000
3072.853475	53.450000
3074.058977	49.020000
3075.262785	51.160000
3076.467917	46.940000
3077.671356	43.330000
3078.873103	48.400000
3080.074667	51.230000
3081.276047	43.930000
3082.477243	47.350000
3083.676749	46.330000
3084.876072	50.370000
3086.076717	54.520000
3087.275674	49.810000
3088.471435	50.330000
3089.670026	50.960000
3090.865423	49.860000
3092.062144	47.930000
3093.255672	48.730000
3094.452028	53.110000
3095.646697	47.740000
3096.838176	49.410000
3098.033986	52.670000
3099.225103	52.030000
3100.417543	52.190000
3101.606794	50.410000
3102.798872	45.560000
3103.989266	54.770000
3105.176474	54.470000
3106.365004	50.930000
3107.554857	48.310000
3108.741525	49.470000
3109.928014	46.050000
3111.114323	50.180000
3112.301955	51.380000
3113.486404	53.280000
3114.669173	43.870000
3115.854766	43.560000
3117.038679	45.620000
3118.220912	49.580000
3119.402968	42.840000
3120.584845	51.970000
3121.766544	45.380000
3122.946566	46.320000
3124.124911	44.190000
3125.306076	49.310000
3126.484066	45.370000
3127.661879	51.500000
3128.839515	45.980000
3130.015476	50.400000
3131.191261	47.910000
3132.368366	48.910000
3133.543798	47.210000
3134.717556	46.840000
3135.889641	46.350000
3137.063047	50.670000
3138.236278	46.600000
3139.407837	49.470000
3140.580716	47.500000
3141.750428	41.760000
3142.921461	41.750000
3144.090823	52.390000
3145.258516	46.110000
3146.429024	49.870000
3147.594873	49.930000
3148.765032	48.760000
3149.930533	53.730000
3151.095861	46.970000
3152.261015	49.040000
3153.425996	48.550000
3154.592296	49.020000
3155.753943	51.170000
3156.916911	46.680000
3158.079706	49.370000
3159.242327	44.140000
3160.403284	53.030000
3161.564069	52.850000
3162.724681	47.540000
3163.883629	43.390000
3165.042405	46.960000
3166.201010	48.420000
3167.359443	45.160000
3168.517704	41.590000
3169.674304	46.750000
3170.829241	49.120000
3171.985499	44.380000
3173.140095	50.010000
3174.294521	48.510000
3175.447286	44.590000
3176.599882	44.100000
3177.752308	46.990000
3178.904563	40.360000
3180.056649	44.620000
3181.205588	50.690000
3182.357334	45.000000
3183.507423	46.290000
3184.655854	43.160000
3185.804117	43.950000
3186.952211	43.230000
3188.100136	47.960000
3189.246405	45.770000
3190.392506	48.950000
3191.536953	47.170000
3192.681231	47.550000
3193.825342	45.420000
3194.970771	53.090000
3196.113061	48.890000
3197.255183	46.910000
3198.397139	46.070000
3199.538927	45.830000
3200.680548	52.780000
3201.819033	53.630000
3202.958837	47.850000
3204.099957	57.350000
3205.237943	47.590000
3206.374280	55.340000
3207.510451	46.870000
3208.647940	53.110000
3209.783780	54.920000
3210.920937	52.770000
3212.053481	52.570000
3213.190306	57.720000
3214.322520	57.550000
3215.456052	66.680000
3216.589418	56.240000
3217.719657	58.840000
3218.852695	58.100000
3219.982605	55.360000
3221.113833	53.290000
3222.241935	58.430000
3223.372835	51.650000
3224.502090	60.580000
3225.629702	54.940000
3226.754191	59.920000
3227.882956	51.970000
3229.008599	55.110000
3230.134079	55.410000
3231.257918	51.970000
3232.384552	54.330000
3233.506587	57.440000
3234.629940	55.610000
3235.753129	58.260000
3236.876157	47.990000
3237.997545	52.960000
3239.118772	51.730000
3240.238360	54.410000
3241.357787	49.230000
3242.475577	49.170000
3243.596158	43.550000
3244.713626	47.640000
3245.830933	48.100000
3246.948079	47.790000
3248.063590	48.300000
3249.180416	48.630000
3250.294131	44.440000
3251.410637	48.550000
3252.525507	43.520000
3253.637269	41.590000
3254.748872	42.460000
3255.861790	41.240000
3256.974548	44.430000
3258.084200	48.270000
3259.195167	41.830000
3260.305975	42.950000
3261.415151	41.380000
3262.522696	43.230000
3263.631556	41.180000
3264.740257	43.380000
3265.845856	44.140000
3266.952770	48.900000
3268.058054	38.550000
3269.164652	44.930000
3270.268150	42.720000
3271.372962	39.640000
3272.477617	40.950000
3273.579174	44.210000
3274.680574	44.220000
3275.783288	40.890000
3276.885846	35.580000
3277.985307	43.670000
3279.087551	38.320000
3280.186701	47.660000
3281.284225	42.010000
3282.381595	40.290000
3283.481746	44.260000
3284.578804	39.140000
3285.675708	46.420000
3286.772456	40.260000
3287.864645	35.400000
3288.961084	48.740000
3290.055900	40.840000
3291.150561	44.340000
3292.243601	41.240000
3293.336487	40.570000
3294.427752	43.870000
3295.520330	40.850000
3296.611288	41.510000
3297.700626	43.270000
3298.789811	34.690000
3299.880308	37.420000
3300.967721	38.600000
3302.054982	42.270000
3303.143555	42.680000
3304.231975	42.240000
3305.315849	41.470000
3306.403963	38.450000
3307.488997	34.890000
3308.572415	42.630000
3309.657145	34.800000
3310.740259	37.260000
3311.824685	36.370000
3312.906033	44.820000
3313.988693	41.090000
3315.069739	43.840000
3316.150634	43.010000
3317.229916	39.890000
3318.309047	41.500000
3319.389490	44.430000
3320.466858	42.210000
3321.545538	39.120000
3322.622606	36.110000
3323.699524	38.370000
3324.774832	37.660000
3325.849990	39.000000
3326.926459	40.870000
3327.999857	43.260000
3329.073107	40.010000
3330.147668	37.030000
3331.220620	43.380000
3332.291963	39.220000
3333.364617	35.780000
3334.434204	43.150000
3335.505102	41.490000
3336.574394	37.100000
3337.644995	41.600000
3338.713990	43.190000
3339.781380	35.740000
3340.847164	46.700000
3341.917174	38.370000
3342.984120	36.700000
3344.048005	41.590000
3345.114658	38.220000
3346.179707	42.250000
3347.243152	43.360000
3348.306450	38.950000
3349.369603	42.570000
3350.432609	35.810000
3351.495469	39.820000
3352.556726	42.980000
3353.614927	40.180000
3354.677349	37.370000
3355.736715	40.190000
3356.795935	36.640000
3357.856464	38.670000
3358.912484	35.720000
3359.971269	38.780000
3361.025546	36.360000
3362.082587	40.160000
3363.138029	38.990000
3364.194780	41.380000
3365.249934	35.450000
3366.303490	40.460000
3367.355449	34.200000
3368.410171	38.730000
3369.461843	34.940000
3370.513371	46.070000
3371.566209	37.200000
3372.615999	38.440000
3373.667098	37.980000
3374.715150	37.290000
3375.765963	33.440000
3376.813730	38.530000
3377.861355	41.500000
3378.908838	43.070000
3379.954728	37.710000
3381.001926	44.560000
3382.046081	37.020000
3383.092995	39.440000
3384.138318	38.780000
3385.180599	36.880000
3386.222739	37.480000
3387.266188	37.640000
3388.309495	38.400000
3389.351212	40.870000
3390.392789	36.910000
3391.434224	41.700000
3392.474071	36.070000
3393.512329	40.830000
3394.551895	35.940000
3395.591321	41.040000
3396.629159	39.640000
3397.665410	41.030000
3398.701521	36.990000
3399.738940	43.910000
3400.773326	38.820000
3401.809020	41.590000
3402.844574	34.330000
3403.877096	40.340000
3404.912372	29.440000
3405.944618	36.570000
3406.976724	41.150000
3408.007248	41.660000
3409.039078	38.450000
3410.070770	37.800000
3411.099434	37.590000
3412.127961	35.070000
3413.157794	38.300000
3414.187490	32.120000
3415.214160	38.590000
3416.242136	30.100000
3417.267088	35.530000
3418.294791	37.550000
3419.319469	37.240000
3420.345454	37.850000
3421.369860	34.200000
3422.394129	41.670000
3423.416819	37.360000
3424.439373	35.560000
3425.463233	38.070000
3426.484073	32.480000
3427.504777	36.680000
3428.526787	34.760000
3429.545779	34.980000
3430.564636	34.700000
3431.584799	33.730000
3432.601944	37.430000
