-116.264276	25.800000
-113.594676	13.200000
-110.928011	17.100000
-108.262098	-7.100000
-105.599117	-15.300000
-102.934707	-3.900000
-100.273227	12.900000
-97.610317	21.100000
-94.952515	20.500000
-92.293282	8.300000
-89.634798	14.700000
-86.979239	6.800000
-84.322251	30.600000
-81.670360	11.000000
-79.017040	15.200000
-76.366640	8.500000
-73.714810	53.000000
-71.068071	25.500000
-68.419902	35.500000
-65.772477	18.600000
-63.127965	24.500000
-60.482025	38.200000
-57.841166	14.700000
-55.198878	48.200000
-52.559498	39.900000
-49.918690	22.000000
-47.278622	21.900000
-44.643626	29.700000
-42.007201	38.400000
-39.373680	44.500000
-36.738730	55.200000
-34.108845	53.500000
-31.475368	40.600000
-28.846953	29.400000
-26.219271	72.500000
-23.590162	76.800000
-20.966109	97.000000
-18.338467	92.400000
-15.715878	150.400000
-13.094020	211.600000
-10.472894	379.400000
-7.852497	1044.100000
-5.234988	3867.400000
-2.616051	11032.200000
0.000000	21864.300000
2.615323	23719.400000
5.229919	10667.900000
7.841632	912.400000
10.454774	194.300000
13.062882	109.500000
15.674572	69.200000
18.281231	53.300000
20.889318	62.100000
23.496681	53.600000
26.099019	43.300000
28.704935	33.300000
31.305829	33.400000
33.908152	28.700000
36.505456	36.000000
39.106336	18.800000
41.702202	19.000000
44.299495	32.500000
46.896069	20.200000
49.487634	23.200000
52.080627	33.400000
54.670759	42.100000
57.262319	26.800000
59.851019	10.700000
62.441146	37.500000
65.026275	5.200000
67.612831	18.900000
70.198672	25.900000
72.781660	39.400000
75.366075	29.500000
77.943360	15.200000
80.524212	6.700000
83.102215	53.200000
85.679508	14.500000
88.258227	14.000000
90.831965	17.900000
93.407129	20.300000
95.979450	2.900000
98.551063	38.300000
101.119837	30.200000
103.690036	31.600000
106.257398	35.900000
108.826186	56.900000
111.392136	28.200000
113.955252	30.200000
116.521924	43.000000
119.079375	86.400000
121.642511	65.100000
124.200688	130.000000
126.762418	203.300000
129.319193	284.200000
131.877393	394.900000
134.430641	579.500000
136.983190	809.400000
139.539290	1181.300000
142.090443	1481.800000
144.640897	1670.300000
147.190655	1872.600000
149.737593	2013.000000
152.283835	2139.800000
154.831503	2174.200000
157.378476	2209.400000
159.920512	2106.300000
162.461855	2071.300000
165.002505	2162.100000
167.544581	2114.500000
170.083846	2133.900000
172.620301	2106.800000
175.156066	2105.600000
177.693256	2041.000000
180.229754	2044.200000
182.763447	2019.800000
185.294337	2011.100000
187.824538	2034.800000
190.356164	2010.400000
192.884989	2015.900000
195.411015	2008.600000
197.936356	1993.600000
200.463121	2016.700000
202.987089	1984.200000
205.510373	2021.400000
208.032972	2019.400000
210.552778	2013.000000
213.071901	1998.700000
215.590341	1998.500000
218.110205	1990.200000
220.623068	2037.300000
223.139462	1995.500000
225.655174	2027.200000
228.165997	1972.800000
230.678244	2022.100000
233.187708	2043.400000
235.696494	2036.600000
238.204602	2036.100000
240.714133	2076.700000
243.218785	2045.700000
245.722760	2087.200000
248.228159	2051.700000
250.728683	2091.000000
253.232730	2095.300000
255.729807	2100.200000
258.230406	2102.700000
260.728234	2157.000000
263.225389	2145.400000
265.721871	2168.000000
268.213490	2143.200000
270.708629	2189.500000
273.201002	2153.100000
275.692704	2176.000000
278.181643	2187.900000
280.672005	2228.200000
283.159606	2200.400000
285.644447	2185.600000
288.132802	2234.900000
290.614218	2208.800000
293.099148	2254.100000
295.579233	2248.100000
298.062830	2279.600000
300.541584	2289.100000
303.021762	2287.700000
305.499187	2306.700000
307.975949	2358.000000
310.452048	2346.700000
312.925398	2412.800000
315.398086	2586.300000
317.870113	2764.100000
320.341479	3022.300000
322.810101	3252.900000
325.278063	3215.300000
327.747448	2944.400000
330.212010	2650.400000
332.680075	2554.500000
335.143321	2510.500000
337.605910	2485.900000
340.067841	2442.300000
342.529116	2472.800000
344.987657	2440.800000
347.447620	2434.200000
349.904850	2446.200000
352.361426	2436.900000
354.817348	2491.600000
357.270541	2436.100000
359.725155	2459.100000
362.174968	2486.200000
364.628278	2460.200000
367.076788	2437.200000
369.524648	2422.700000
371.973929	2433.500000
374.418417	2483.300000
376.864327	2408.500000
379.309588	2417.600000
381.752130	2434.200000
384.194024	2430.300000
386.635270	2459.100000
389.073801	2478.700000
391.513754	2416.200000
393.950993	2460.400000
396.385520	2410.000000
398.823535	2432.700000
401.256773	2450.000000
403.691433	2430.200000
406.121319	2478.000000
408.554691	2421.400000
410.983293	2482.000000
413.411254	2438.400000
415.840635	2452.700000
418.265251	2485.500000
420.691289	2471.000000
423.116686	2437.700000
425.541443	2495.200000
427.961442	2483.900000
430.382862	2511.100000
432.801585	2488.500000
435.221729	2491.000000
437.639178	2486.800000
440.058047	2491.000000
442.474223	2540.700000
444.885652	2499.200000
447.300557	2469.700000
449.712772	2511.800000
452.124353	2495.900000
454.535300	2485.500000
456.943561	2479.400000
459.351189	2436.000000
461.758186	2449.800000
464.164550	2405.300000
466.568232	2406.400000
468.971284	2383.400000
471.373706	2371.500000
473.775499	2320.300000
476.174613	2350.600000
478.575147	2313.800000
480.975052	2303.300000
483.370234	2298.300000
485.768883	2377.100000
488.162812	2353.800000
490.556115	2331.900000
492.948792	2300.400000
495.340844	2237.700000
497.734315	2143.100000
500.123073	2092.100000
502.509165	1951.400000
504.896677	1880.900000
507.283565	1789.900000
509.667790	1754.000000
512.053434	1698.800000
514.436415	1587.900000
516.816736	1555.200000
519.198476	1508.400000
521.577557	1473.700000
523.958057	1439.400000
526.335899	1414.800000
528.711086	1430.600000
531.085655	1355.200000
533.461643	1374.400000
535.834977	1359.000000
538.209729	1314.300000
540.579796	1289.600000
542.949247	1317.600000
545.320116	1301.200000
547.686305	1258.500000
550.053912	1260.500000
552.418873	1278.900000
554.783221	1251.800000
557.146957	1272.400000
559.512110	1195.900000
561.872590	1213.800000
564.234489	1219.600000
566.593748	1184.400000
568.950368	1217.700000
571.310433	1189.600000
573.663808	1170.900000
576.020627	1165.800000
578.374810	1166.700000
580.728386	1139.900000
583.081353	1158.900000
585.431689	1119.200000
587.783441	1141.900000
590.128517	1164.700000
592.479057	1099.100000
594.822924	1145.200000
597.172251	1153.400000
599.516931	1161.100000
601.858985	1107.800000
604.202457	1134.700000
606.543306	1088.000000
608.883553	1082.900000
611.221179	1074.900000
613.562240	1085.000000
615.898664	1085.100000
618.236504	1068.100000
620.571726	1043.000000
622.904333	1040.400000
625.238356	1016.800000
627.569766	1016.300000
629.900577	1032.000000
632.230790	1024.600000
634.560405	973.800000
636.885398	1021.300000
639.215832	996.500000
641.541644	980.600000
643.864850	991.000000
646.189471	982.900000
648.511488	970.800000
650.832910	967.400000
653.151729	945.500000
655.471964	926.100000
657.791606	952.800000
660.108647	922.100000
662.425096	975.700000
664.738948	932.600000
667.054214	933.700000
669.366884	919.200000
671.680969	887.900000
673.990454	920.700000
676.301355	919.000000
678.609663	875.700000
680.917383	886.300000
683.226518	898.000000
685.531060	876.800000
687.835015	907.100000
690.138385	861.200000
692.443169	830.400000
694.743367	859.800000
697.044979	883.800000
699.346007	859.700000
701.642452	831.600000
703.940313	815.900000
706.237590	811.100000
708.534284	843.300000
710.826402	823.400000
713.121931	793.900000
715.412887	805.200000
717.705257	785.700000
719.995051	797.900000
722.284266	798.600000
724.572900	806.200000
726.858963	818.300000
729.146439	816.800000
731.431345	838.500000
733.715672	848.000000
735.997431	865.200000
738.280604	831.600000
740.563200	870.100000
742.841241	848.600000
745.120695	840.600000
747.399574	871.200000
749.677877	874.000000
751.951631	895.400000
754.226799	834.600000
756.501393	878.600000
758.773428	850.200000
761.046875	862.900000
763.317765	868.100000
765.586099	876.300000
767.855846	879.000000
770.123039	900.600000
772.389661	906.900000
774.655714	911.500000
776.919214	926.500000
779.184128	953.600000
781.448472	935.000000
783.708287	930.500000
785.969515	956.500000
788.230175	936.500000
790.488288	985.200000
792.743857	959.200000
795.002817	932.900000
797.255278	939.700000
799.513106	938.500000
801.766414	930.000000
804.017183	931.700000
806.269364	911.400000
808.519007	906.300000
810.770061	893.900000
813.016604	879.800000
815.264559	883.900000
817.509980	874.400000
819.756812	866.900000
822.003083	840.300000
824.244850	853.700000
826.489999	825.000000
828.728676	843.700000
830.970736	817.200000
833.208297	829.400000
835.447269	801.600000
837.683715	811.900000
839.921572	820.400000
842.156905	785.900000
844.389713	798.100000
846.623933	769.100000
848.855631	761.600000
851.086774	798.100000
853.317362	748.700000
855.547396	780.700000
857.776875	778.800000
860.001873	756.800000
862.230246	749.500000
864.454140	758.400000
866.679444	786.400000
868.900273	753.500000
871.124474	745.700000
873.344202	798.700000
875.565341	772.200000
877.785929	796.800000
880.004007	818.400000
882.223496	762.400000
884.438518	775.600000
886.652992	794.900000
888.866919	773.500000
891.080298	809.300000
893.293130	786.100000
895.505416	791.300000
897.715199	752.000000
899.924437	774.000000
902.133130	792.500000
904.339324	783.500000
906.546927	779.600000
908.752033	781.700000
910.956595	749.500000
913.158661	741.600000
915.362137	719.300000
917.563119	772.800000
919.763560	750.200000
921.965409	782.500000
924.160866	756.000000
926.359683	760.500000
928.554062	758.800000
930.751797	764.200000
932.945097	775.100000
935.139806	763.700000
937.332029	756.000000
939.523714	785.700000
941.714861	773.900000
943.903525	794.400000
946.091652	807.600000
948.277299	802.100000
950.466298	809.900000
952.650874	872.900000
954.834915	888.700000
957.022306	885.600000
959.201393	895.700000
961.383831	936.800000
963.565735	925.900000
965.745165	948.700000
967.922122	952.100000
970.100486	980.000000
972.280258	1031.100000
974.453681	1016.900000
976.630450	1005.000000
978.802813	1079.200000
980.976582	1055.300000
983.145948	1101.300000
985.318659	1075.500000
987.488903	1088.800000
989.658619	1073.100000
991.827806	1116.400000
993.992596	1145.600000
996.160727	1128.800000
998.324464	1135.600000
1000.489607	1173.900000
1002.652292	1178.900000
1004.814450	1180.100000
1006.974152	1185.300000
1009.133330	1192.700000
1011.293914	1210.400000
1013.452043	1239.800000
1015.609648	1217.400000
1017.766730	1250.500000
1019.923289	1233.700000
1022.075468	1264.600000
1024.229053	1262.300000
1026.382117	1267.100000
1028.532733	1343.300000
1030.684754	1304.100000
1032.832402	1367.400000
1034.983382	1323.900000
1037.129991	1352.300000
1039.276082	1361.300000
1041.421653	1387.500000
1043.568630	1352.500000
1045.709319	1426.900000
1047.853336	1412.300000
1049.994913	1416.200000
1052.135974	1416.100000
1054.278439	1422.300000
1056.414625	1483.000000
1058.554137	1482.200000
1060.689293	1474.700000
1062.827774	1479.200000
1064.961901	1447.900000
1067.095515	1457.800000
1069.230534	1418.000000
1071.361203	1410.100000
1073.493277	1427.000000
1075.622922	1401.200000
1077.752055	1364.200000
1079.880676	1362.600000
1082.008786	1360.600000
1084.134470	1311.700000
1086.259644	1304.700000
1088.386222	1289.300000
1090.508463	1299.200000
1092.632107	1288.700000
1094.751418	1227.000000
1096.875957	1206.400000
1098.994251	1224.600000
1101.113950	1219.300000
1103.231230	1181.400000
1105.348004	1151.400000
1107.464271	1176.400000
1109.578123	1144.700000
1111.693378	1112.500000
1113.804311	1117.800000
1115.918555	1090.400000
1118.028479	1110.500000
1120.139807	1084.600000
1122.250630	1054.900000
1124.357138	1085.100000
1126.466954	1064.900000
1128.572456	1045.200000
1130.679361	1076.400000
1132.780051	1037.500000
1134.885953	1057.400000
1136.987546	1001.900000
1139.090542	1042.900000
1141.193037	996.100000
1143.289325	1019.100000
1145.390821	980.900000
1147.488014	983.000000
1149.584708	1008.800000
1151.680904	974.300000
1153.776603	980.500000
1155.871804	975.800000
1157.964608	957.100000
1160.058814	996.900000
1162.146829	957.700000
1164.240042	958.900000
1166.327067	956.400000
1168.417391	965.000000
1170.503428	950.600000
1172.592762	972.200000
1174.675915	957.900000
1176.760471	940.200000
1178.846427	965.400000
1180.928102	973.900000
1183.011179	934.100000
1185.091870	969.500000
1187.172069	940.300000
1189.251777	967.700000
1191.330994	916.600000
1193.407829	908.800000
1195.482283	959.300000
1197.560029	930.100000
1199.633504	935.300000
1201.708380	923.100000
1203.778989	914.800000
1205.851000	924.500000
1207.920634	914.500000
1209.991669	918.100000
1212.062216	892.300000
1214.128502	934.200000
1216.196189	931.100000
1218.261504	902.100000
1220.328219	914.700000
1222.390678	895.300000
1224.456422	891.200000
1226.517913	895.900000
1228.580803	884.300000
1230.641326	891.600000
1232.701365	911.600000
1234.760922	880.900000
1236.818113	893.500000
1238.874823	879.400000
1240.929170	887.200000
1242.986797	899.200000
1245.042062	902.300000
1247.093086	891.900000
1249.145510	884.700000
1251.197454	916.300000
1253.247040	881.400000
1255.296147	920.000000
1257.344776	912.600000
1259.392926	928.600000
1261.440598	896.600000
1263.484039	879.700000
1265.530755	902.100000
1267.575118	913.500000
1269.619005	917.700000
1271.660541	921.100000
1273.699727	833.800000
1275.742185	941.100000
1277.780421	977.900000
1279.820056	939.500000
1281.859216	966.300000
1283.894157	966.500000
1285.930498	997.500000
1287.964493	969.600000
1289.999887	1013.300000
1292.031067	1043.800000
1294.063646	1033.300000
1296.095752	1065.900000
1298.125518	1096.100000
1300.156682	1102.800000
1302.183638	1153.700000
1304.211992	1170.700000
1306.236142	1214.600000
1308.263556	1228.000000
1310.286768	1276.500000
1312.311378	1308.400000
1314.333654	1361.200000
1316.357327	1391.300000
1318.378667	1433.300000
1320.399539	1484.300000
1322.419945	1528.000000
1324.436156	1607.200000
1326.453766	1641.600000
1328.469047	1715.700000
1330.487586	1735.800000
1332.501937	1814.200000
1334.513962	1854.400000
1336.529244	1893.600000
1338.540341	1943.100000
1340.552835	1928.900000
1342.561146	1956.700000
1344.572713	1946.000000
1346.578240	1912.400000
1348.587023	1868.900000
1350.591628	1825.600000
1352.599487	1779.400000
1354.606884	1716.600000
1356.608250	1643.300000
1358.611013	1595.600000
1360.613315	1549.700000
1362.615158	1417.900000
1364.616541	1429.800000
1366.615611	1376.300000
1368.614222	1274.200000
1370.612375	1274.100000
1372.610070	1193.600000
1374.603601	1193.400000
1376.598529	1151.700000
1378.593000	1127.100000
1380.587014	1109.100000
1382.578721	1077.700000
1384.569972	1037.400000
1386.558918	1064.700000
1388.549259	1017.400000
1390.539145	981.900000
1392.526728	969.900000
1394.513856	1002.800000
1396.498684	959.700000
1398.484905	1002.100000
1400.468827	948.000000
1402.452296	957.600000
1404.435313	961.400000
1406.416031	938.800000
1408.398145	942.100000
1410.377961	917.800000
1412.357327	925.400000
1414.332553	925.700000
1416.311019	915.000000
1418.287190	890.000000
1420.262913	878.900000
1422.238186	880.300000
1424.211168	895.200000
1426.183702	904.200000
1428.155789	854.400000
1430.127427	901.600000
1432.094937	877.200000
1434.067522	892.300000
1436.032300	847.100000
1438.002151	871.600000
1439.967877	839.100000
1441.934996	888.800000
1443.899832	867.900000
1445.860549	870.900000
1447.826333	868.600000
1449.786162	846.200000
1451.747384	860.800000
1453.709999	850.200000
1455.668499	856.300000
1457.626557	858.600000
1459.584172	875.900000
1461.541346	862.800000
1463.496244	872.100000
1465.452534	834.500000
1467.406550	851.100000
1469.360126	880.900000
1471.311429	876.800000
1473.264124	839.400000
1475.214548	831.500000
1477.164533	876.100000
1479.114078	880.600000
1481.061355	897.400000
1483.006365	853.100000
1484.952766	841.300000
1486.898731	860.800000
1488.844257	883.000000
1490.787519	857.100000
1492.730344	889.500000
1494.670906	880.600000
1496.612859	858.800000
1498.552551	890.200000
1500.491807	870.600000
1502.430628	885.600000
1504.367190	858.500000
1506.305143	870.000000
1508.240838	906.000000
1510.176099	899.600000
1512.109103	895.400000
1514.041675	896.600000
1515.973815	921.500000
1517.905523	914.100000
1519.834977	921.700000
1521.765822	928.300000
1523.696236	955.700000
1525.622576	932.700000
1527.550308	965.900000
1529.475789	988.100000
1531.400841	985.500000
1533.325464	1010.900000
1535.249658	1022.900000
1537.171605	1033.100000
1539.094941	1054.900000
1541.016032	1105.200000
1542.934878	1102.600000
1544.855114	1179.700000
1546.773106	1196.300000
1548.690672	1209.500000
1550.605996	1275.000000
1552.522710	1332.400000
1554.435369	1454.000000
1556.351232	1507.100000
1558.264855	1529.500000
1560.176241	1594.200000
1562.089015	1612.900000
1563.997740	1647.700000
1565.907855	1706.200000
1567.817546	1741.900000
1569.726813	1786.400000
1571.633847	1764.300000
1573.538648	1747.600000
1575.444838	1773.900000
1577.348796	1715.000000
1579.252334	1672.700000
1581.155450	1618.200000
1583.056338	1613.600000
1584.958613	1543.700000
1586.858661	1503.500000
1588.760096	1479.700000
1590.657498	1463.800000
1592.554481	1444.300000
1594.451046	1389.200000
1596.348999	1366.300000
1598.241117	1348.800000
1600.136428	1307.100000
1602.031322	1304.700000
1603.923994	1287.200000
1605.816250	1251.700000
1607.706286	1267.600000
1609.595906	1248.900000
1611.485110	1191.300000
1613.373900	1162.400000
1615.260473	1168.900000
1617.148432	1097.200000
1619.032375	1055.300000
1620.917706	1021.200000
1622.802622	972.900000
1624.685326	935.700000
1626.569415	943.200000
1628.449494	893.200000
1630.330959	904.100000
1632.210214	876.400000
1634.090855	848.200000
1635.965692	840.000000
1637.845511	828.100000
1639.721324	800.200000
1641.596727	774.300000
1643.473517	771.700000
1645.344509	782.000000
1647.218683	785.100000
1649.088859	770.500000
1650.962215	771.400000
1652.833368	738.000000
1654.702319	756.900000
1656.572656	763.400000
1658.438999	750.000000
1660.306728	731.500000
1662.172259	752.000000
1664.039174	729.900000
1665.902101	722.900000
1667.766413	696.600000
1669.628529	704.400000
1671.490241	710.400000
1673.353337	689.500000
1675.214239	696.800000
1677.072947	703.600000
1678.931252	721.900000
1680.790942	683.500000
1682.644865	689.900000
1684.501960	670.900000
1686.358653	712.200000
1688.211370	700.100000
1690.067258	684.200000
1691.919171	694.700000
1693.770684	702.500000
1695.621796	706.300000
1697.472508	695.000000
1699.322819	710.500000
1701.170946	664.000000
1703.020456	685.300000
1704.864218	655.100000
1706.712929	697.500000
1708.555895	671.200000
1710.402026	672.000000
1712.244196	653.900000
1714.089530	663.400000
1715.929124	681.000000
1717.770102	641.700000
1719.612463	675.000000
1721.450868	688.600000
1723.290656	684.500000
1725.128269	668.500000
1726.965486	663.100000
1728.800530	676.500000
1730.636957	686.100000
1732.471212	668.000000
1734.305072	679.600000
1736.138539	664.000000
1737.968059	658.700000
1739.800738	709.700000
1741.629473	645.900000
1743.461366	663.200000
1745.289316	658.400000
1747.116874	645.400000
1748.944040	651.900000
1750.770815	659.400000
1752.597199	651.600000
1754.419646	636.900000
1756.245247	644.600000
1758.066914	667.100000
1759.889963	659.400000
1761.710851	645.500000
1763.531349	658.800000
1765.353229	632.600000
1767.169409	647.700000
1768.988741	655.900000
1770.804146	660.400000
1772.622701	640.000000
1774.437331	649.900000
1776.251575	644.200000
1778.065431	661.300000
1779.878901	653.600000
1781.690218	631.300000
1783.502916	638.400000
1785.315227	652.300000
1787.123621	631.200000
1788.933396	632.100000
1790.739255	632.300000
1792.548260	637.600000
1794.353352	643.500000
1796.159825	642.800000
1797.965914	657.600000
1799.768093	674.100000
1801.573415	642.600000
1803.374829	650.300000
1805.177623	644.500000
1806.976511	628.600000
1808.776780	615.600000
1810.576667	634.800000
1812.374413	653.000000
1814.171777	669.600000
1815.968762	649.300000
1817.765366	633.500000
1819.559831	620.400000
1821.355675	636.300000
1823.145865	634.200000
1824.940951	644.700000
1826.730384	663.000000
1828.522954	627.500000
1830.313389	628.100000
1832.101690	639.600000
1833.893126	614.500000
1835.678916	663.300000
1837.466086	633.100000
1839.251124	630.600000
1841.039296	664.500000
1842.823582	658.700000
1844.605739	642.700000
1846.389274	662.600000
1848.170681	639.200000
1849.953467	643.500000
1851.732373	606.900000
1853.512657	631.400000
1855.290815	641.200000
1857.070352	616.500000
1858.847764	637.900000
1860.623052	647.200000
1862.399719	655.800000
1864.174262	630.900000
1865.950184	662.400000
1867.720486	653.500000
1869.493914	644.900000
1871.265223	637.600000
1873.036162	617.100000
1874.808477	626.600000
1876.575180	642.000000
1878.345007	638.900000
1880.110971	622.300000
1881.880059	644.000000
1883.645285	635.800000
1885.410142	654.900000
1887.176377	653.800000
1888.938753	635.400000
1890.700762	630.800000
1892.462403	643.600000
1894.223678	650.800000
1895.984585	623.000000
1897.745126	635.000000
1899.503557	626.800000
1901.261623	607.800000
1903.017580	636.600000
1904.774915	634.900000
1906.531883	624.100000
1908.286746	642.100000
1910.039503	644.600000
1911.791897	632.100000
1913.545666	634.100000
1915.297332	601.700000
1917.046896	614.200000
1918.797836	627.000000
1920.548412	635.600000
1922.295149	646.000000
1924.043263	640.000000
1925.789277	621.300000
1927.536667	635.400000
1929.281958	635.800000
1931.025152	642.400000
1932.769722	637.500000
1934.512195	630.000000
1936.254308	643.300000
1937.996061	612.800000
1939.737455	619.500000
1941.476755	633.200000
1943.215695	637.400000
1944.954278	617.900000
1946.690768	633.200000
1948.426901	640.050000
1950.164408	646.900000
1951.898093	635.000000
1953.633153	645.000000
1955.366125	661.500000
1957.098740	630.400000
1958.830998	634.100000
1960.562900	641.900000
1962.292716	631.600000
1964.020448	642.800000
1965.749553	664.000000
1967.478304	647.500000
1969.204971	641.300000
1970.931284	645.400000
1972.658970	646.000000
1974.381120	641.800000
1976.106371	655.300000
1977.827816	675.800000
1979.552360	653.500000
1981.274825	645.700000
1982.993486	655.200000
1984.715246	683.300000
1986.433204	643.700000
1988.152535	657.500000
1989.868067	634.000000
1991.588420	653.400000
1993.304973	646.000000
1995.017731	652.700000
1996.733584	654.900000
1998.447364	669.900000
2000.160795	665.800000
2001.872155	641.400000
2003.584888	632.500000
2005.293829	682.400000
2007.005864	657.700000
2008.712389	634.300000
2010.422007	688.900000
2012.129557	660.400000
2013.836760	656.500000
2015.541897	691.900000
2017.246687	659.900000
2018.952849	654.900000
2020.655229	666.200000
2022.358981	671.700000
2024.060669	662.400000
2025.762013	675.600000
2027.463011	687.700000
2029.161949	653.400000
2030.862257	671.700000
2032.558791	675.000000
2034.256696	659.300000
2035.952542	663.600000
2037.651474	657.700000
2039.344920	667.600000
2041.039738	661.000000
2042.734212	673.300000
2044.424918	665.900000
2046.118708	666.700000
2047.808731	637.900000
2049.500125	642.800000
2051.189466	656.200000
2052.880177	658.700000
2054.567126	661.100000
2056.253734	647.100000
2057.941713	649.300000
2059.625932	691.900000
2061.311521	644.700000
2062.996771	664.500000
2064.679973	643.400000
2066.364544	651.500000
2068.043653	645.700000
2069.727547	653.200000
2071.405981	637.700000
2073.087491	629.400000
2074.765251	633.500000
2076.442673	671.600000
2078.121466	640.400000
2079.798215	649.300000
2081.472923	651.100000
2083.149000	647.200000
2084.823037	643.800000
2086.496738	646.600000
2088.170104	630.700000
2089.841432	640.300000
2091.512425	635.100000
2093.183084	660.800000
2094.853408	641.600000
2096.523399	651.700000
2098.191354	661.000000
2099.858976	642.900000
2101.524564	639.500000
2103.191520	663.900000
2104.856442	644.800000
2106.521033	650.300000
2108.183592	640.400000
2109.847519	648.200000
2111.509416	657.700000
2113.170981	669.200000
2114.832215	660.000000
2116.491421	639.900000
2118.150297	639.700000
2119.808842	685.300000
2121.467058	672.700000
2123.121550	667.000000
2124.779107	645.300000
2126.436335	658.800000
2128.089841	668.900000
2129.744715	651.800000
2131.395871	650.500000
2133.050088	665.900000
2134.700589	692.000000
2136.352456	674.600000
2137.998915	635.400000
2139.650129	667.200000
2141.297629	663.700000
2142.946496	646.700000
2144.593345	659.900000
2146.239867	662.500000
2147.886064	669.200000
2149.528553	654.900000
2151.174100	664.400000
2152.815940	710.300000
2154.460837	672.900000
2156.102029	641.600000
2157.742897	675.000000
2159.383441	671.400000
2161.021974	662.600000
2162.661872	650.200000
2164.298070	671.100000
2165.935634	651.800000
2167.572875	646.100000
2169.208107	645.900000
2170.843018	657.200000
2172.477607	642.200000
2174.111874	662.500000
2175.742449	650.500000
2177.376074	656.500000
2179.006008	634.000000
2180.637307	673.500000
2182.266602	669.100000
2183.895576	634.900000
2185.524232	648.900000
2187.152568	641.300000
2188.778901	641.600000
2190.404916	659.800000
2192.028930	647.900000
2193.654308	634.100000
2195.277687	654.000000
2196.902429	665.600000
2198.523491	638.100000
2200.144236	637.100000
2201.766346	654.100000
2203.386458	649.500000
2205.004573	651.900000
2206.622373	642.400000
2208.239858	669.000000
2209.857027	631.400000
2211.473881	638.200000
2213.090420	663.300000
2214.704965	667.600000
2216.317518	647.800000
2217.931435	643.300000
2219.543361	680.500000
2221.156650	652.500000
2222.767949	643.000000
2224.377258	638.200000
2225.987931	655.100000
2227.596615	654.900000
2229.204987	661.300000
2230.811371	638.100000
2232.419119	644.900000
2234.024880	645.500000
2235.630330	634.500000
2237.233795	641.000000
2238.838624	644.800000
2240.441468	657.900000
2242.042329	650.100000
2243.644553	633.800000
2245.244794	649.700000
2246.846398	660.100000
2248.444350	654.500000
2250.043664	650.300000
2251.640998	656.400000
2253.238023	652.700000
2254.836411	657.900000
2256.431150	628.200000
2258.023912	669.700000
2259.618037	632.600000
2261.213523	633.800000
2262.805365	641.000000
2264.396900	660.700000
2265.989796	681.500000
2267.577383	626.800000
2269.169667	644.500000
2270.756643	644.800000
2272.346648	645.000000
2273.931348	620.700000
2275.520742	652.700000
2277.104833	652.500000
2278.690286	621.100000
2280.273769	660.200000
2281.860279	617.300000
2283.443155	642.100000
2285.025727	612.300000
2286.607996	630.300000
2288.186636	632.700000
2289.768299	618.200000
2291.346334	634.500000
2292.927392	643.800000
2294.504824	639.400000
2296.080291	635.000000
2297.658781	641.000000
2299.233647	630.700000
2300.808212	619.400000
2302.382477	622.400000
2303.956441	637.100000
2305.530105	615.500000
2307.103468	636.700000
2308.673213	645.800000
2310.242659	620.400000
2311.815124	650.300000
2313.382313	617.100000
2314.952521	636.900000
2316.519114	676.900000
2318.087067	630.800000
2319.653065	669.200000
2321.218764	658.000000
2322.784167	644.100000
2324.347616	694.700000
2325.912423	702.700000
2327.473623	751.900000
2329.037837	812.300000
2330.596790	868.100000
2332.158756	788.100000
2333.718772	714.700000
2335.278492	631.900000
2336.836263	654.800000
2338.393740	659.100000
2339.950921	669.100000
2341.506156	646.600000
2343.061096	638.100000
2344.615743	638.200000
2346.170096	637.800000
2347.724155	650.000000
2349.277920	646.100000
2350.829742	639.100000
2352.379620	611.700000
2353.932506	655.200000
2355.480150	661.300000
2357.030801	633.400000
2358.577862	640.900000
2360.126280	647.600000
2361.674406	644.800000
2363.218944	639.100000
2364.764841	662.600000
2366.308798	636.900000
2367.854113	656.000000
2369.395843	647.700000
2370.938930	643.500000
2372.480082	633.900000
2374.020944	668.800000
2375.561517	666.700000
2377.101801	636.600000
2378.641796	639.600000
2380.178212	663.600000
2381.717630	634.200000
2383.253471	664.900000
2384.790668	653.600000
2386.324290	650.300000
2387.860913	670.200000
2389.395604	656.000000
2390.928366	684.000000
2392.460842	684.300000
2393.991389	656.200000
2395.524934	682.400000
2397.053268	660.300000
2398.582958	646.800000
2400.112363	681.600000
2401.641482	686.300000
2403.170317	679.400000
2404.693946	672.800000
2406.222212	679.600000
2407.745274	660.500000
2409.272970	688.500000
2410.793827	670.300000
2412.319317	677.900000
2413.841246	680.500000
2415.364531	670.700000
2416.885895	672.300000
2418.405339	675.500000
2419.926138	676.900000
2421.445018	697.400000
2422.963616	691.400000
2424.480297	674.600000
2425.998332	659.700000
2427.516086	716.900000
2429.030289	685.600000
2430.544211	683.700000
2432.057853	680.000000
2433.572850	707.300000
2435.084298	700.000000
2436.597101	686.900000
2438.107991	697.200000
2439.618601	695.200000
2441.127300	681.900000
2442.638986	684.800000
2444.147127	698.900000
2445.654991	677.700000
2447.162577	698.600000
2448.666622	690.500000
2450.173653	675.200000
2451.678775	684.300000
2453.183620	698.600000
2454.686558	670.000000
2456.189219	669.500000
2457.691604	671.400000
2459.192084	660.100000
2460.693917	681.800000
2462.193846	664.600000
2463.693499	662.500000
2465.192876	693.300000
2466.690351	690.600000
2468.185925	647.900000
2469.684478	668.800000
2471.179502	696.100000
2472.675880	686.900000
2474.168731	667.800000
2475.662934	654.100000
2477.156864	673.100000
2478.647271	665.500000
2480.140654	661.600000
2481.632140	678.700000
2483.121729	674.300000
2484.611046	649.800000
2486.098468	680.700000
2487.588865	664.500000
2489.075743	675.200000
2490.563973	663.300000
2492.048687	664.300000
2493.533130	652.400000
2495.018925	642.400000
2496.502827	664.900000
2497.988081	637.500000
2499.468201	685.900000
2500.951293	673.000000
2502.432495	657.600000
2503.913428	675.100000
2505.392472	662.500000
2506.871247	666.000000
2508.349754	667.100000
2509.827993	654.800000
2511.305963	676.200000
2512.780429	641.700000
2514.257863	650.300000
2515.731794	680.000000
2517.207076	649.500000
2518.682090	646.800000
2520.153603	637.700000
2521.626466	654.600000
2523.097447	652.300000
2524.569778	682.000000
2526.036996	651.100000
2527.507179	665.300000
2528.975482	662.500000
2530.443520	656.900000
2531.911293	650.600000
2533.378801	679.300000
2534.846044	663.000000
2536.309795	665.200000
2537.774896	691.600000
2539.238120	676.800000
2540.702694	680.500000
2542.163778	697.100000
2543.626212	677.500000
2545.088383	659.000000
2546.547068	660.400000
2548.010325	684.800000
2549.468485	675.700000
2550.927994	670.500000
2552.382410	695.800000
2553.841395	675.100000
2555.298509	672.800000
2556.753752	658.900000
2558.208734	661.800000
2559.661846	675.600000
2561.116307	691.400000
2562.568899	674.800000
2564.021231	665.600000
2565.471695	679.600000
2566.925115	661.600000
2568.373453	672.000000
2569.824747	681.600000
2571.274174	671.200000
2572.720130	667.600000
2574.169040	682.900000
2575.614479	710.200000
2577.061267	695.700000
2578.506191	697.000000
2579.950858	683.900000
2581.396872	694.400000
2582.839419	704.300000
2584.283314	706.900000
2585.723744	686.600000
2587.165522	664.400000
2588.605439	683.900000
2590.046704	669.200000
2591.484508	691.400000
2592.925261	699.000000
2594.360951	714.400000
2595.799591	696.900000
2597.236374	674.200000
2598.671300	715.700000
2600.109175	704.400000
2601.541991	711.900000
2602.976155	696.000000
2604.408465	697.700000
2605.842121	711.500000
2607.273924	710.700000
2608.705474	681.900000
2610.136770	722.600000
2611.566214	709.700000
2612.995407	712.000000
2614.422748	697.100000
2615.851436	698.300000
2617.279871	724.400000
2618.704859	751.800000
2620.131194	737.400000
2621.555680	716.100000
2622.981512	735.200000
2624.403900	760.200000
2625.827634	756.400000
2627.249521	725.600000
2628.671159	732.200000
2630.090951	733.000000
2631.512089	764.300000
2632.932977	764.200000
2634.350427	763.100000
2635.770816	798.000000
2637.187768	776.400000
2638.604472	778.200000
2640.020927	782.000000
2641.437134	799.800000
2642.853092	796.800000
2644.267210	821.800000
2645.681081	811.100000
2647.093112	829.300000
2648.506488	797.800000
2649.916434	868.000000
2651.329315	831.500000
2652.738769	861.600000
2654.147976	860.200000
2655.555347	868.100000
2656.965652	864.300000
2658.374121	850.300000
2659.780755	882.800000
2661.187144	880.700000
2662.591699	901.300000
2663.997598	901.100000
2665.401664	872.700000
2666.805486	903.600000
2668.209063	897.200000
2669.610808	916.000000
2671.013897	930.200000
2672.413569	921.300000
2673.814583	906.000000
2675.212182	915.100000
2676.612711	897.700000
2678.009825	895.200000
2679.408282	933.800000
2680.804911	958.600000
2682.201298	904.600000
2683.597444	926.700000
2684.991763	900.400000
2686.387425	903.100000
2687.779677	899.700000
2689.173273	880.200000
2690.565044	893.300000
2691.958157	883.700000
2693.349447	865.600000
2694.738914	874.000000
2696.128141	849.400000
2697.517129	851.000000
2698.907459	869.700000
2700.292804	851.600000
2701.681073	858.000000
2703.067522	806.200000
2704.453732	797.800000
2705.839704	800.200000
2707.222276	814.600000
2708.606191	791.100000
2709.989868	788.300000
2711.373307	797.000000
2712.753350	767.000000
2714.134735	774.200000
2715.514304	793.600000
2716.895215	760.600000
2718.274311	772.800000
2719.651592	756.300000
2721.030215	748.400000
2722.407025	758.700000
2723.783599	748.400000
2725.159937	755.600000
2726.534463	751.700000
2727.910330	719.100000
2729.282810	715.900000
2730.658206	725.300000
2732.028642	728.400000
2733.400419	701.400000
2734.771961	710.000000
2736.141695	677.700000
2737.512770	701.600000
2738.882037	691.200000
2740.251070	715.700000
2741.618296	704.900000
2742.985290	694.900000
2744.352051	674.600000
2745.718579	670.400000
2747.083302	682.900000
2748.447794	668.800000
2749.812053	679.600000
2751.176080	681.200000
2752.539876	679.800000
2753.900298	653.300000
2755.263631	656.900000
2756.622021	670.400000
2757.983321	649.800000
2759.341250	666.900000
2760.702089	672.700000
2762.061127	638.900000
2763.416797	641.600000
2764.775375	651.500000
2766.130587	647.600000
2767.485569	658.400000
2768.838754	660.700000
2770.194846	629.200000
2771.547574	625.000000
2772.900073	600.900000
2774.252344	646.400000
2775.605954	654.100000
2776.956202	645.700000
2778.304657	655.200000
2779.656016	630.900000
2781.004016	623.900000
2782.353355	615.900000
2783.700901	633.100000
2785.048220	617.800000
2786.395313	636.600000
2787.740615	604.200000
2789.085691	641.600000
2790.430541	615.600000
2791.775164	615.900000
2793.116436	625.200000
2794.459046	619.000000
2795.801430	622.400000
2797.143590	634.600000
2798.482400	621.100000
2799.824109	630.600000
2801.162471	633.700000
2802.502170	604.600000
2803.840083	599.900000
2805.176212	591.700000
2806.512117	605.300000
2807.849360	617.800000
2809.184819	603.900000
2810.520055	625.400000
2811.853508	626.800000
2813.188299	603.600000
2814.519748	625.000000
2815.854093	613.900000
2817.183540	620.600000
2818.514324	621.800000
2819.844886	621.300000
2821.173669	587.300000
2822.503788	604.300000
2823.832129	618.400000
2825.160249	610.600000
2826.486592	621.000000
2827.814270	607.800000
2829.138616	613.200000
2830.464297	619.400000
2831.788203	616.100000
2833.111890	610.200000
2834.436912	590.600000
2835.758604	599.200000
2837.080078	635.100000
2838.401333	626.700000
2839.722369	597.300000
2841.041633	592.100000
2842.362232	626.500000
2843.681059	619.700000
2844.999668	626.700000
2846.316506	589.700000
2847.633128	604.000000
2848.949531	595.500000
2850.264166	608.500000
2851.580135	625.200000
2852.892784	596.300000
2854.206769	618.600000
2855.520536	610.900000
2856.834088	576.900000
2858.145872	610.200000
2859.455890	621.500000
2860.767243	636.300000
2862.075281	589.500000
2863.384654	600.200000
2864.693811	609.600000
2866.002753	594.900000
2867.309932	638.000000
2868.615347	598.300000
2869.922097	593.700000
2871.227084	612.400000
2872.531858	596.100000
2873.834870	616.400000
2875.140764	616.100000
2876.441802	627.100000
2877.744175	607.500000
2879.044788	617.800000
2880.346735	607.300000
2881.648469	606.200000
2882.946898	639.000000
2884.246662	618.700000
2885.544667	626.100000
2886.842461	609.800000
2888.138499	621.100000
2889.435870	622.800000
2890.731485	601.600000
2892.026889	616.500000
2893.322083	620.200000
2894.613978	631.000000
2895.908750	638.700000
2897.200225	615.700000
2898.493033	650.700000
2899.785631	644.200000
2901.074935	629.700000
2902.365571	620.900000
2903.654456	634.800000
2904.944674	625.600000
2906.231600	613.000000
2907.519858	608.100000
2908.806366	606.500000
2910.092667	651.500000
2911.378759	629.100000
2912.663103	532.800000
2913.950319	618.000000
2915.232707	596.800000
2916.516428	624.100000
2917.798403	614.700000
2919.080171	634.900000
2920.360193	610.000000
2921.643085	631.900000
2922.924232	596.200000
2924.202097	598.100000
2925.482831	612.900000
2926.760284	616.200000
2928.037531	606.500000
2929.313037	632.100000
2930.591410	626.000000
2931.864968	607.100000
2933.141394	614.100000
2934.416079	580.600000
2935.689024	590.900000
2936.963299	617.400000
2938.235835	607.500000
2939.508167	598.100000
2940.777225	616.300000
2942.049149	617.600000
2943.319335	605.500000
2944.589318	615.400000
2945.859097	619.700000
2947.127139	569.000000
2948.393446	571.900000
2949.659550	608.500000
2950.926984	565.500000
2952.192684	592.600000
2953.458181	568.400000
2954.723476	571.900000
2955.985506	595.600000
2957.248867	587.700000
2958.512025	580.600000
2959.773452	565.300000
2961.036208	595.800000
2962.297233	581.700000
2963.556526	574.800000
2964.815620	563.600000
2966.074513	577.100000
2967.333206	557.100000
2968.591699	573.700000
2969.848463	540.400000
2971.105027	583.800000
2972.359864	550.800000
2973.616030	575.100000
2974.868940	581.800000
2976.123180	598.500000
2977.377221	583.100000
2978.629536	564.100000
2979.881653	589.000000
2981.132045	585.700000
2982.385292	556.500000
2983.633762	562.400000
2984.885086	573.000000
2986.133162	554.700000
2987.381040	558.800000
2988.628721	552.900000
2989.876206	546.600000
2991.121969	554.700000
2992.367535	564.900000
2993.614429	555.000000
2994.858079	554.400000
2996.103057	544.500000
2997.344792	554.800000
2998.589378	550.100000
2999.832244	558.000000
3001.071870	542.500000
3002.314346	545.300000
3003.553583	536.300000
3004.794147	561.900000
3006.032994	542.300000
3007.271647	521.600000
3008.508584	523.400000
3009.746848	554.700000
3010.983398	550.000000
3012.219753	530.200000
3013.455915	550.200000
3014.690364	542.900000
3015.924619	545.700000
3017.158681	527.400000
3018.391031	520.700000
3019.621669	536.300000
3020.855153	547.800000
3022.086925	532.600000
3023.316987	532.400000
3024.546857	523.500000
3025.775017	536.100000
3027.004503	529.800000
3028.232281	532.900000
3029.459867	548.300000
3030.688779	523.900000
3031.912949	509.900000
3033.139962	539.400000
3034.363751	529.400000
3035.588867	532.500000
3036.812276	550.500000
3038.035496	536.400000
3039.257010	542.300000
3040.481365	543.300000
3041.700985	543.200000
3042.921930	551.500000
3044.142687	546.900000
3045.361740	542.000000
3046.582119	525.500000
3047.799281	550.600000
3049.017768	535.400000
3050.234554	546.900000
3051.451151	518.000000
3052.667560	513.100000
3053.880757	530.900000
3055.096791	541.000000
3056.309613	508.700000
3057.525272	539.100000
3058.736208	516.100000
3059.948469	509.700000
3061.160544	519.200000
3062.372432	507.400000
3063.582622	504.800000
3064.792626	533.600000
3066.002445	508.100000
3067.210567	527.200000
3068.418503	514.500000
3069.624745	514.800000
3070.832310	509.900000
3072.038182	503.900000
3073.243868	497.900000
3074.449369	512.300000
3075.653177	517.900000
3076.858309	523.400000
3078.061749	523.900000
3079.263496	509.700000
3080.465060	526.500000
3081.666440	508.800000
3082.867636	513.300000
3084.067142	511.800000
3085.266464	494.400000
3086.467110	505.600000
3087.666066	493.000000
3088.861828	506.500000
3090.060419	546.600000
3091.255816	545.600000
3092.452536	499.200000
3093.646064	515.400000
3094.842421	526.000000
3096.037090	519.500000
3097.228569	521.200000
3098.424379	509.900000
3099.615496	520.200000
3100.807935	524.800000
3101.997187	535.000000
3103.189265	524.100000
3104.379658	515.300000
3105.566866	530.600000
3106.755397	497.200000
3107.945250	512.300000
3109.131918	514.100000
3110.318407	534.100000
3111.504716	516.300000
3112.692347	528.500000
3113.876797	525.700000
3115.059566	494.300000
3116.245159	498.900000
3117.429071	500.600000
3118.611305	491.600000
3119.793360	499.200000
3120.975238	503.700000
3122.156937	515.700000
3123.336958	508.300000
3124.515303	509.900000
3125.696469	503.200000
3126.874459	500.600000
3128.052272	502.200000
3129.229908	477.900000
3130.405869	520.400000
3131.581653	499.200000
3132.758759	501.600000
3133.934190	524.600000
3135.107948	530.200000
3136.280034	522.900000
3137.453440	470.300000
3138.626671	525.200000
3139.798229	487.900000
3140.971109	476.400000
3142.140821	522.100000
3143.311854	519.100000
3144.481216	495.200000
3145.648909	485.500000
3146.819417	485.800000
3147.985266	497.900000
3149.155425	513.400000
3150.320926	482.400000
3151.486254	491.800000
3152.651408	511.900000
3153.816388	495.400000
3154.982689	510.100000
3156.144336	505.100000
3157.307304	516.600000
3158.470098	497.000000
3159.632720	495.000000
3160.793677	510.100000
3161.954461	480.300000
3163.115073	506.400000
3164.274022	494.800000
3165.432798	478.500000
3166.591403	464.100000
3167.749836	492.800000
3168.908097	472.400000
3170.064696	469.900000
3171.219634	476.600000
3172.375891	485.400000
3173.530488	448.500000
3174.684913	491.000000
3175.837679	489.200000
3176.990275	499.000000
3178.142700	468.300000
3179.294956	486.900000
3180.447042	480.500000
3181.595981	491.300000
3182.747727	481.200000
3183.897815	471.600000
3185.046247	481.300000
3186.194510	457.600000
3187.342603	477.100000
3188.490528	463.300000
3189.636798	498.500000
3190.782899	484.900000
3191.927345	495.700000
3193.071624	483.100000
3194.215735	476.100000
3195.361164	489.300000
3196.503453	484.200000
3197.645576	470.100000
3198.787531	491.000000
3199.929320	497.500000
3201.070941	476.600000
3202.209426	444.600000
3203.349229	491.900000
3204.490350	498.000000
3205.628336	484.300000
3206.764673	476.700000
3207.900844	476.300000
3209.038333	478.400000
3210.174173	482.800000
3211.311329	488.700000
3212.443873	478.500000
3213.580699	444.900000
3214.712913	471.300000
3215.846445	481.500000
3216.979811	452.400000
3218.110050	462.900000
3219.243087	493.600000
3220.372998	472.700000
3221.504226	441.500000
3222.632328	486.100000
3223.763227	478.700000
3224.892483	467.400000
3226.020094	458.500000
3227.144584	465.700000
3228.273349	471.000000
3229.398992	463.700000
3230.524472	478.900000
3231.648311	459.100000
3232.774944	445.500000
3233.896980	448.200000
3235.020332	452.900000
3236.143522	459.300000
3237.266550	448.500000
3238.387938	451.800000
3239.509165	468.800000
3240.628753	426.100000
3241.748180	462.500000
3242.865969	442.500000
3243.986551	467.300000
3245.104018	462.800000
3246.221326	457.400000
3247.338472	466.600000
3248.453983	460.000000
3249.570809	475.600000
3250.684524	479.600000
3251.801030	444.500000
3252.915900	441.200000
3254.027662	444.900000
3255.139265	465.600000
3256.252182	460.200000
3257.364941	441.800000
3258.474593	440.400000
3259.585560	452.800000
3260.696367	479.500000
3261.805544	458.300000
3262.913089	440.600000
3264.021949	455.500000
3265.130650	446.700000
3266.236249	456.500000
3267.343162	449.200000
3268.448447	450.800000
3269.555045	459.000000
3270.658543	470.700000
3271.763355	453.800000
3272.868010	447.000000
3273.969566	451.300000
3275.070967	448.400000
3276.173681	454.400000
3277.276238	446.800000
3278.375700	444.200000
3279.477944	469.500000
3280.577094	461.500000
3281.674618	465.500000
3282.771987	448.300000
3283.872139	433.200000
3284.969197	472.800000
3286.066100	462.300000
3287.162849	449.700000
3288.255038	430.600000
3289.351476	434.900000
3290.446293	439.500000
3291.540954	452.200000
3292.633994	439.700000
3293.726880	443.000000
3294.818145	452.500000
3295.910723	457.900000
3297.001680	445.200000
3298.091018	436.500000
3299.180203	432.600000
3300.270701	442.100000
3301.358114	423.500000
3302.445375	465.300000
3303.533948	433.700000
3304.622368	449.600000
3305.706241	448.700000
3306.794356	424.100000
3307.879390	441.300000
3308.962807	467.800000
3310.047537	426.200000
3311.130652	464.200000
3312.215078	455.400000
3313.296426	421.900000
3314.379086	459.800000
3315.460132	431.300000
3316.541027	437.000000
3317.620309	418.200000
3318.699440	424.100000
3319.779882	429.700000
3320.857251	435.800000
3321.935931	434.100000
3323.012999	447.300000
3324.089917	429.800000
3325.165224	442.000000
3326.240382	429.400000
3327.316851	429.000000
3328.390250	420.000000
3329.463500	432.000000
3330.538061	443.700000
3331.611012	433.500000
3332.682356	455.800000
3333.755010	448.700000
3334.824597	440.600000
3335.895495	439.200000
3336.964786	436.000000
3338.035388	445.400000
3339.104383	444.400000
3340.171772	428.700000
3341.237556	406.900000
3342.307566	404.800000
3343.374513	414.800000
3344.438398	431.400000
3345.505051	438.900000
3346.570099	438.200000
3347.633545	435.700000
3348.696843	429.700000
3349.759996	402.400000
3350.823002	401.200000
3351.885861	429.100000
3352.947119	410.800000
3354.005320	416.600000
3355.067742	426.100000
3356.127107	409.500000
3357.186327	440.800000
3358.246857	416.600000
3359.302877	406.600000
3360.361662	422.800000
3361.415939	415.800000
3362.472979	402.700000
3363.528422	442.100000
3364.585173	435.200000
3365.640327	426.400000
3366.693883	443.200000
3367.745842	421.300000
3368.800563	425.400000
3369.852235	429.800000
3370.903764	416.800000
3371.956602	438.000000
3373.006392	406.700000
3374.057490	410.300000
3375.105543	437.700000
3376.156356	428.600000
3377.204123	444.500000
3378.251748	442.600000
3379.299230	434.800000
3380.345120	430.600000
3381.392318	419.200000
3382.436474	413.700000
3383.483388	416.700000
3384.528710	418.400000
3385.570992	417.400000
3386.613132	438.900000
3387.656580	412.700000
3388.699888	407.700000
3389.741605	424.600000
3390.783181	436.700000
3391.824617	441.900000
3392.864463	418.600000
3393.902722	409.400000
3394.942288	443.600000
3395.981713	434.400000
3397.019551	438.700000
3398.055803	405.000000
3399.091914	408.100000
3400.129333	423.900000
3401.163719	408.500000
3402.199412	403.700000
3403.234966	428.300000
3404.267489	416.300000
3405.302765	415.700000
3406.335010	426.000000
3407.367117	399.800000
3408.397640	410.200000
3409.429471	423.200000
3410.461162	399.200000
3411.489827	434.700000
3412.518353	422.000000
3413.548187	411.400000
3414.577882	417.900000
3415.604552	417.600000
3416.632529	424.400000
3417.657481	396.100000
3418.685183	413.300000
3419.709862	429.500000
3420.735847	410.300000
3421.760252	418.500000
3422.784521	420.700000
3423.807211	413.900000
3424.829765	394.500000
3425.853625	423.400000
3426.874465	396.300000
3427.895170	424.200000
3428.917180	410.800000
3429.936172	421.100000
3430.955029	399.800000
3431.975191	422.600000
3432.992337	405.300000
