-116.264276	8.540000
-113.594676	-0.360000
-110.928011	4.960000
-108.262098	3.420000
-105.599117	11.290000
-102.934707	12.540000
-100.273227	6.040000
-97.610317	15.610000
-94.952515	6.950000
-92.293282	11.790000
-89.634798	8.060000
-86.979239	10.660000
-84.322251	12.150000
-81.670360	11.500000
-79.017040	10.550000
-76.366640	10.820000
-73.714810	11.050000
-71.068071	5.080000
-68.419902	12.900000
-65.772477	9.570000
-63.127965	15.200000
-60.482025	11.670000
-57.841166	10.940000
-55.198878	17.760000
-52.559498	17.360000
-49.918690	14.620000
-47.278622	19.390000
-44.643626	13.360000
-42.007201	20.460000
-39.373680	20.260000
-36.738730	28.290000
-34.108845	34.470000
-31.475368	33.730000
-28.846953	37.430000
-26.219271	43.940000
-23.590162	58.980000
-20.966109	68.450000
-18.338467	96.830000
-15.715878	123.510000
-13.094020	214.470000
-10.472894	426.600000
-7.852497	1093.520000
-5.234988	4005.760000
-2.616051	12834.950000
0.000000	32460.610000
2.615323	38830.400000
5.229919	25223.090000
7.841632	2569.960000
10.454774	334.430000
13.062882	179.080000
15.674572	122.100000
18.281231	95.310000
20.889318	74.110000
23.496681	71.850000
26.099019	58.630000
28.704935	50.300000
31.305829	42.730000
33.908152	31.550000
36.505456	25.580000
39.106336	26.610000
41.702202	26.130000
44.299495	23.500000
46.896069	25.670000
49.487634	25.430000
52.080627	19.730000
54.670759	24.350000
57.262319	16.310000
59.851019	12.900000
62.441146	14.940000
65.026275	14.850000
67.612831	18.910000
70.198672	15.450000
72.781660	11.760000
75.366075	10.560000
77.943360	15.350000
80.524212	11.890000
83.102215	12.160000
85.679508	12.170000
88.258227	10.000000
90.831965	7.660000
93.407129	12.000000
95.979450	12.140000
98.551063	15.860000
101.119837	8.300000
103.690036	9.960000
106.257398	12.920000
108.826186	13.890000
111.392136	16.960000
113.955252	12.380000
116.521924	19.530000
119.079375	23.750000
121.642511	30.400000
124.200688	32.990000
126.762418	54.870000
129.319193	70.650000
131.877393	100.630000
134.430641	136.220000
136.983190	196.150000
139.539290	282.160000
142.090443	352.340000
144.640897	389.550000
147.190655	414.940000
149.737593	439.550000
152.283835	465.340000
154.831503	474.300000
157.378476	477.100000
159.920512	459.940000
162.461855	451.600000
165.002505	461.530000
167.544581	452.140000
170.083846	448.980000
172.620301	453.580000
175.156066	458.010000
177.693256	444.960000
180.229754	438.140000
182.763447	443.580000
185.294337	440.890000
187.824538	443.000000
190.356164	445.270000
192.884989	438.780000
195.411015	439.850000
197.936356	429.960000
200.463121	435.560000
202.987089	437.480000
205.510373	447.110000
208.032972	442.250000
210.552778	439.700000
213.071901	442.390000
215.590341	433.900000
218.110205	440.960000
220.623068	444.150000
223.139462	442.460000
225.655174	443.380000
228.165997	449.390000
230.678244	453.770000
233.187708	454.340000
235.696494	454.020000
238.204602	457.330000
240.714133	456.830000
243.218785	464.860000
245.722760	459.790000
248.228159	466.470000
250.728683	459.170000
253.232730	464.210000
255.729807	475.580000
258.230406	476.470000
260.728234	479.970000
263.225389	482.010000
265.721871	485.100000
268.213490	491.140000
270.708629	488.830000
273.201002	493.400000
275.692704	496.960000
278.181643	500.140000
280.672005	494.960000
283.159606	497.780000
285.644447	502.950000
288.132802	503.840000
290.614218	506.310000
293.099148	507.080000
295.579233	505.850000
298.062830	511.660000
300.541584	518.680000
303.021762	518.860000
305.499187	530.230000
307.975949	525.020000
310.452048	540.710000
312.925398	556.420000
315.398086	581.220000
317.870113	630.670000
320.341479	690.390000
322.810101	736.290000
325.278063	730.700000
327.747448	664.700000
330.212010	608.660000
332.680075	589.110000
335.143321	577.480000
337.605910	575.100000
340.067841	567.610000
342.529116	564.460000
344.987657	570.390000
347.447620	566.890000
349.904850	565.530000
352.361426	572.770000
354.817348	566.100000
357.270541	574.130000
359.725155	576.890000
362.174968	564.420000
364.628278	567.950000
367.076788	571.890000
369.524648	568.100000
371.973929	576.220000
374.418417	568.710000
376.864327	568.590000
379.309588	568.970000
381.752130	572.930000
384.194024	569.450000
386.635270	573.930000
389.073801	568.180000
391.513754	572.360000
393.950993	566.900000
396.385520	562.200000
398.823535	570.570000
401.256773	570.440000
403.691433	568.150000
406.121319	570.280000
408.554691	573.710000
410.983293	568.860000
413.411254	574.740000
415.840635	576.980000
418.265251	578.740000
420.691289	577.840000
423.116686	580.520000
425.541443	571.930000
427.961442	578.100000
430.382862	583.070000
432.801585	576.870000
435.221729	585.700000
437.639178	581.040000
440.058047	591.580000
442.474223	585.050000
444.885652	581.970000
447.300557	585.510000
449.712772	576.280000
452.124353	579.110000
454.535300	576.400000
456.943561	563.310000
459.351189	576.950000
461.758186	563.630000
464.164550	550.170000
466.568232	556.740000
468.971284	552.890000
471.373706	545.960000
473.775499	540.680000
476.174613	536.740000
478.575147	531.670000
480.975052	539.540000
483.370234	540.490000
485.768883	552.720000
488.162812	549.780000
490.556115	544.970000
492.948792	537.910000
495.340844	516.170000
497.734315	503.090000
500.123073	480.550000
502.509165	455.330000
504.896677	442.380000
507.283565	419.310000
509.667790	398.550000
512.053434	401.640000
514.436415	376.690000
516.816736	366.420000
519.198476	352.070000
521.577557	344.820000
523.958057	336.190000
526.335899	326.840000
528.711086	330.310000
531.085655	321.850000
533.461643	320.560000
535.834977	317.390000
538.209729	313.270000
540.579796	311.020000
542.949247	310.520000
545.320116	305.150000
547.686305	291.590000
550.053912	297.640000
552.418873	297.180000
554.783221	296.740000
557.146957	294.050000
559.512110	300.660000
561.872590	293.560000
564.234489	291.500000
566.593748	283.880000
568.950368	285.890000
571.310433	281.370000
573.663808	285.690000
576.020627	272.050000
578.374810	278.290000
580.728386	276.290000
583.081353	274.600000
585.431689	274.220000
587.783441	272.900000
590.128517	269.860000
592.479057	265.460000
594.822924	272.470000
597.172251	272.180000
599.516931	274.570000
601.858985	273.560000
604.202457	267.270000
606.543306	259.050000
608.883553	271.110000
611.221179	265.580000
613.562240	256.340000
615.898664	258.690000
618.236504	255.080000
620.571726	249.470000
622.904333	246.250000
625.238356	244.410000
627.569766	247.500000
629.900577	245.880000
632.230790	240.520000
634.560405	239.110000
636.885398	243.030000
639.215832	237.390000
641.541644	246.060000
643.864850	238.380000
646.189471	232.510000
648.511488	230.880000
650.832910	235.870000
653.151729	231.930000
655.471964	227.630000
657.791606	235.460000
660.108647	226.750000
662.425096	234.730000
664.738948	224.910000
667.054214	220.760000
669.366884	222.660000
671.680969	218.870000
673.990454	216.880000
676.301355	220.850000
678.609663	226.210000
680.917383	220.310000
683.226518	225.090000
685.531060	217.450000
687.835015	211.750000
690.138385	217.050000
692.443169	217.450000
694.743367	213.490000
697.044979	209.980000
699.346007	208.900000
701.642452	208.330000
703.940313	205.320000
706.237590	206.490000
708.534284	207.930000
710.826402	206.420000
713.121931	205.400000
715.412887	207.390000
717.705257	205.610000
719.995051	202.410000
722.284266	204.260000
724.572900	206.160000
726.858963	209.490000
729.146439	210.060000
731.431345	210.850000
733.715672	209.280000
735.997431	213.900000
738.280604	216.420000
740.563200	217.360000
742.841241	217.240000
745.120695	219.040000
747.399574	213.450000
749.677877	217.410000
751.951631	220.340000
754.226799	211.820000
756.501393	221.170000
758.773428	217.720000
761.046875	221.500000
763.317765	222.670000
765.586099	225.880000
767.855846	219.530000
770.123039	225.230000
772.389661	229.770000
774.655714	235.630000
776.919214	237.660000
779.184128	240.400000
781.448472	243.310000
783.708287	242.030000
785.969515	241.860000
788.230175	241.250000
790.488288	238.800000
792.743857	239.480000
795.002817	241.160000
797.255278	240.050000
799.513106	240.390000
801.766414	238.500000
804.017183	228.150000
806.269364	232.720000
808.519007	232.520000
810.770061	231.580000
813.016604	225.640000
815.264559	225.740000
817.509980	228.270000
819.756812	220.660000
822.003083	215.810000
824.244850	216.600000
826.489999	215.430000
828.728676	216.250000
830.970736	209.620000
833.208297	214.490000
835.447269	211.540000
837.683715	204.880000
839.921572	205.590000
842.156905	205.960000
844.389713	203.430000
846.623933	203.770000
848.855631	204.890000
851.086774	192.200000
853.317362	199.060000
855.547396	195.310000
857.776875	190.240000
860.001873	197.570000
862.230246	195.760000
864.454140	195.540000
866.679444	197.830000
868.900273	199.520000
871.124474	201.950000
873.344202	201.510000
875.565341	203.910000
877.785929	205.840000
880.004007	207.560000
882.223496	204.260000
884.438518	200.910000
886.652992	205.320000
888.866919	203.740000
891.080298	204.280000
893.293130	200.350000
895.505416	200.900000
897.715199	202.210000
899.924437	200.730000
902.133130	204.090000
904.339324	202.560000
906.546927	199.660000
908.752033	196.430000
910.956595	200.770000
913.158661	192.220000
915.362137	194.380000
917.563119	202.140000
919.763560	196.450000
921.965409	199.860000
924.160866	197.170000
926.359683	196.510000
928.554062	201.370000
930.751797	193.810000
932.945097	197.670000
935.139806	203.100000
937.332029	200.920000
939.523714	200.550000
941.714861	205.090000
943.903525	205.280000
946.091652	212.510000
948.277299	208.340000
950.466298	209.870000
952.650874	217.810000
954.834915	221.430000
957.022306	221.940000
959.201393	229.630000
961.383831	228.640000
963.565735	229.310000
965.745165	232.070000
967.922122	241.370000
970.100486	250.900000
972.280258	246.290000
974.453681	255.920000
976.630450	257.770000
978.802813	256.380000
980.976582	253.800000
983.145948	261.970000
985.318659	267.630000
987.488903	268.300000
989.658619	265.210000
991.827806	274.760000
993.992596	275.800000
996.160727	276.670000
998.324464	276.550000
1000.489607	280.520000
1002.652292	284.650000
1004.814450	282.830000
1006.974152	293.220000
1009.133330	288.770000
1011.293914	294.650000
1013.452043	300.440000
1015.609648	300.650000
1017.766730	297.690000
1019.923289	299.000000
1022.075468	308.570000
1024.229053	303.530000
1026.382117	311.490000
1028.532733	311.140000
1030.684754	314.180000
1032.832402	318.830000
1034.983382	320.200000
1037.129991	322.020000
1039.276082	325.950000
1041.421653	331.380000
1043.568630	335.120000
1045.709319	337.050000
1047.853336	335.620000
1049.994913	342.360000
1052.135974	344.760000
1054.278439	348.000000
1056.414625	343.540000
1058.554137	352.980000
1060.689293	337.900000
1062.827774	348.160000
1064.961901	346.320000
1067.095515	346.160000
1069.230534	341.940000
1071.361203	335.440000
1073.493277	330.150000
1075.622922	332.290000
1077.752055	323.470000
1079.880676	323.000000
1082.008786	312.560000
1084.134470	312.320000
1086.259644	309.560000
1088.386222	295.960000
1090.508463	298.380000
1092.632107	297.440000
1094.751418	286.080000
1096.875957	290.000000
1098.994251	285.970000
1101.113950	277.420000
1103.231230	279.800000
1105.348004	273.240000
1107.464271	272.120000
1109.578123	268.040000
1111.693378	260.240000
1113.804311	274.140000
1115.918555	256.220000
1118.028479	261.080000
1120.139807	255.390000
1122.250630	256.950000
1124.357138	251.630000
1126.466954	249.630000
1128.572456	248.510000
1130.679361	246.890000
1132.780051	250.700000
1134.885953	241.940000
1136.987546	244.560000
1139.090542	242.280000
1141.193037	235.320000
1143.289325	246.620000
1145.390821	235.230000
1147.488014	238.020000
1149.584708	229.800000
1151.680904	232.250000
1153.776603	233.480000
1155.871804	235.760000
1157.964608	232.700000
1160.058814	232.920000
1162.146829	225.820000
1164.240042	226.060000
1166.327067	228.570000
1168.417391	224.290000
1170.503428	221.990000
1172.592762	225.420000
1174.675915	227.140000
1176.760471	226.980000
1178.846427	226.730000
1180.928102	222.390000
1183.011179	224.250000
1185.091870	223.040000
1187.172069	213.940000
1189.251777	218.580000
1191.330994	218.630000
1193.407829	218.140000
1195.482283	215.400000
1197.560029	213.340000
1199.633504	217.080000
1201.708380	221.580000
1203.778989	211.890000
1205.851000	219.020000
1207.920634	210.260000
1209.991669	218.020000
1212.062216	211.590000
1214.128502	210.390000
1216.196189	205.690000
1218.261504	201.770000
1220.328219	200.530000
1222.390678	199.190000
1224.456422	200.490000
1226.517913	205.730000
1228.580803	201.590000
1230.641326	201.330000
1232.701365	199.550000
1234.760922	199.810000
1236.818113	196.890000
1238.874823	199.440000
1240.929170	196.080000
1242.986797	188.590000
1245.042062	198.280000
1247.093086	191.540000
1249.145510	192.850000
1251.197454	192.860000
1253.247040	193.300000
1255.296147	187.470000
1257.344776	197.070000
1259.392926	187.450000
1261.440598	189.830000
1263.484039	183.240000
1265.530755	179.160000
1267.575118	188.920000
1269.619005	183.160000
1271.660541	184.600000
1273.699727	175.020000
1275.742185	185.440000
1277.780421	184.880000
1279.820056	181.840000
1281.859216	180.540000
1283.894157	174.950000
1285.930498	178.390000
1287.964493	180.020000
1289.999887	179.380000
1292.031067	176.360000
1294.063646	176.640000
1296.095752	175.880000
1298.125518	175.840000
1300.156682	180.480000
1302.183638	176.470000
1304.211992	176.490000
1306.236142	181.820000
1308.263556	176.470000
1310.286768	177.830000
1312.311378	176.550000
1314.333654	174.540000
1316.357327	176.340000
1318.378667	180.380000
1320.399539	175.780000
1322.419945	176.200000
1324.436156	173.120000
1326.453766	171.740000
1328.469047	169.830000
1330.487586	168.350000
1332.501937	169.560000
1334.513962	167.710000
1336.529244	168.190000
1338.540341	166.720000
1340.552835	165.680000
1342.561146	168.360000
1344.572713	172.920000
1346.578240	166.370000
1348.587023	171.010000
1350.591628	171.140000
1352.599487	172.500000
1354.606884	173.220000
1356.608250	175.530000
1358.611013	176.010000
1360.613315	174.190000
1362.615158	173.870000
1364.616541	171.900000
1366.615611	172.240000
1368.614222	174.800000
1370.612375	171.840000
1372.610070	172.390000
1374.603601	171.710000
1376.598529	182.440000
1378.593000	171.680000
1380.587014	164.680000
1382.578721	181.340000
1384.569972	177.470000
1386.558918	167.630000
1388.549259	166.560000
1390.539145	172.010000
1392.526728	174.490000
1394.513856	170.940000
1396.498684	174.250000
1398.484905	174.910000
1400.468827	173.670000
1402.452296	179.050000
1404.435313	175.190000
1406.416031	174.700000
1408.398145	179.530000
1410.377961	181.550000
1412.357327	177.350000
1414.332553	184.720000
1416.311019	183.510000
1418.287190	177.370000
1420.262913	175.200000
1422.238186	173.070000
1424.211168	180.770000
1426.183702	182.100000
1428.155789	179.470000
1430.127427	175.630000
1432.094937	182.600000
1434.067522	176.380000
1436.032300	182.200000
1438.002151	185.180000
1439.967877	186.940000
1441.934996	184.060000
1443.899832	188.890000
1445.860549	179.300000
1447.826333	184.260000
1449.786162	182.730000
1451.747384	181.200000
1453.709999	187.700000
1455.668499	188.090000
1457.626557	189.050000
1459.584172	184.880000
1461.541346	190.260000
1463.496244	184.300000
1465.452534	188.020000
1467.406550	180.880000
1469.360126	183.160000
1471.311429	185.620000
1473.264124	184.860000
1475.214548	182.600000
1477.164533	186.710000
1479.114078	188.290000
1481.061355	191.380000
1483.006365	188.060000
1484.952766	190.880000
1486.898731	191.190000
1488.844257	196.100000
1490.787519	197.780000
1492.730344	193.840000
1494.670906	203.360000
1496.612859	205.820000
1498.552551	201.600000
1500.491807	202.610000
1502.430628	208.760000
1504.367190	199.930000
1506.305143	201.070000
1508.240838	200.180000
1510.176099	205.640000
1512.109103	200.860000
1514.041675	204.740000
1515.973815	205.180000
1517.905523	201.040000
1519.834977	204.530000
1521.765822	213.010000
1523.696236	210.520000
1525.622576	213.270000
1527.550308	213.110000
1529.475789	214.830000
1531.400841	222.080000
1533.325464	226.460000
1535.249658	226.230000
1537.171605	232.200000
1539.094941	234.180000
1541.016032	239.920000
1542.934878	250.750000
1544.855114	257.560000
1546.773106	266.610000
1548.690672	265.960000
1550.605996	287.900000
1552.522710	307.730000
1554.435369	337.270000
1556.351232	365.280000
1558.264855	393.500000
1560.176241	406.420000
1562.089015	424.970000
1563.997740	480.690000
1565.907855	543.660000
1567.817546	628.580000
1569.726813	758.360000
1571.633847	924.070000
1573.538648	1141.930000
1575.444838	1449.770000
1577.348796	1793.540000
1579.252334	2125.280000
1581.155450	2339.580000
1583.056338	2326.010000
1584.958613	2053.010000
1586.858661	1689.840000
1588.760096	1326.050000
1590.657498	1034.470000
1592.554481	836.660000
1594.451046	691.380000
1596.348999	573.970000
1598.241117	505.560000
1600.136428	442.550000
1602.031322	401.630000
1603.923994	370.150000
1605.816250	345.790000
1607.706286	320.220000
1609.595906	300.550000
1611.485110	287.670000
1613.373900	271.250000
1615.260473	261.190000
1617.148432	253.470000
1619.032375	244.090000
1620.917706	232.790000
1622.802622	237.030000
1624.685326	225.950000
1626.569415	221.230000
1628.449494	219.560000
1630.330959	219.500000
1632.210214	212.120000
1634.090855	212.120000
1635.965692	210.470000
1637.845511	207.780000
1639.721324	198.360000
1641.596727	201.490000
1643.473517	201.860000
1645.344509	198.690000
1647.218683	202.940000
1649.088859	199.310000
1650.962215	194.660000
1652.833368	194.000000
1654.702319	194.650000
1656.572656	194.240000
1658.438999	192.020000
1660.306728	195.300000
1662.172259	192.720000
1664.039174	191.260000
1665.902101	193.560000
1667.766413	186.320000
1669.628529	188.970000
1671.490241	183.770000
1673.353337	185.910000
1675.214239	194.480000
1677.072947	188.230000
1678.931252	188.080000
1680.790942	190.940000
1682.644865	183.700000
1684.501960	176.220000
1686.358653	181.210000
1688.211370	186.490000
1690.067258	184.750000
1691.919171	184.550000
1693.770684	179.240000
1695.621796	181.660000
1697.472508	181.000000
1699.322819	181.160000
1701.170946	177.990000
1703.020456	182.960000
1704.864218	180.920000
1706.712929	186.280000
1708.555895	181.880000
1710.402026	177.770000
1712.244196	181.490000
1714.089530	184.370000
1715.929124	182.570000
1717.770102	181.460000
1719.612463	183.590000
1721.450868	185.620000
1723.290656	173.690000
1725.128269	180.600000
1726.965486	185.750000
1728.800530	184.190000
1730.636957	189.110000
1732.471212	192.000000
1734.305072	184.050000
1736.138539	188.070000
1737.968059	191.330000
1739.800738	186.920000
1741.629473	192.150000
1743.461366	189.600000
1745.289316	189.940000
1747.116874	193.150000
1748.944040	196.760000
1750.770815	196.770000
1752.597199	191.690000
1754.419646	196.570000
1756.245247	195.340000
1758.066914	186.190000
1759.889963	190.860000
1761.710851	187.090000
1763.531349	180.190000
1765.353229	181.410000
1767.169409	180.470000
1768.988741	181.480000
1770.804146	186.730000
1772.622701	182.330000
1774.437331	188.020000
1776.251575	180.680000
1778.065431	176.750000
1779.878901	184.250000
1781.690218	184.120000
1783.502916	183.010000
1785.315227	181.980000
1787.123621	183.740000
1788.933396	187.700000
1790.739255	179.510000
1792.548260	177.100000
1794.353352	180.350000
1796.159825	183.210000
1797.965914	179.060000
1799.768093	179.410000
1801.573415	180.070000
1803.374829	184.700000
1805.177623	174.470000
1806.976511	178.740000
1808.776780	180.270000
1810.576667	178.760000
1812.374413	184.400000
1814.171777	179.520000
1815.968762	179.870000
1817.765366	180.600000
1819.559831	175.910000
1821.355675	183.780000
1823.145865	175.740000
1824.940951	177.610000
1826.730384	184.800000
1828.522954	182.550000
1830.313389	181.470000
1832.101690	174.680000
1833.893126	189.010000
1835.678916	183.000000
1837.466086	180.860000
1839.251124	186.800000
1841.039296	175.360000
1842.823582	179.880000
1844.605739	180.200000
1846.389274	179.510000
1848.170681	180.390000
1849.953467	181.430000
1851.732373	182.060000
1853.512657	179.690000
1855.290815	182.430000
1857.070352	175.040000
1858.847764	178.270000
1860.623052	179.330000
1862.399719	180.740000
1864.174262	175.700000
1865.950184	173.500000
1867.720486	179.910000
1869.493914	179.420000
1871.265223	179.580000
1873.036162	178.820000
1874.808477	171.490000
1876.575180	180.280000
1878.345007	183.370000
1880.110971	180.600000
1881.880059	171.200000
1883.645285	182.000000
1885.410142	177.050000
1887.176377	179.990000
1888.938753	180.330000
1890.700762	180.770000
1892.462403	178.780000
1894.223678	179.460000
1895.984585	179.720000
1897.745126	180.980000
1899.503557	179.080000
1901.261623	179.400000
1903.017580	179.330000
1904.774915	177.010000
1906.531883	179.390000
1908.286746	176.080000
1910.039503	178.560000
1911.791897	179.670000
1913.545666	172.990000
1915.297332	177.920000
1917.046896	178.350000
1918.797836	179.030000
1920.548412	179.740000
1922.295149	176.430000
1924.043263	178.130000
1925.789277	182.110000
1927.536667	179.070000
1929.281958	175.320000
1931.025152	182.510000
1932.769722	176.890000
1934.512195	177.370000
1936.254308	176.940000
1937.996061	178.220000
1939.737455	183.540000
1941.476755	181.170000
1943.215695	178.510000
1944.954278	182.410000
1946.690768	178.490000
1948.426901	179.125000
1950.164408	179.760000
1951.898093	183.750000
1953.633153	176.600000
1955.366125	174.400000
1957.098740	177.080000
1958.830998	177.160000
1960.562900	173.760000
1962.292716	178.060000
1964.020448	175.490000
1965.749553	176.600000
1967.478304	175.670000
1969.204971	178.300000
1970.931284	174.700000
1972.658970	183.310000
1974.381120	182.450000
1976.106371	183.350000
1977.827816	177.810000
1979.552360	168.610000
1981.274825	183.210000
1982.993486	176.090000
1984.715246	176.060000
1986.433204	185.080000
1988.152535	177.530000
1989.868067	183.080000
1991.588420	181.190000
1993.304973	178.360000
1995.017731	177.130000
1996.733584	180.940000
1998.447364	182.020000
2000.160795	180.860000
2001.872155	177.230000
2003.584888	181.840000
2005.293829	177.850000
2007.005864	177.370000
2008.712389	175.420000
2010.422007	181.040000
2012.129557	182.150000
2013.836760	181.370000
2015.541897	179.620000
2017.246687	177.160000
2018.952849	177.440000
2020.655229	180.140000
2022.358981	182.070000
2024.060669	179.190000
2025.762013	184.140000
2027.463011	182.780000
2029.161949	173.930000
2030.862257	182.890000
2032.558791	173.510000
2034.256696	182.450000
2035.952542	181.980000
2037.651474	181.970000
2039.344920	172.470000
2041.039738	176.100000
2042.734212	179.910000
2044.424918	178.260000
2046.118708	181.980000
2047.808731	176.650000
2049.500125	178.460000
2051.189466	174.330000
2052.880177	175.440000
2054.567126	181.070000
2056.253734	173.310000
2057.941713	172.700000
2059.625932	175.350000
2061.311521	173.770000
2062.996771	176.880000
2064.679973	176.790000
2066.364544	178.460000
2068.043653	173.230000
2069.727547	170.370000
2071.405981	170.520000
2073.087491	172.730000
2074.765251	175.940000
2076.442673	172.220000
2078.121466	171.500000
2079.798215	171.240000
2081.472923	170.930000
2083.149000	173.600000
2084.823037	179.460000
2086.496738	177.560000
2088.170104	173.350000
2089.841432	169.530000
2091.512425	176.730000
2093.183084	170.740000
2094.853408	170.580000
2096.523399	172.320000
2098.191354	173.700000
2099.858976	170.500000
2101.524564	170.920000
2103.191520	167.770000
2104.856442	178.910000
2106.521033	170.980000
2108.183592	167.580000
2109.847519	171.700000
2111.509416	173.430000
2113.170981	166.200000
2114.832215	178.630000
2116.491421	164.720000
2118.150297	170.530000
2119.808842	176.360000
2121.467058	170.700000
2123.121550	175.970000
2124.779107	172.090000
2126.436335	174.610000
2128.089841	169.130000
2129.744715	169.510000
2131.395871	166.630000
2133.050088	161.430000
2134.700589	168.600000
2136.352456	172.580000
2137.998915	174.820000
2139.650129	173.190000
2141.297629	172.510000
2142.946496	172.340000
2144.593345	172.430000
2146.239867	169.890000
2147.886064	175.390000
2149.528553	173.900000
2151.174100	174.230000
2152.815940	173.850000
2154.460837	177.870000
2156.102029	170.410000
2157.742897	175.860000
2159.383441	171.900000
2161.021974	171.470000
2162.661872	171.230000
2164.298070	170.800000
2165.935634	167.800000
2167.572875	168.320000
2169.208107	169.420000
2170.843018	172.970000
2172.477607	172.010000
2174.111874	169.050000
2175.742449	171.730000
2177.376074	170.110000
2179.006008	171.300000
2180.637307	173.320000
2182.266602	173.380000
2183.895576	168.610000
2185.524232	166.310000
2187.152568	171.760000
2188.778901	169.400000
2190.404916	167.890000
2192.028930	174.300000
2193.654308	170.050000
2195.277687	169.910000
2196.902429	171.200000
2198.523491	170.790000
2200.144236	172.300000
2201.766346	164.050000
2203.386458	173.350000
2205.004573	170.820000
2206.622373	164.850000
2208.239858	169.510000
2209.857027	169.230000
2211.473881	167.340000
2213.090420	170.100000
2214.704965	164.750000
2216.317518	167.510000
2217.931435	168.330000
2219.543361	169.290000
2221.156650	171.310000
2222.767949	167.820000
2224.377258	167.630000
2225.987931	171.600000
2227.596615	165.760000
2229.204987	162.210000
2230.811371	164.440000
2232.419119	167.160000
2234.024880	169.880000
2235.630330	173.070000
2237.233795	169.590000
2238.838624	160.120000
2240.441468	168.800000
2242.042329	165.480000
2243.644553	165.760000
2245.244794	173.350000
2246.846398	169.730000
2248.444350	165.250000
2250.043664	171.000000
2251.640998	171.490000
2253.238023	166.850000
2254.836411	169.120000
2256.431150	164.540000
2258.023912	171.210000
2259.618037	163.040000
2261.213523	162.670000
2262.805365	163.280000
2264.396900	165.380000
2265.989796	167.040000
2267.577383	168.400000
2269.169667	169.430000
2270.756643	171.850000
2272.346648	168.790000
2273.931348	162.440000
2275.520742	165.770000
2277.104833	162.270000
2278.690286	163.380000
2280.273769	171.690000
2281.860279	162.190000
2283.443155	166.510000
2285.025727	157.330000
2286.607996	166.800000
2288.186636	162.660000
2289.768299	160.440000
2291.346334	166.590000
2292.927392	155.080000
2294.504824	157.915000
2296.080291	160.750000
2297.658781	159.610000
2299.233647	161.380000
2300.808212	162.910000
2302.382477	160.700000
2303.956441	164.890000
2305.530105	163.310000
2307.103468	168.050000
2308.673213	164.310000
2310.242659	164.600000
2311.815124	169.920000
2313.382313	157.000000
2314.952521	161.240000
2316.519114	168.940000
2318.087067	167.890000
2319.653065	166.320000
2321.218764	161.130000
2322.784167	168.370000
2324.347616	172.870000
2325.912423	185.610000
2327.473623	203.520000
2329.037837	232.700000
2330.596790	238.340000
2332.158756	224.130000
2333.718772	189.560000
2335.278492	170.060000
2336.836263	164.990000
2338.393740	168.210000
2339.950921	167.000000
2341.506156	168.050000
2343.061096	166.940000
2344.615743	163.850000
2346.170096	169.390000
2347.724155	168.250000
2349.277920	169.140000
2350.829742	170.340000
2352.379620	160.910000
2353.932506	172.080000
2355.480150	167.970000
2357.030801	164.980000
2358.577862	164.290000
2360.126280	167.600000
2361.674406	165.430000
2363.218944	166.970000
2364.764841	168.810000
2366.308798	167.050000
2367.854113	170.280000
2369.395843	166.540000
2370.938930	166.980000
2372.480082	163.830000
2374.020944	161.820000
2375.561517	170.940000
2377.101801	167.590000
2378.641796	168.090000
2380.178212	167.500000
2381.717630	169.490000
2383.253471	169.610000
2384.790668	167.330000
2386.324290	167.420000
2387.860913	164.580000
2389.395604	172.770000
2390.928366	166.330000
2392.460842	170.450000
2393.991389	166.990000
2395.524934	174.670000
2397.053268	172.900000
2398.582958	170.050000
2400.112363	170.640000
2401.641482	171.210000
2403.170317	170.990000
2404.693946	172.450000
2406.222212	176.130000
2407.745274	173.160000
2409.272970	173.520000
2410.793827	169.160000
2412.319317	176.070000
2413.841246	172.340000
2415.364531	172.560000
2416.885895	177.580000
2418.405339	182.890000
2419.926138	171.890000
2421.445018	181.210000
2422.963616	177.920000
2424.480297	183.170000
2425.998332	178.170000
2427.516086	179.280000
2429.030289	187.600000
2430.544211	187.150000
2432.057853	188.600000
2433.572850	198.970000
2435.084298	200.830000
2436.597101	207.600000
2438.107991	208.230000
2439.618601	216.480000
2441.127300	218.070000
2442.638986	216.450000
2444.147127	216.430000
2445.654991	214.510000
2447.162577	215.080000
2448.666622	214.840000
2450.173653	212.790000
2451.678775	213.390000
2453.183620	210.790000
2454.686558	216.650000
2456.189219	210.450000
2457.691604	204.020000
2459.192084	201.160000
2460.693917	209.960000
2462.193846	202.190000
2463.693499	208.020000
2465.192876	201.740000
2466.690351	199.730000
2468.185925	190.880000
2469.684478	196.480000
2471.179502	191.340000
2472.675880	191.230000
2474.168731	184.110000
2475.662934	192.360000
2477.156864	188.710000
2478.647271	188.640000
2480.140654	192.090000
2481.632140	192.370000
2483.121729	187.660000
2484.611046	185.170000
2486.098468	182.150000
2487.588865	189.500000
2489.075743	182.320000
2490.563973	181.090000
2492.048687	182.230000
2493.533130	181.090000
2495.018925	182.230000
2496.502827	175.440000
2497.988081	176.560000
2499.468201	178.340000
2500.951293	172.420000
2502.432495	180.660000
2503.913428	175.690000
2505.392472	178.350000
2506.871247	168.950000
2508.349754	180.860000
2509.827993	175.100000
2511.305963	174.030000
2512.780429	171.210000
2514.257863	169.900000
2515.731794	172.380000
2517.207076	176.520000
2518.682090	174.660000
2520.153603	172.460000
2521.626466	179.130000
2523.097447	174.580000
2524.569778	176.370000
2526.036996	175.950000
2527.507179	180.420000
2528.975482	175.930000
2530.443520	173.230000
2531.911293	177.530000
2533.378801	181.100000
2534.846044	175.480000
2536.309795	176.430000
2537.774896	177.570000
2539.238120	173.310000
2540.702694	175.690000
2542.163778	176.170000
2543.626212	173.540000
2545.088383	175.410000
2546.547068	181.600000
2548.010325	177.450000
2549.468485	177.250000
2550.927994	181.640000
2552.382410	177.440000
2553.841395	175.910000
2555.298509	179.260000
2556.753752	180.070000
2558.208734	180.080000
2559.661846	184.020000
2561.116307	175.900000
2562.568899	177.860000
2564.021231	177.970000
2565.471695	176.870000
2566.925115	179.170000
2568.373453	174.400000
2569.824747	175.530000
2571.274174	179.650000
2572.720130	183.220000
2574.169040	174.480000
2575.614479	180.430000
2577.061267	184.940000
2578.506191	171.490000
2579.950858	182.290000
2581.396872	181.300000
2582.839419	182.020000
2584.283314	185.010000
2585.723744	181.420000
2587.165522	181.060000
2588.605439	181.730000
2590.046704	181.490000
2591.484508	182.260000
2592.925261	181.870000
2594.360951	183.180000
2595.799591	185.530000
2597.236374	182.730000
2598.671300	187.110000
2600.109175	182.950000
2601.541991	181.080000
2602.976155	189.280000
2604.408465	186.820000
2605.842121	190.070000
2607.273924	186.160000
2608.705474	186.920000
2610.136770	190.530000
2611.566214	184.760000
2612.995407	194.460000
2614.422748	195.570000
2615.851436	195.920000
2617.279871	196.480000
2618.704859	194.400000
2620.131194	200.800000
2621.555680	200.210000
2622.981512	197.200000
2624.403900	205.380000
2625.827634	209.050000
2627.249521	208.790000
2628.671159	209.680000
2630.090951	211.650000
2631.512089	213.700000
2632.932977	215.770000
2634.350427	215.670000
2635.770816	219.490000
2637.187768	224.310000
2638.604472	225.140000
2640.020927	228.160000
2641.437134	233.620000
2642.853092	229.520000
2644.267210	237.680000
2645.681081	244.500000
2647.093112	242.020000
2648.506488	246.740000
2649.916434	250.750000
2651.329315	260.300000
2652.738769	266.150000
2654.147976	273.700000
2655.555347	282.500000
2656.965652	288.900000
2658.374121	297.610000
2659.780755	298.840000
2661.187144	308.640000
2662.591699	322.730000
2663.997598	335.890000
2665.401664	342.740000
2666.805486	356.830000
2668.209063	358.140000
2669.610808	378.290000
2671.013897	382.050000
2672.413569	391.090000
2673.814583	396.720000
2675.212182	406.900000
2676.612711	410.080000
2678.009825	417.380000
2679.408282	415.940000
2680.804911	419.110000
2682.201298	421.280000
2683.597444	423.970000
2684.991763	424.150000
2686.387425	430.400000
2687.779677	424.790000
2689.173273	425.450000
2690.565044	432.140000
2691.958157	433.300000
2693.349447	433.480000
2694.738914	438.310000
2696.128141	450.480000
2697.517129	448.860000
2698.907459	461.510000
2700.292804	468.330000
2701.681073	475.500000
2703.067522	488.410000
2704.453732	505.170000
2705.839704	516.290000
2707.222276	547.810000
2708.606191	570.980000
2709.989868	590.160000
2711.373307	628.690000
2712.753350	644.740000
2714.134735	670.690000
2715.514304	693.100000
2716.895215	708.220000
2718.274311	716.520000
2719.651592	719.980000
2721.030215	711.800000
2722.407025	693.870000
2723.783599	671.130000
2725.159937	651.830000
2726.534463	625.120000
2727.910330	589.120000
2729.282810	567.540000
2730.658206	548.430000
2732.028642	519.060000
2733.400419	492.160000
2734.771961	480.560000
2736.141695	455.750000
2737.512770	434.720000
2738.882037	410.590000
2740.251070	397.190000
2741.618296	390.600000
2742.985290	371.380000
2744.352051	348.830000
2745.718579	327.250000
2747.083302	318.980000
2748.447794	307.190000
2749.812053	293.220000
2751.176080	277.840000
2752.539876	268.690000
2753.900298	254.910000
2755.263631	250.270000
2756.622021	234.870000
2757.983321	217.590000
2759.341250	219.290000
2760.702089	211.450000
2762.061127	206.560000
2763.416797	204.660000
2764.775375	201.130000
2766.130587	198.070000
2767.485569	193.460000
2768.838754	195.350000
2770.194846	194.220000
2771.547574	185.140000
2772.900073	186.470000
2774.252344	189.000000
2775.605954	189.130000
2776.956202	186.920000
2778.304657	183.900000
2779.656016	173.890000
2781.004016	179.880000
2782.353355	170.160000
2783.700901	172.090000
2785.048220	171.430000
2786.395313	173.880000
2787.740615	166.360000
2789.085691	173.660000
2790.430541	170.900000
2791.775164	161.330000
2793.116436	158.490000
2794.459046	165.800000
2795.801430	166.690000
2797.143590	169.220000
2798.482400	158.440000
2799.824109	164.110000
2801.162471	156.220000
2802.502170	154.740000
2803.840083	160.360000
2805.176212	156.190000
2806.512117	157.270000
2807.849360	153.520000
2809.184819	153.540000
2810.520055	156.800000
2811.853508	152.080000
2813.188299	160.280000
2814.519748	155.810000
2815.854093	157.640000
2817.183540	152.730000
2818.514324	156.790000
2819.844886	151.460000
2821.173669	153.290000
2822.503788	153.630000
2823.832129	148.400000
2825.160249	153.280000
2826.486592	149.110000
2827.814270	149.480000
2829.138616	147.140000
2830.464297	156.180000
2831.788203	148.980000
2833.111890	151.670000
2834.436912	149.690000
2835.758604	147.910000
2837.080078	151.560000
2838.401333	146.770000
2839.722369	146.950000
2841.041633	144.220000
2842.362232	147.000000
2843.681059	141.930000
2844.999668	144.360000
2846.316506	146.410000
2847.633128	140.780000
2848.949531	146.160000
2850.264166	140.420000
2851.580135	149.560000
2852.892784	145.980000
2854.206769	138.270000
2855.520536	141.200000
2856.834088	141.940000
2858.145872	140.620000
2859.455890	139.370000
2860.767243	135.800000
2862.075281	145.770000
2863.384654	148.950000
2864.693811	140.890000
2866.002753	150.830000
2867.309932	142.480000
2868.615347	143.720000
2869.922097	138.840000
2871.227084	139.030000
2872.531858	137.480000
2873.834870	141.740000
2875.140764	141.590000
2876.441802	137.590000
2877.744175	143.020000
2879.044788	142.570000
2880.346735	130.600000
2881.648469	140.460000
2882.946898	140.390000
2884.246662	136.060000
2885.544667	139.480000
2886.842461	133.090000
2888.138499	139.170000
2889.435870	134.660000
2890.731485	136.390000
2892.026889	134.520000
2893.322083	133.990000
2894.613978	146.720000
2895.908750	139.950000
2897.200225	139.350000
2898.493033	133.490000
2899.785631	140.010000
2901.074935	141.780000
2902.365571	131.020000
2903.654456	138.780000
2904.944674	134.290000
2906.231600	136.020000
2907.519858	134.620000
2908.806366	140.670000
2910.092667	136.540000
2911.378759	139.160000
2912.663103	139.840000
2913.950319	130.720000
2915.232707	137.900000
2916.516428	135.310000
2917.798403	131.140000
2919.080171	141.160000
2920.360193	134.610000
2921.643085	136.610000
2922.924232	135.190000
2924.202097	136.410000
2925.482831	135.540000
2926.760284	130.610000
2928.037531	136.020000
2929.313037	134.030000
2930.591410	133.050000
2931.864968	135.590000
2933.141394	137.450000
2934.416079	131.220000
2935.689024	135.580000
2936.963299	129.680000
2938.235835	135.540000
2939.508167	137.600000
2940.777225	135.010000
2942.049149	137.980000
2943.319335	130.200000
2944.589318	130.770000
2945.859097	131.340000
2947.127139	129.740000
2948.393446	127.920000
2949.659550	136.750000
2950.926984	134.210000
2952.192684	134.180000
2953.458181	136.270000
2954.723476	129.020000
2955.985506	138.690000
2957.248867	125.910000
2958.512025	127.640000
2959.773452	131.490000
2961.036208	129.640000
2962.297233	128.750000
2963.556526	125.770000
2964.815620	126.470000
2966.074513	130.440000
2967.333206	128.700000
2968.591699	133.310000
2969.848463	136.740000
2971.105027	131.260000
2972.359864	129.040000
2973.616030	129.840000
2974.868940	132.060000
2976.123180	130.390000
2977.377221	134.730000
2978.629536	126.430000
2979.881653	127.380000
2981.132045	130.220000
2982.385292	128.330000
2983.633762	135.430000
2984.885086	132.920000
2986.133162	129.400000
2987.381040	125.020000
2988.628721	122.870000
2989.876206	133.310000
2991.121969	129.460000
2992.367535	125.590000
2993.614429	128.530000
2994.858079	127.910000
2996.103057	129.160000
2997.344792	132.560000
2998.589378	133.140000
2999.832244	126.630000
3001.071870	125.900000
3002.314346	131.280000
3003.553583	131.170000
3004.794147	123.270000
3006.032994	132.090000
3007.271647	125.630000
3008.508584	125.330000
3009.746848	129.480000
3010.983398	122.030000
3012.219753	126.940000
3013.455915	123.250000
3014.690364	131.610000
3015.924619	128.730000
3017.158681	119.970000
3018.391031	124.260000
3019.621669	127.280000
3020.855153	127.800000
3022.086925	129.470000
3023.316987	130.030000
3024.546857	126.910000
3025.775017	127.490000
3027.004503	127.250000
3028.232281	126.640000
3029.459867	131.700000
3030.688779	128.660000
3031.912949	126.490000
3033.139962	127.210000
3034.363751	124.740000
3035.588867	125.840000
3036.812276	125.610000
3038.035496	125.420000
3039.257010	124.350000
3040.481365	121.050000
3041.700985	124.500000
3042.921930	132.070000
3044.142687	125.780000
3045.361740	122.770000
3046.582119	124.250000
3047.799281	123.910000
3049.017768	121.470000
3050.234554	123.290000
3051.451151	119.850000
3052.667560	124.080000
3053.880757	121.440000
3055.096791	116.850000
3056.309613	126.890000
3057.525272	123.430000
3058.736208	119.810000
3059.948469	121.490000
3061.160544	116.440000
3062.372432	117.210000
3063.582622	123.300000
3064.792626	120.380000
3066.002445	114.690000
3067.210567	126.340000
3068.418503	125.680000
3069.624745	116.280000
3070.832310	130.190000
3072.038182	125.495000
3073.243868	120.800000
3074.449369	121.010000
3075.653177	117.460000
3076.858309	117.760000
3078.061749	126.780000
3079.263496	116.090000
3080.465060	119.570000
3081.666440	121.220000
3082.867636	119.030000
3084.067142	117.330000
3085.266464	121.040000
3086.467110	115.460000
3087.666066	116.110000
3088.861828	124.800000
3090.060419	119.030000
3091.255816	116.480000
3092.452536	122.840000
3093.646064	119.520000
3094.842421	114.940000
3096.037090	115.010000
3097.228569	113.270000
3098.424379	115.430000
3099.615496	114.080000
3100.807935	117.600000
3101.997187	118.770000
3103.189265	112.960000
3104.379658	116.710000
3105.566866	118.970000
3106.755397	122.190000
3107.945250	119.040000
3109.131918	120.740000
3110.318407	118.920000
3111.504716	118.580000
3112.692347	117.390000
3113.876797	115.680000
3115.059566	115.260000
3116.245159	122.170000
3117.429071	116.250000
3118.611305	113.340000
3119.793360	117.290000
3120.975238	118.700000
3122.156937	118.870000
3123.336958	118.150000
3124.515303	114.730000
3125.696469	119.610000
3126.874459	112.410000
3128.052272	117.640000
3129.229908	116.140000
3130.405869	113.890000
3131.581653	114.620000
3132.758759	114.750000
3133.934190	115.690000
3135.107948	111.090000
3136.280034	111.090000
3137.453440	114.820000
3138.626671	109.910000
3139.798229	118.860000
3140.971109	112.740000
3142.140821	112.140000
3143.311854	116.670000
3144.481216	120.540000
3145.648909	114.740000
3146.819417	110.570000
3147.985266	111.570000
3149.155425	113.980000
3150.320926	116.570000
3151.486254	114.740000
3152.651408	109.480000
3153.816388	114.830000
3154.982689	112.570000
3156.144336	110.800000
3157.307304	113.680000
3158.470098	116.590000
3159.632720	112.520000
3160.793677	104.010000
3161.954461	114.860000
3163.115073	114.410000
3164.274022	114.020000
3165.432798	107.550000
3166.591403	110.400000
3167.749836	113.690000
3168.908097	110.130000
3170.064696	110.340000
3171.219634	107.280000
3172.375891	106.120000
3173.530488	111.590000
3174.684913	108.720000
3175.837679	105.820000
3176.990275	107.830000
3178.142700	109.740000
3179.294956	111.540000
3180.447042	106.890000
3181.595981	106.440000
3182.747727	111.210000
3183.897815	110.020000
3185.046247	114.000000
3186.194510	108.610000
3187.342603	110.630000
3188.490528	110.890000
3189.636798	112.670000
3190.782899	104.090000
3191.927345	105.450000
3193.071624	110.110000
3194.215735	110.900000
3195.361164	110.360000
3196.503453	113.250000
3197.645576	111.430000
3198.787531	111.430000
3199.929320	108.920000
3201.070941	110.640000
3202.209426	111.120000
3203.349229	108.140000
3204.490350	112.460000
3205.628336	107.620000
3206.764673	112.660000
3207.900844	106.850000
3209.038333	107.190000
3210.174173	112.700000
3211.311329	109.180000
3212.443873	104.230000
3213.580699	112.290000
3214.712913	103.480000
3215.846445	105.080000
3216.979811	105.920000
3218.110050	100.600000
3219.243087	106.430000
3220.372998	103.990000
3221.504226	106.080000
3222.632328	107.210000
3223.763227	98.330000
3224.892483	109.530000
3226.020094	103.630000
3227.144584	117.430000
3228.273349	108.000000
3229.398992	113.100000
3230.524472	115.440000
3231.648311	116.000000
3232.774944	118.850000
3233.896980	117.570000
3235.020332	118.980000
3236.143522	126.570000
3237.266550	133.000000
3238.387938	129.110000
3239.509165	135.860000
3240.628753	136.210000
3241.748180	141.710000
3242.865969	150.840000
3243.986551	150.030000
3245.104018	159.070000
3246.221326	157.640000
3247.338472	164.920000
3248.453983	159.520000
3249.570809	146.330000
3250.684524	142.400000
3251.801030	132.180000
3252.915900	123.110000
3254.027662	117.870000
3255.139265	118.410000
3256.252182	106.320000
3257.364941	109.270000
3258.474593	105.330000
3259.585560	107.680000
3260.696367	105.280000
3261.805544	103.010000
3262.913089	104.950000
3264.021949	102.570000
3265.130650	109.910000
3266.236249	106.920000
3267.343162	100.540000
3268.448447	105.260000
3269.555045	102.940000
3270.658543	102.940000
3271.763355	105.790000
3272.868010	99.350000
3273.969566	107.170000
3275.070967	102.780000
3276.173681	101.480000
3277.276238	107.180000
3278.375700	94.630000
3279.477944	101.230000
3280.577094	103.610000
3281.674618	104.520000
3282.771987	99.700000
3283.872139	101.620000
3284.969197	101.310000
3286.066100	104.880000
3287.162849	104.270000
3288.255038	102.130000
3289.351476	103.880000
3290.446293	97.230000
3291.540954	108.530000
3292.633994	101.590000
3293.726880	98.780000
3294.818145	96.680000
3295.910723	96.210000
3297.001680	99.790000
3298.091018	99.230000
3299.180203	102.030000
3300.270701	100.850000
3301.358114	102.230000
3302.445375	98.870000
3303.533948	103.510000
3304.622368	101.290000
3305.706241	97.850000
3306.794356	97.510000
3307.879390	96.770000
3308.962807	97.630000
3310.047537	98.700000
3311.130652	102.030000
3312.215078	98.800000
3313.296426	99.140000
3314.379086	97.220000
3315.460132	97.920000
3316.541027	103.990000
3317.620309	103.470000
3318.699440	98.750000
3319.779882	103.360000
3320.857251	97.470000
3321.935931	101.670000
3323.012999	99.360000
3324.089917	105.300000
3325.165224	96.280000
3326.240382	103.860000
3327.316851	100.760000
3328.390250	100.920000
3329.463500	97.000000
3330.538061	101.900000
3331.611012	99.380000
3332.682356	98.460000
3333.755010	100.930000
3334.824597	92.280000
3335.895495	100.450000
3336.964786	96.640000
3338.035388	92.590000
3339.104383	102.300000
3340.171772	97.970000
3341.237556	97.470000
3342.307566	101.390000
3343.374513	91.350000
3344.438398	94.720000
3345.505051	99.780000
3346.570099	95.040000
3347.633545	97.230000
3348.696843	94.890000
3349.759996	100.060000
3350.823002	100.380000
3351.885861	94.460000
3352.947119	98.020000
3354.005320	92.940000
3355.067742	100.280000
3356.127107	95.420000
3357.186327	96.610000
3358.246857	93.280000
3359.302877	94.210000
3360.361662	92.790000
3361.415939	98.550000
3362.472979	92.090000
3363.528422	99.590000
3364.585173	95.880000
3365.640327	94.750000
3366.693883	91.580000
3367.745842	98.410000
3368.800563	90.250000
3369.852235	91.170000
3370.903764	96.790000
3371.956602	96.810000
3373.006392	96.400000
3374.057490	93.490000
3375.105543	95.170000
3376.156356	93.700000
3377.204123	96.240000
3378.251748	92.680000
3379.299230	95.240000
3380.345120	92.990000
3381.392318	93.720000
3382.436474	91.810000
3383.483388	93.660000
3384.528710	88.370000
3385.570992	94.520000
3386.613132	95.500000
3387.656580	91.290000
3388.699888	92.880000
3389.741605	99.210000
3390.783181	97.770000
3391.824617	90.260000
3392.864463	90.710000
3393.902722	93.760000
3394.942288	97.800000
3395.981713	98.950000
3397.019551	100.900000
3398.055803	92.720000
3399.091914	89.180000
3400.129333	89.270000
3401.163719	93.070000
3402.199412	94.000000
3403.234966	90.030000
3404.267489	91.360000
3405.302765	88.470000
3406.335010	90.450000
3407.367117	94.650000
3408.397640	90.090000
3409.429471	83.980000
3410.461162	92.200000
3411.489827	89.400000
3412.518353	88.970000
3413.548187	92.200000
3414.577882	90.140000
3415.604552	89.960000
3416.632529	94.250000
3417.657481	91.260000
3418.685183	95.160000
3419.709862	93.680000
3420.735847	87.720000
3421.760252	89.410000
3422.784521	92.290000
3423.807211	92.690000
3424.829765	96.200000
3425.853625	90.440000
3426.874465	83.610000
3427.895170	89.590000
3428.917180	91.420000
3429.936172	91.530000
3430.955029	86.340000
3431.975191	93.830000
3432.992337	88.250000
