-118.385087	21.260165
-115.715486	29.046154
-113.048821	34.085065
-110.382909	36.844555
-107.719928	37.792283
-105.055517	37.395904
-102.394037	36.123077
-99.731128	37.594406
-97.073326	33.345455
-94.414093	33.007692
-91.755609	29.913287
-89.100050	32.104895
-86.443062	32.988112
-83.791171	33.844056
-81.137851	34.903497
-78.487451	40.586713
-75.835621	41.804196
-73.188882	43.845455
-70.540713	44.932168
-67.893288	47.855245
-65.248776	45.142657
-62.602835	46.632168
-59.961977	45.263636
-57.319688	47.511888
-54.680309	46.090210
-52.039501	43.188811
-49.399432	43.225874
-46.764437	46.379021
-44.128012	50.078322
-41.494491	53.857343
-38.859540	59.727273
-36.229656	65.135664
-33.596178	71.896503
-30.967763	77.276224
-28.340082	79.156643
-25.710973	61.855944
-23.086920	-67.980420
-20.459278	-587.465035
-17.836689	-1865.256643
-15.214831	-2511.376224
-12.593704	1424.974825
-9.973308	8503.229371
-7.355799	14596.785315
-4.736862	18891.096503
-2.120811	21353.342657
0.494512	21981.104196
3.109108	20778.646853
5.720822	17764.755245
8.333963	13014.851049
10.942071	6861.002797
13.553761	467.700699
16.160420	-3296.450350
18.768507	-2268.685315
21.375870	-273.097203
23.978208	84.753846
26.584124	87.120280
29.185019	79.612587
31.787341	75.651049
34.384645	66.890210
36.985525	59.123077
39.581391	54.718182
42.178684	55.202098
44.775258	49.746154
47.366823	47.562238
49.959816	45.851049
52.549948	43.516783
55.141508	41.268531
57.730208	42.326573
60.320336	42.353147
62.905464	44.309790
65.492020	44.019580
68.077861	47.681119
70.660849	49.000000
73.245264	49.330070
75.822549	49.798601
78.403401	50.441958
80.981404	47.427972
83.558697	45.943357
86.137416	45.937762
88.711154	46.472727
91.286318	44.898601
93.858639	46.409091
96.430253	46.158042
98.999026	48.353147
101.569226	46.000699
104.136587	46.613986
106.705375	48.432168
109.271325	49.083217
111.834441	49.695105
114.401114	50.863636
116.958564	55.026573
119.521700	63.752448
122.079877	77.188112
124.641607	100.158042
127.198382	145.329371
129.756582	212.024476
132.309830	296.174825
134.862379	407.828671
137.418480	531.344056
139.969632	655.331469
142.520086	777.262238
145.069844	886.782517
147.616782	984.425175
150.163024	1063.968531
152.710693	1112.219580
155.257665	1133.288811
157.799701	1146.004196
160.341044	1141.604895
162.881695	1129.004895
165.423770	1113.906993
167.963035	1088.955245
170.499490	1067.593007
173.035255	1052.119580
175.572445	1044.389510
178.108943	1051.553846
180.642636	1069.185315
183.173526	1086.428671
185.703727	1112.032867
188.235353	1137.215385
190.764179	1157.102797
193.290205	1177.576923
195.815545	1188.750350
198.342310	1198.723077
200.866279	1201.239161
203.389562	1193.949650
205.912161	1191.845455
208.431967	1191.886014
210.951090	1192.679720
213.469530	1194.203497
215.989394	1196.598601
218.502257	1192.311888
221.018651	1188.665734
223.534364	1186.235664
226.045186	1179.174825
228.557433	1172.886713
231.066897	1162.208392
233.575683	1159.069930
236.083791	1157.049650
238.593323	1155.339860
241.097974	1156.116084
243.601949	1156.863636
246.107348	1158.252448
248.607872	1166.039161
251.111919	1244.793007
253.608996	1444.779720
256.109595	1746.367832
258.607423	2068.611888
261.104578	2333.026573
263.601060	2502.961538
266.092680	2564.420280
268.587818	2519.186014
271.080191	2367.570629
273.571893	2125.949650
276.060832	1835.773427
278.551194	1555.386713
281.038795	1373.511189
283.523636	1303.092308
286.011991	1299.165035
288.493408	1289.769231
290.978338	1260.013986
293.458422	1216.278322
295.942019	1166.343357
298.420774	1109.549650
300.900951	1063.030769
303.378377	1031.980420
305.855139	1025.732867
308.331237	1046.816783
310.804587	1089.746154
313.277276	1134.274825
315.749303	1176.241958
318.220668	1208.038462
320.689290	1236.327972
323.157252	1246.920280
325.626637	1237.144056
328.091199	1212.266434
330.559264	1188.694406
333.022510	1156.644056
335.485099	1127.604196
337.947030	1112.135664
340.408305	1107.005594
342.866846	1103.603497
345.326809	1102.444056
347.784040	1102.560839
350.240616	1103.096503
352.696537	1104.061538
355.149730	1099.106993
357.604345	1093.870629
360.054158	1089.115385
362.507467	1082.004196
364.955977	1072.562238
367.403837	1063.214685
369.853118	1056.279021
372.297606	1046.202797
374.743516	1042.627273
377.188777	1037.462937
379.631319	1030.942657
382.073213	1026.664336
384.514459	1020.935664
386.952990	1017.406294
389.392943	1019.963636
391.830182	1019.306993
394.264709	1021.151049
396.702724	1021.237063
399.135962	1023.411189
401.570622	1021.676923
404.000509	1029.746853
406.433881	1030.830070
408.862482	1030.755245
411.290443	1028.456643
413.719824	1027.173427
416.144441	1029.806294
418.570478	1032.401399
420.995876	1032.448951
423.420633	1035.804196
425.840631	1034.204196
428.262051	1038.995105
430.680774	1041.511189
433.100918	1042.437063
435.518367	1047.084615
437.937236	1051.164336
440.353412	1050.923776
442.764841	1052.621678
445.179746	1056.477622
447.591961	1058.709091
450.003542	1060.232867
452.414489	1058.569231
454.822750	1055.904895
457.230379	1051.486713
459.637375	1046.979720
462.043739	1038.130769
464.447422	1033.512587
466.850474	1026.909091
469.252896	1021.715385
471.654688	1020.993007
474.053802	1022.777622
476.454336	1025.107692
478.854241	1023.303497
481.249423	1027.032168
483.648072	1028.129371
486.042001	1032.232168
488.435304	1035.636364
490.827981	1032.832867
493.220033	1028.271329
495.613504	1020.621678
498.002262	1005.586014
500.388354	989.300699
502.775866	968.539860
505.162754	937.598601
507.546979	910.373427
509.932623	886.227972
512.315604	864.925175
514.695925	853.377622
517.077665	843.817483
519.456746	840.425175
521.837246	839.359441
524.215088	836.229371
526.590275	831.791608
528.964844	830.813986
531.340832	823.166434
533.714166	808.027273
536.088919	796.753147
538.458985	785.533566
540.828436	774.181818
543.199306	764.589510
545.565494	759.539860
547.933101	755.800000
550.298062	752.806294
552.662410	746.628671
555.026146	745.632867
557.391299	745.165734
559.751780	743.032168
562.113678	738.715385
564.472937	738.583916
566.829557	737.607692
569.189623	730.958741
571.542997	729.060140
573.899816	727.834965
576.254000	728.240559
578.607575	727.156643
580.960542	723.932168
583.310878	723.069930
585.662630	720.404196
588.007706	720.309790
590.358246	715.345455
592.702113	712.662238
595.051441	708.737762
597.396120	705.448252
599.738175	708.449650
602.081647	707.039161
604.422496	707.609790
606.762742	707.402098
609.100368	705.386713
611.441429	702.649650
613.777853	700.891608
616.115693	701.804196
618.450915	697.370629
620.783522	693.078322
623.117546	692.586014
625.448955	693.532168
627.779766	697.717483
630.109979	698.565035
632.439595	697.358042
634.764587	700.675524
637.095021	700.574126
639.420833	701.272727
641.744039	700.796503
644.068661	698.960140
646.390677	696.262238
648.712099	688.672028
651.030918	688.491608
653.351153	685.562937
655.670795	684.559441
657.987836	682.103497
660.304286	681.678322
662.618137	681.767133
664.933403	684.565734
667.246073	683.940559
669.560158	683.395804
671.869644	685.888811
674.180544	686.774126
676.488852	682.995105
678.796572	684.800699
681.105707	681.920280
683.410249	676.956643
685.714205	671.970629
688.017574	667.316084
690.322358	661.269930
692.622556	660.337063
694.924169	651.688112
697.225196	649.913287
699.521642	649.379021
701.819502	644.188112
704.116780	642.218182
706.413473	639.711888
708.705591	634.576923
711.001120	630.994406
713.292076	629.923776
715.584446	629.130070
717.874240	632.178322
720.163455	634.703497
722.452089	631.834965
724.738152	633.467832
727.025628	633.395105
729.310534	632.010490
731.594861	629.809091
733.876621	624.085315
736.159794	619.646853
738.442390	618.617483
740.720430	618.914685
742.999884	623.983916
745.278763	627.386014
747.557066	630.859441
749.830820	631.352448
752.105988	629.861538
754.380582	627.979021
756.652617	627.393706
758.926065	624.806993
761.196955	626.034266
763.465288	628.021678
765.735036	630.934266
768.002228	639.070629
770.268850	642.493706
772.534903	643.731469
774.798404	646.613287
777.063317	647.561538
779.327662	644.057343
781.587476	640.447552
783.848704	640.422378
786.109364	643.051748
788.367477	647.067832
790.623046	647.022378
792.882006	647.954545
795.134467	649.172727
797.392295	641.752448
799.645604	638.016084
801.896372	634.804895
804.148553	631.893007
806.398196	628.630769
808.649250	623.749650
810.895793	627.137063
813.143749	629.914685
815.389169	631.161538
817.636002	628.113287
819.882272	623.358042
822.124039	616.724476
824.369188	607.941958
826.607865	602.210490
828.849925	598.304196
831.087486	596.992308
833.326458	594.746853
835.562904	593.314685
837.800762	599.405594
840.036094	605.069930
842.268902	606.966434
844.503122	605.600000
846.734820	601.368531
848.965963	600.012587
851.196551	595.806294
853.426585	594.700000
855.656064	600.518881
857.881063	599.772727
860.109435	600.306294
862.333329	598.606993
864.558633	594.511888
866.779462	594.090909
869.003663	587.397902
871.223391	586.466434
873.444530	584.637762
875.665118	584.067832
877.883197	581.194406
880.102685	578.006993
882.317707	590.867133
884.532181	596.409091
886.746108	604.247552
888.959487	604.248951
891.172320	599.922378
893.384605	600.751049
895.594389	597.260140
897.803627	601.871329
900.012319	598.137063
902.218513	603.532867
904.426116	593.505594
906.631222	584.339860
908.835784	587.472727
911.037851	590.786014
913.241327	589.103497
915.442309	584.423776
917.642749	580.269930
919.844598	583.167133
922.040056	582.948951
924.238872	590.051748
926.433251	593.296503
928.630987	603.120280
930.824287	596.419580
933.018995	591.613287
935.211218	586.193706
937.402903	579.586014
939.594050	577.969930
941.782714	578.381818
943.970841	588.249650
946.156488	602.465035
948.345487	615.365734
950.530063	628.826573
952.714104	640.013986
954.901495	651.697902
957.080583	666.879021
959.263020	663.744755
961.444924	667.141958
963.624354	667.781818
965.801311	674.358741
967.979676	680.557343
970.159447	675.358042
972.332870	665.240559
974.509639	661.626573
976.682002	644.832867
978.855771	640.014685
981.025138	644.550350
983.197848	673.667133
985.368092	687.071329
987.537808	716.551748
989.706995	745.751748
991.871785	770.611189
994.039917	790.595804
996.203653	781.573427
998.368797	769.842657
1000.531481	780.338462
1002.693640	756.642657
1004.853341	742.942657
1007.012519	743.809091
1009.173103	757.525874
1011.331232	737.448252
1013.488837	725.376923
1015.645919	721.895105
1017.802478	732.789510
1019.954657	736.779720
1022.108243	717.074126
1024.261306	724.872028
1026.411922	744.406993
1028.563943	737.569930
1030.711591	730.169231
1032.862571	767.293007
1035.009181	778.985315
1037.155271	788.618881
1039.300843	799.764336
1041.447819	816.466434
1043.588508	853.667133
1045.732525	856.567133
1047.874103	855.491608
1050.015163	859.293007
1052.157628	852.419580
1054.293814	840.115385
1056.433326	830.369231
1058.568482	860.790909
1060.706963	858.929371
1062.841091	880.358042
1064.974705	885.060839
1067.109723	891.983217
1069.240392	892.630070
1071.372467	878.162238
1073.502111	875.471329
1075.631244	860.962937
1077.759866	843.363636
1079.887976	837.716783
1082.013660	836.804895
1084.138834	841.746154
1086.265411	835.491608
1088.387652	829.409790
1090.511297	811.534266
1092.630607	798.205594
1094.755146	797.420280
1096.873441	790.397902
1098.993139	764.861538
1101.110419	744.619580
1103.227193	731.865734
1105.343460	725.357343
1107.457312	728.060839
1109.572567	736.342657
1111.683500	736.091608
1113.797744	733.273427
1115.907669	747.591608
1118.018996	764.083217
1120.129820	772.614685
1122.236327	753.945455
1124.346143	725.649650
1126.451645	708.669231
1128.558551	693.315385
1130.659240	671.002098
1132.765142	679.972727
1134.866735	683.944755
1136.969731	682.539860
1139.072226	697.189510
1141.168515	716.344056
1143.270010	705.666434
1145.367203	701.230070
1147.463897	697.902797
1149.560094	686.737063
1151.655792	686.497203
1153.750993	671.016783
1155.843797	665.749650
1157.938003	663.568531
1160.026018	660.753846
1162.119231	661.852448
1164.206256	669.774825
1166.296581	666.574126
1168.382617	657.471329
1170.471951	667.817483
1172.555104	658.756643
1174.639660	660.146853
1176.725616	665.465734
1178.807291	652.063636
1180.890368	650.043357
1182.971059	640.660140
1185.051259	635.114685
1187.130967	636.809790
1189.210183	634.908392
1191.287018	635.578322
1193.361472	638.000699
1195.439218	642.309091
1197.512693	632.876923
1199.587570	644.844755
1201.658179	636.723077
1203.730189	640.232867
1205.799823	636.727273
1207.870858	631.847552
1209.941405	625.376923
1212.007691	625.909091
1214.075378	619.558741
1216.140693	629.979021
1218.207408	634.662238
1220.269867	636.051049
1222.335612	636.246853
1224.397102	646.756643
1226.459992	646.082517
1228.520515	659.175524
1230.580555	659.786713
1232.640111	657.035664
1234.697303	647.389510
1236.754012	633.482517
1238.808359	621.941958
1240.865986	629.857343
1242.921251	623.754545
1244.972275	614.749650
1247.024699	616.114685
1249.076644	624.858741
1251.126230	627.728671
1253.175337	637.154545
1255.223965	640.836364
1257.272115	641.414685
1259.319787	643.021678
1261.363228	638.871329
1263.409944	630.234266
1265.454308	623.588112
1267.498194	611.585315
1269.539730	599.393007
1271.578916	592.754545
1273.621374	593.465035
1275.659611	593.113986
1277.699245	612.597203
1279.738405	627.795804
1281.773347	650.959441
1283.809687	668.945455
1285.843682	679.914685
1287.879076	674.404895
1289.910256	671.805594
1291.942835	666.639161
1293.974941	657.204196
1296.004707	647.218182
1298.035871	644.834965
1300.062827	643.335664
1302.091181	648.850350
1304.115331	650.405594
1306.142746	644.550350
1308.165958	651.201399
1310.190568	646.609091
1312.212843	646.554545
1314.236516	650.142657
1316.257856	646.946853
1318.278729	645.161538
1320.299134	632.067832
1322.315345	632.790210
1324.332955	625.590909
1326.348236	617.869930
1328.366776	607.532867
1330.381126	594.298601
1332.393151	601.803497
1334.408434	596.520979
1336.419531	604.423776
1338.432024	606.773427
1340.440335	604.516084
1342.451902	604.144755
1344.457430	598.909091
1346.466212	605.663636
1348.470818	602.723077
1350.478677	597.815385
1352.486073	600.609790
1354.487439	604.762238
1356.490202	615.095105
1358.492505	622.204895
1360.494347	625.158741
1362.495731	624.887413
1364.494800	619.476224
1366.493411	614.102797
1368.491564	609.009790
1370.489259	608.619580
1372.482790	607.802797
1374.477718	605.858042
1376.472189	617.337762
1378.466203	619.749650
1380.457910	622.234266
1382.449161	620.000000
1384.438107	611.413287
1386.428448	604.274126
1388.418334	598.995804
1390.405917	591.099301
1392.393046	588.747552
1394.377873	598.548951
1396.364095	602.167133
1398.348016	612.995105
1400.331485	624.688112
1402.314502	621.913287
1404.295221	619.442657
1406.277334	615.328671
1408.257150	609.468531
1410.236516	607.097203
1412.211743	609.347552
1414.190208	606.939860
1416.166380	607.469231
1418.142102	618.779021
1420.117375	613.599301
1422.090357	613.169930
1424.062892	615.295105
1426.034978	609.465734
1428.006616	611.256643
1429.974127	609.081119
1431.946711	612.625175
1433.911489	615.366434
1435.881340	624.416084
1437.847066	622.808392
1439.814186	624.079021
1441.779022	627.210490
1443.739738	616.434266
1445.705522	611.241958
1447.665351	610.745455
1449.626573	612.192308
1451.589188	615.048951
1453.547688	618.476224
1455.505746	622.402098
1457.463361	625.113986
1459.420535	635.707692
1461.375433	638.145455
1463.331723	647.516783
1465.285739	653.760140
1467.239315	659.227972
1469.190618	666.672727
1471.143313	665.360839
1473.093737	666.729371
1475.043722	654.127273
1476.993267	651.346853
1478.940544	632.788112
1480.885554	627.851049
1482.831956	625.007692
1484.777920	619.313986
1486.723446	623.947552
1488.666708	624.977622
1490.609533	625.610490
1492.550095	629.090210
1494.492048	625.012587
1496.431740	625.401399
1498.370996	626.489510
1500.309818	632.798601
1502.246380	622.634266
1504.184332	627.695105
1506.120027	632.843357
1508.055288	641.048951
1509.988292	645.945455
1511.920864	645.528671
1513.853004	638.953147
1515.784712	641.138462
1517.714167	634.394406
1519.645011	629.603497
1521.575425	633.422378
1523.501766	623.274126
1525.429497	609.621678
1527.354978	607.006294
1529.280030	603.657343
1531.204653	607.043357
1533.128847	608.703497
1535.050794	623.246853
1536.974130	627.479720
1538.895221	641.616783
1540.814067	645.472028
1542.734303	663.146154
1544.652295	682.421678
1546.569861	687.877622
1548.485185	694.002797
1550.401899	703.572028
1552.314558	701.037762
1554.230421	691.024476
1556.144045	682.948951
1558.055430	676.953147
1559.968204	657.155245
1561.876929	653.231469
1563.787044	640.587413
1565.696735	637.431469
1567.606002	633.544056
1569.513036	640.332867
1571.417837	643.640559
1573.324027	648.966434
1575.227985	648.523776
1577.131523	650.051748
1579.034639	659.418182
1580.935527	671.940559
1582.837803	678.973427
1584.737850	689.881119
1586.639286	684.757343
1588.536687	679.318182
1590.433671	676.260839
1592.330236	682.078322
1594.228188	687.316783
1596.120306	683.697902
1598.015618	685.353147
1599.910511	695.472727
1601.803183	696.255245
1603.695439	699.125175
1605.585475	700.072028
1607.475095	713.844755
1609.364300	702.665035
1611.253089	694.013287
1613.139662	690.751748
1615.027621	698.711189
1616.911565	705.828671
1618.796895	693.298601
1620.681812	695.353846
1622.564515	694.743357
1624.448604	683.853147
1626.328683	684.070629
1628.210148	690.255944
1630.089403	696.931469
1631.970044	678.267832
1633.844881	679.850350
1635.724700	681.847552
1637.600513	694.797203
1639.475917	710.129371
1641.352706	708.787413
1643.223698	722.893007
1645.097872	739.451049
1646.968048	757.244056
1648.841404	765.342657
1650.712557	765.787413
1652.581508	763.516783
1654.451845	761.421678
1656.318188	747.178322
1658.185918	742.044755
1660.051448	729.879021
1661.918363	732.732168
1663.781290	716.597902
1665.645602	719.800699
1667.507719	726.601399
1669.369430	738.052448
1671.232526	742.574126
1673.093428	738.676923
1674.952136	734.157343
1676.810441	737.600000
1678.670131	726.837762
1680.524054	728.211888
1682.381149	720.737762
1684.237842	735.158741
1686.090559	724.017483
1687.946447	738.877622
1689.798361	738.655944
1691.649873	744.409091
1693.500986	747.505594
1695.351697	737.323776
1697.202008	733.328671
1699.050135	744.672028
1700.899645	739.537762
1702.743407	739.664336
1704.592119	741.450350
1706.435084	746.495105
1708.281215	752.184615
1710.123385	778.869930
1711.968719	790.701399
1713.808313	802.358042
1715.649291	822.901399
1717.491652	838.764336
1719.330057	835.909790
1721.169845	839.177622
1723.007458	830.531469
1724.844675	810.516783
1726.679719	800.028671
1728.516146	786.952448
1730.350401	780.337063
1732.184262	792.444755
1734.017728	793.291608
1735.847248	787.746154
1737.679927	798.616783
1739.508662	794.735664
1741.340555	791.428671
1743.168505	795.489510
1744.996063	788.640559
1746.823230	780.954545
1748.650004	786.634266
1750.476388	763.899301
1752.298835	744.481119
1754.124436	753.051748
1755.946103	751.500699
1757.769152	750.688112
1759.590040	778.773427
1761.410538	787.088811
1763.232418	793.651748
1765.048598	810.099301
1766.867930	804.657343
1768.683335	805.639161
1770.501891	798.593007
1772.316521	774.697203
1774.130764	774.267133
1775.944621	768.655245
1777.758091	752.792308
1779.569407	745.190909
1781.382105	770.982517
1783.194416	769.874126
1785.002810	784.038462
1786.812585	810.881119
1788.618444	817.009790
1790.427450	823.267133
1792.232542	833.499301
1794.039014	819.108392
1795.845103	819.544755
1797.647282	786.334266
1799.452604	750.389510
1801.254018	737.439860
1803.056812	741.638462
1804.855701	741.745455
1806.655969	754.388811
1808.455857	773.190210
1810.253602	782.606294
1812.050967	774.722378
1813.847951	763.624476
1815.644555	758.715385
1817.439020	750.486014
1819.234865	738.533566
1821.025054	738.607692
1822.820140	733.620280
1824.609573	738.361538
1826.402144	731.060839
1828.192579	728.490210
1829.980879	742.312587
1831.772315	737.946154
1833.558105	720.193706
1835.345275	723.380420
1837.130313	731.246154
1838.918485	709.056643
1840.702771	711.942657
1842.484928	715.980420
1844.268463	706.820280
1846.049871	711.755245
1847.832656	710.897203
1849.611562	719.427972
1851.391846	738.683217
1853.170005	745.790210
1854.949541	740.499301
1856.726953	759.276224
1858.502241	740.458741
1860.278908	732.000699
1862.053452	733.931469
1863.829373	730.217483
1865.599675	731.050350
1867.373104	733.007692
1869.144413	731.718881
1870.915351	730.947552
1872.687666	743.318881
1874.454369	748.720280
1876.224196	755.234266
1877.990160	757.718182
1879.759248	746.881119
1881.524474	752.231469
1883.289332	746.202797
1885.055566	733.430070
1886.817942	729.224476
1888.579951	735.490909
1890.341593	733.569930
1892.102867	732.886713
1893.863775	726.134266
1895.624315	725.804895
1897.382746	725.262937
1899.140812	707.117483
1900.896770	702.764336
1902.654104	688.756643
1904.411072	672.704196
1906.165935	672.980420
1907.918692	674.437063
1909.671086	685.317483
1911.424856	687.146154
1913.176522	687.665035
1914.926085	685.356643
1916.677025	700.141259
1918.427601	709.068531
1920.174339	704.094406
1921.922452	701.094406
1923.668466	688.581818
1925.415856	681.531469
1927.161147	683.308392
1928.904341	675.542657
1930.648911	677.486713
1932.391384	676.640559
1934.133497	680.641259
1935.875251	697.276224
1937.616644	719.404895
1939.355944	730.125175
1941.094885	736.322378
1942.833467	736.152448
1944.569957	743.910490
1946.306090	742.176224
1948.043597	744.222378
1949.777283	737.268531
1951.512343	731.568531
1953.245314	714.343357
1954.977929	711.272727
1956.710187	709.695105
1958.442089	699.793007
1960.171905	692.683217
1961.899637	696.127972
1963.628742	688.148951
1965.357493	696.655245
1967.084160	689.732867
1968.810473	688.418881
1970.538159	687.318182
1972.260309	689.713287
1973.985561	689.723077
1975.707005	706.932867
1977.431549	711.811888
1979.154014	714.682517
1980.872675	725.188811
1982.594435	733.866434
1984.312393	729.811189
1986.031725	736.139860
1987.747256	726.488811
1989.467609	721.469231
1991.184162	718.875524
1992.896920	712.622378
1994.612773	707.321678
1996.326554	708.009091
1998.039984	702.255245
1999.751344	703.337762
2001.464077	707.385315
2003.173018	712.346154
2004.885053	712.423077
2006.591578	713.555944
2008.301196	711.395804
2010.008746	720.392308
2011.715949	722.486014
2013.421086	718.451748
2015.125876	711.432867
2016.832038	720.700000
2018.534418	729.201399
2020.238170	742.748951
2021.939859	742.630769
2023.641202	735.701399
2025.342200	729.497902
2027.041138	727.386014
2028.741447	726.457343
2030.437980	728.895105
2032.135885	721.325175
2033.831732	707.995804
2035.530664	706.354545
2037.224110	726.279720
2038.918927	718.930070
2040.613401	722.972727
2042.304107	721.932867
2043.997897	718.479021
2045.687920	717.820280
2047.379314	721.141958
2049.068655	718.302098
2050.759366	714.790909
2052.446315	711.365035
2054.132923	700.909790
2055.820902	697.497902
2057.505121	702.218881
2059.190710	683.270629
2060.875960	694.464336
2062.559162	693.048252
2064.243734	689.358741
2065.922842	690.627273
2067.606736	696.441259
2069.285170	690.983916
2070.966681	692.414685
2072.644440	695.386713
2074.321863	699.952448
2076.000655	704.660140
2077.677404	709.912587
2079.352112	707.871329
2081.028189	709.241958
2082.702226	704.163636
2084.375927	711.979021
2086.049293	720.272028
2087.720621	726.954545
2089.391614	711.631469
2091.062273	718.317483
2092.732598	719.555944
2094.402588	730.188811
2096.070543	724.023776
2097.738165	718.158741
2099.403753	716.387413
2101.070709	707.417483
2102.735632	702.376923
2104.400222	703.746154
2106.062781	706.616783
2107.726709	709.974126
2109.388605	708.062937
2111.050170	725.482517
2112.711405	731.183916
2114.370610	736.093007
2116.029486	733.869930
2117.688031	734.160140
2119.346247	740.108392
2121.000739	731.630070
2122.658297	733.425874
2124.315524	725.032168
2125.969031	723.101399
2127.623905	732.236364
2129.275060	733.327273
2130.929278	728.994406
2132.579778	727.895105
2134.231646	727.279021
2135.878105	725.009790
2137.529318	727.584615
2139.176818	732.783217
2140.825686	729.549650
2142.472534	727.509790
2144.119056	724.195105
2145.765254	723.999301
2147.407742	732.255245
2149.053289	724.451748
2150.695129	716.721678
2152.340026	723.541259
2153.981218	726.855245
2155.622086	723.377622
2157.262631	727.630769
2158.901163	718.587413
2160.541061	721.885315
2162.177259	722.432168
2163.814823	730.581818
2165.452065	727.299301
2167.087297	738.830769
2168.722207	746.924476
2170.356796	752.188811
2171.991064	765.520280
2173.621638	772.933566
2175.255263	762.723776
2176.885197	754.210490
2178.516496	740.007692
2180.145791	747.527273
2181.774765	740.031469
2183.403421	734.277622
2185.031757	724.858042
2186.658090	732.100699
2188.284105	729.592308
2189.908119	724.800000
2191.533498	727.427972
2193.156876	732.616084
2194.781619	722.357343
2196.402680	726.339161
2198.023426	726.840559
2199.645535	741.093007
2201.265647	738.503497
2202.883763	732.550350
2204.501563	723.860140
2206.119047	726.348951
2207.736216	719.460140
2209.353070	724.699301
2210.969609	737.313986
2212.584154	744.227972
2214.196707	742.011189
2215.810625	752.683916
2217.422550	745.026573
2219.035840	755.439860
2220.647138	754.590909
2222.256448	751.344056
2223.867120	757.309091
2225.475804	759.198601
2227.084176	765.458741
2228.690560	764.518182
2230.298308	758.316783
2231.904069	741.558042
2233.509519	730.348951
2235.112985	730.044056
2236.717813	719.616084
2238.320657	730.683916
2239.921518	730.849650
2241.523742	746.300699
2243.123983	758.093007
2244.725588	771.416084
2246.323539	777.155245
2247.922853	771.465035
2249.520187	773.485315
2251.117213	773.524476
2252.715600	763.272727
2254.310339	764.881119
2255.903102	763.032867
2257.497226	773.879021
2259.092712	774.126573
2260.684554	789.166434
2262.276089	781.237762
2263.868985	785.704895
2265.456572	787.421678
2267.048856	790.830070
2268.635832	787.427972
2270.225837	777.432867
2271.810537	773.086014
2273.399931	771.304895
2274.984022	775.404196
2276.569475	793.556643
2278.152959	779.979720
2279.739468	782.693007
2281.322344	781.630769
2282.904916	789.754196
2284.487186	798.389510
2286.065825	790.877273
2287.647488	774.196503
2289.225524	771.722028
2290.806582	768.479021
2292.384013	773.754895
2293.959481	774.239860
2295.537971	777.055594
2297.112836	763.906993
2298.687401	779.065385
2300.261666	789.621678
2301.835630	782.080769
2303.409294	779.573427
2304.982657	773.884615
2306.552402	771.420979
2308.121848	781.595105
2309.694313	770.235664
2311.261503	770.262937
2312.831710	759.630070
2314.398303	774.593007
2315.966256	784.352448
2317.532254	793.704196
2319.097954	786.900699
2320.663356	785.584615
2322.226805	807.555245
2323.791613	824.455245
2325.352812	839.916084
2326.917026	851.037762
2328.475979	829.548252
2330.037945	836.794406
2331.597961	836.886014
2333.157681	846.613986
2334.715452	841.677622
2336.272929	842.120280
2337.830110	830.731469
2339.385345	829.637063
2340.940285	840.555245
2342.494932	842.479720
2344.049285	835.869930
2345.603344	827.934965
2347.157110	828.541259
2348.708931	831.833566
2350.258809	812.236364
2351.811695	824.530769
2353.359339	823.665734
2354.909990	848.140559
2356.457051	847.744755
2358.005469	856.864336
2359.553595	868.758042
2361.098134	883.136364
2362.644030	879.252448
2364.187987	860.112587
2365.733302	860.727972
2367.275032	827.252448
2368.818120	816.824476
2370.359271	827.482517
2371.900133	821.896503
2373.440706	840.287413
2374.980990	831.960839
2376.520985	832.137762
2378.057401	843.260839
2379.596819	859.766434
2381.132660	858.401399
2382.669857	853.789510
2384.203480	854.348951
2385.740102	840.823776
2387.274793	840.493706
2388.807555	840.538462
2390.340031	834.379021
2391.870578	834.175524
2393.404123	834.442657
2394.932457	833.174126
2396.462147	854.865035
2397.991552	853.553846
2399.520672	869.593007
2401.049506	877.255245
2402.573136	870.113287
2404.101401	871.974825
2405.624463	882.028671
2407.152160	876.634266
2408.673016	857.113287
2410.198506	863.948252
2411.720436	879.563636
2413.243720	884.658042
2414.765084	888.413287
2416.284528	892.860839
2417.805327	901.856643
2419.324207	900.448252
2420.842805	903.174126
2422.359486	912.972028
2423.877522	923.290909
2425.395276	900.496503
2426.909478	879.108392
2428.423400	878.958042
2429.937043	869.951049
2431.452039	868.716084
2432.963487	869.753147
2434.476290	893.541958
2435.987180	877.886713
2437.497790	865.241259
2439.006489	854.974825
2440.518175	860.860140
2442.026317	858.323077
2443.534180	830.973427
2445.041766	829.344755
2446.545812	820.222378
2448.052842	831.536364
2449.557964	858.951049
2451.062809	876.169231
2452.565747	891.481818
2454.068408	876.170629
2455.570793	878.409790
2457.071273	880.922378
2458.573106	897.339860
2460.073035	878.933566
2461.572688	858.062238
2463.072066	864.469930
2464.569541	859.643357
2466.065114	867.220280
2467.563667	863.784615
2469.058691	846.843357
2470.555069	851.186713
2472.047920	847.000699
2473.542123	860.600699
2475.036053	857.726573
2476.526460	875.069231
2478.019844	865.541958
2479.511329	861.866434
2481.000918	858.327972
2482.490236	855.067133
2483.977657	860.573427
2485.468054	849.306993
2486.954932	848.048951
2488.443162	857.530769
2489.927876	855.885315
2491.412319	869.918182
2492.898114	870.785315
2494.382016	877.814685
2495.867270	870.323077
2497.347390	861.839161
2498.830482	858.130070
2500.311684	869.032867
2501.792617	880.462937
2503.271661	882.597902
2504.750437	889.677622
2506.228944	902.345455
2507.707182	917.332867
2509.185152	929.014685
2510.659618	931.749650
2512.137052	913.823077
2513.610983	898.892308
2515.086265	899.507692
2516.561279	882.297203
2518.032792	867.382517
2519.505656	855.643357
2520.976637	838.180420
2522.448967	818.411888
2523.916185	825.177622
2525.386369	836.925874
2526.854671	841.427972
2528.322709	847.788112
2529.790482	849.604196
2531.257990	862.322378
2532.725233	893.237762
2534.188985	883.580420
2535.654086	897.689510
2537.117310	895.230769
2538.581883	874.403497
2540.042967	868.460839
2541.505402	882.414685
2542.967573	885.502098
2544.426257	866.443357
2545.889514	864.073427
2547.347674	867.673427
2548.807183	889.331469
2550.261599	897.071329
2551.720585	904.033566
2553.177698	903.644755
2554.632941	876.309091
2556.087923	864.597902
2557.541035	854.296503
2558.995496	863.716084
2560.448088	838.052448
2561.900420	823.927972
2563.350884	831.713986
2564.804304	842.044755
2566.252642	867.798601
2567.703936	874.979021
2569.153363	898.099301
2570.599319	882.048951
2572.048229	872.495804
2573.493668	866.742657
2574.940456	855.648252
2576.385380	851.165035
2577.830047	838.107692
2579.276061	839.600000
2580.718608	828.644755
2582.162503	836.892308
2583.602933	848.929371
2585.044711	852.165734
2586.484629	862.745455
2587.925894	848.509091
2589.363697	845.443357
2590.804450	853.297203
2592.240140	846.878322
2593.678780	851.675524
2595.115563	848.316783
2596.550489	843.495105
2597.988364	840.543357
2599.421181	855.837762
2600.855345	860.707692
2602.287654	855.593706
2603.721310	860.018881
2605.153113	850.155944
2606.584663	849.411888
2608.015959	856.072727
2609.445404	832.836364
2610.874596	836.681119
2612.301937	828.158042
2613.730625	831.516783
2615.159060	839.435664
2616.584049	851.548252
2618.010383	865.888112
2619.434869	861.741259
2620.860701	860.020280
2622.283089	865.716084
2623.706823	861.955245
2625.128711	854.409091
2626.550348	840.481119
2627.970140	844.715385
2629.391278	832.430070
2630.812166	823.555245
2632.229616	822.283916
2633.650005	823.529371
2635.066957	824.906993
2636.483661	822.248951
2637.900116	831.686713
2639.316323	848.825175
2640.732281	847.038462
2642.146399	850.141259
2643.560270	844.825175
2644.972301	856.545455
2646.385677	851.445455
2647.795623	865.367133
2649.208505	869.200699
2650.617958	874.895105
2652.027165	878.086014
2653.434536	891.297203
2654.844841	894.556643
2656.253310	883.432867
2657.659944	858.620979
2659.066333	847.225175
2660.470888	821.622378
2661.876787	823.452448
2663.280853	823.203497
2664.684675	822.298601
2666.088252	832.133566
2667.489997	854.539161
2668.893086	872.113986
2670.292758	880.462937
2671.693773	871.754545
2673.091371	854.066434
2674.491900	842.276923
2675.889014	835.051748
2677.287471	809.406294
2678.684100	816.261538
2680.080488	828.248252
2681.476633	825.896503
2682.870952	847.237762
2684.266614	850.504196
2685.658866	853.083916
2687.052462	857.024476
2688.444233	859.754545
2689.837346	854.109790
2691.228636	850.834266
2692.618103	861.987413
2694.007331	859.148951
2695.396318	869.742657
2696.786648	877.604196
2698.171993	864.301399
2699.560263	863.223776
2700.946712	837.966434
2702.332922	841.889510
2703.718893	840.989510
2705.101466	843.720280
2706.485380	836.826573
2707.869057	839.041958
2709.252496	855.073427
2710.632539	858.256643
2712.013924	856.960839
2713.393493	873.124476
2714.774404	862.592308
2716.153500	867.783217
2717.530781	853.689510
2718.909404	844.158042
2720.286214	838.034965
2721.662788	853.704895
2723.039126	851.777622
2724.413652	845.841958
2725.789519	843.142657
2727.161999	854.085315
2728.537396	855.778322
2729.907831	877.116084
2731.279608	876.076224
2732.651151	884.946154
2734.020885	891.130070
2735.391959	900.634965
2736.761226	919.502797
2738.130259	923.432867
2739.497485	914.587413
2740.864479	895.348951
2742.231240	891.877622
2743.597768	884.154545
2744.962492	883.663636
2746.326983	884.516084
2747.691242	876.637063
2749.055270	886.161538
2750.419065	895.757343
2751.779487	903.594406
2753.142820	894.218881
2754.501210	877.454545
2755.862510	861.120979
2757.220439	855.623776
2758.581278	848.927273
2759.940316	825.397203
2761.295986	826.791608
2762.654565	816.173427
2764.009776	821.516783
2765.364758	833.396503
2766.717943	834.978322
2768.074035	829.746154
2769.426763	832.466434
2770.779262	828.819580
2772.131533	830.093007
2773.485143	834.831469
2774.835391	844.473427
2776.183846	831.162937
2777.535205	842.604895
2778.883205	843.682517
2780.232544	855.855944
2781.580090	852.106993
2782.927409	853.859441
2784.274502	866.255245
2785.619804	859.353846
2786.964880	845.137762
2788.309730	855.674825
2789.654354	857.355944
2790.995625	878.712587
2792.338235	867.061538
2793.680620	870.220979
2795.022779	860.176923
2796.361589	851.904895
2797.703299	850.689510
2799.041660	854.902797
2800.381359	861.641259
2801.719272	836.458042
2803.055401	844.878322
2804.391307	865.057343
2805.728549	868.265734
2807.064008	891.733566
2808.399244	886.143357
2809.732698	873.945455
2811.067488	858.801399
2812.398937	854.048951
2813.733282	853.943357
2815.062729	845.931469
2816.393513	844.951049
2817.724075	842.407692
2819.052858	858.058042
2820.382978	878.603497
2821.711318	886.316783
2823.039438	894.183217
2824.365781	887.492308
2825.693459	885.666434
2827.017805	884.257343
2828.343486	884.506993
2829.667393	875.890210
2830.991079	871.349650
2832.316101	860.416084
2833.637794	851.710490
2834.959267	849.442657
2836.280522	861.265734
2837.601558	865.383916
2838.920822	853.262238
2840.241421	845.779720
2841.560248	849.675524
2842.878857	853.368531
2844.195696	863.375524
2845.512317	868.113287
2846.828720	870.974126
2848.143355	867.399301
2849.459324	868.665734
2850.771973	876.890909
2852.085958	883.237762
2853.399726	886.290210
2854.713277	876.658042
2856.025061	867.860140
2857.335080	874.229371
2858.646433	876.030769
2859.954470	876.564336
2861.263843	872.728671
2862.573000	878.997203
2863.881942	877.934965
2865.189121	893.523077
2866.494536	909.495804
2867.801286	898.530769
2869.106273	918.302797
2870.411047	915.464336
2871.714059	909.987413
2873.019953	918.809091
2874.320992	911.844755
2875.623364	899.330769
2876.923977	881.282517
2878.225924	884.832867
2879.527658	872.164336
2880.826088	877.457343
2882.125851	869.621678
2883.423857	848.674126
2884.721651	847.583217
2886.017688	820.836364
2887.315059	817.002098
2888.610674	827.107692
2889.906079	821.874126
2891.201272	822.932168
2892.493167	822.731469
2893.787939	852.130769
2895.079415	853.630070
2896.372223	864.476224
2897.664821	855.481818
2898.954124	843.169231
2900.244760	828.797902
2901.533646	822.897203
2902.823863	826.987413
2904.110789	826.425175
2905.399047	827.048252
2906.685556	856.358042
2907.971856	883.709091
2909.257948	902.347552
2910.542292	896.172028
2911.829508	897.787413
2913.111897	888.727273
2914.395618	878.681119
2915.677592	867.693007
2916.959360	870.393706
2918.239382	866.630769
2919.522274	858.305594
2920.803421	859.958042
2922.081286	884.260140
2923.362020	886.730070
2924.639473	887.321678
2925.916721	887.092308
2927.192226	887.651748
2928.470599	891.088112
2929.744157	879.681818
2931.020583	877.875524
2932.295268	889.976224
2933.568213	888.546853
2934.842488	895.824476
2936.115024	900.067133
2937.387356	901.300000
2938.656415	910.281119
2939.928339	925.087413
2941.198525	920.259441
2942.468507	919.004895
2943.738286	927.862238
2945.006328	913.275524
2946.272635	907.841958
2947.538739	912.045455
2948.806174	902.486014
2950.071873	915.995105
2951.337370	913.635664
2952.602665	903.876224
2953.864696	910.580420
2955.128056	910.341958
2956.391215	901.461538
2957.652641	902.874126
2958.915397	908.634965
2960.176422	870.961538
2961.435716	865.796503
2962.694809	868.546853
2963.953702	867.716084
2965.212395	872.590210
2966.470888	881.002098
2967.727652	885.678322
2968.984217	894.082517
2970.239053	907.363636
2971.495219	913.801399
2972.748129	918.187413
2974.002369	921.729371
2975.256410	903.941958
2976.508725	923.100000
2977.760842	927.674126
2979.011234	928.486713
2980.264481	913.088811
2981.512951	906.132168
2982.764275	903.073427
2984.012351	893.122378
2985.260229	899.176923
2986.507910	887.032867
2987.755395	886.868531
2989.001158	888.086014
2990.246724	890.129371
2991.493619	902.655245
2992.737268	900.025175
2993.982246	901.139161
2995.223981	897.512587
2996.468567	894.702098
2997.711434	901.511888
2998.951059	911.710490
3000.193536	924.897203
3001.432772	926.249650
3002.673336	926.818182
3003.912183	927.069231
3005.150836	928.426573
3006.387773	929.293007
3007.626037	939.694406
3008.862587	945.816084
3010.098943	957.972028
3011.335105	949.551049
3012.569553	950.213287
3013.803808	957.327273
3015.037870	949.935664
3016.270220	944.195804
3017.500858	927.148951
3018.734342	913.227273
3019.966115	904.699301
3021.196176	901.430769
3022.426046	920.259441
3023.654206	926.899301
3024.883693	939.367832
3026.111470	939.413287
3027.339056	955.033566
3028.567968	952.638462
3029.792138	953.684615
3031.019151	957.630769
3032.242941	949.039161
3033.468056	946.676224
3034.691465	936.839860
3035.914685	932.060839
3037.136199	930.595804
3038.360554	929.900000
3039.580174	927.066434
3040.801120	927.664336
3042.021876	933.086014
3043.240929	922.944755
3044.461308	920.226573
3045.678470	915.000699
3046.896957	920.474825
3048.113743	925.487413
3049.330340	919.644056
3050.546750	918.065734
3051.759946	920.876224
3052.975980	926.804196
3054.188802	922.865035
3055.404461	928.893007
3056.615397	930.487413
3057.827659	928.209790
3059.039733	926.200000
3060.251621	933.138462
3061.461811	934.994406
3062.671816	918.509790
3063.881634	904.478322
3065.089756	885.053147
3066.297692	880.476224
3067.503934	875.067133
3068.711500	856.660839
3069.917371	851.020979
3071.123057	856.655245
3072.328559	860.358042
3073.532367	877.783916
3074.737499	884.642657
3075.940938	884.891608
3077.142685	893.635664
3078.344249	896.508392
3079.545629	901.856643
3080.746825	915.177622
3081.946331	911.848951
3083.145653	892.848951
3084.346299	888.262238
3085.545256	892.832168
3086.741017	884.894406
3087.939608	886.238462
3089.135005	880.620280
3090.331726	880.010490
3091.525254	883.142657
3092.721610	878.115385
3093.916279	894.979021
3095.107758	902.976224
3096.303568	886.371329
3097.494685	888.972028
3098.687125	891.676224
3099.876376	895.590210
3101.068454	896.388811
3102.258848	914.250350
3103.446055	916.137063
3104.634586	917.830070
3105.824439	917.423776
3107.011107	925.254545
3108.197596	937.154545
3109.383905	927.566434
3110.571537	911.516783
3111.755986	911.883217
3112.938755	899.097203
3114.124348	897.831469
3115.308260	896.470629
3116.490494	918.962937
3117.672550	919.846853
3118.854427	934.586713
3120.036126	946.446853
3121.216148	969.336364
3122.394492	963.236364
3123.575658	954.809091
3124.753648	953.259441
3125.931461	954.212587
3127.109097	946.367832
3128.285058	942.987413
3129.460843	928.454545
3130.637948	925.906294
3131.813380	904.913287
3132.987138	903.493007
3134.159223	908.234965
3135.332629	909.423077
3136.505860	903.323776
3137.677418	910.168531
3138.850298	915.908392
3140.020010	924.964336
3141.191043	927.706294
3142.360405	934.740559
3143.528098	933.123077
3144.698606	928.199301
3145.864455	918.634965
3147.034614	920.123776
3148.200115	916.237063
3149.365443	920.420280
3150.530597	931.752448
3151.695578	939.102797
3152.861878	943.544755
3154.023525	950.960839
3155.186493	960.233566
3156.349287	974.258042
3157.511909	971.379021
3158.672866	960.432168
3159.833650	952.853147
3160.994263	948.226573
3162.153211	947.397203
3163.311987	951.195804
3164.470592	953.194406
3165.629025	966.512587
3166.787286	977.912587
3167.943885	982.818881
3169.098823	993.301399
3170.255080	1006.897902
3171.409677	1006.235664
3172.564102	995.332867
3173.716868	991.469930
3174.869464	996.204196
3176.021890	982.613287
3177.174145	962.326573
3178.326231	954.868531
3179.475170	954.971329
3180.626916	946.536364
3181.777005	957.291608
3182.925436	970.558042
3184.073699	988.129371
3185.221793	997.077622
3186.369717	1008.880420
3187.515987	1028.720280
3188.662088	1036.059441
3189.806535	1031.283916
3190.950813	1031.899301
3192.094924	1024.306993
3193.240353	1004.145455
3194.382643	985.310490
3195.524765	977.398601
3196.666721	975.116084
3197.808509	965.318881
3198.950130	971.131469
3200.088615	974.415385
3201.228419	976.816084
3202.369539	990.180420
3203.507525	1001.948252
3204.643862	1007.090210
3205.780033	1005.420979
3206.917522	997.029371
3208.053362	992.923776
3209.190518	993.343357
3210.323063	990.437762
3211.459888	981.387413
3212.592102	979.659441
3213.725634	967.858042
3214.859000	960.888811
3215.989239	964.918182
3217.122277	955.717483
3218.252187	948.599301
3219.383415	945.830769
3220.511517	930.770629
3221.642417	937.374825
3222.771672	937.466434
3223.899283	933.795804
3225.023773	944.527972
3226.152538	954.362937
3227.278181	962.748951
3228.403661	956.292308
3229.527500	968.216084
3230.654134	977.088112
3231.776169	966.537762
3232.899521	957.260140
3234.022711	938.019580
3235.145739	940.872727
3236.267127	939.914685
3237.388354	943.858741
3238.507942	957.595804
3239.627369	970.323776
3240.745159	979.456643
3241.865740	983.986713
3242.983208	1010.501399
3244.100515	1005.895804
3245.217661	1005.645455
3246.333172	1014.353147
3247.449998	1005.246154
3248.563713	1008.707692
3249.680219	1003.197203
3250.795089	1007.055944
3251.906851	1012.331469
3253.018454	1005.362937
3254.131372	1009.512587
3255.244130	1012.378322
3256.353782	1019.386014
3257.464749	1003.390909
3258.575557	1016.922378
3259.684733	1028.041259
3260.792278	1022.182517
3261.901138	1023.602797
3263.009839	1025.778322
3264.115438	1040.518182
3265.222352	1039.804196
3266.327636	1030.891608
3267.434234	1036.493007
3268.537732	1032.879720
3269.642544	1031.901399
3270.747199	1035.337063
3271.848756	1038.967832
3272.950156	1043.595105
3274.052870	1043.753846
3275.155427	1055.876923
3276.254889	1066.137762
3277.357133	1071.988112
3278.456283	1067.798601
3279.553807	1063.877622
3280.651176	1055.061538
3281.751328	1047.081119
3282.848386	1043.109790
3283.945290	1043.430070
3285.042038	1038.162937
3286.134227	1033.937762
3287.230666	1042.192308
3288.325482	1042.260140
3289.420143	1042.501399
3290.513183	1042.345455
3291.606069	1037.013287
3292.697334	1021.130070
3293.789912	1001.922378
3294.880870	1012.632867
3295.970208	1011.526573
3297.059393	1018.055944
3298.149890	1022.684615
3299.237303	1025.219580
3300.324564	1045.162937
3301.413137	1039.495804
3302.501557	1054.719580
3303.585430	1054.436364
3304.673545	1039.562238
3305.758579	1023.644755
3306.841997	1038.304196
3307.926727	1055.596503
3309.009841	1061.289510
3310.094267	1065.650350
3311.175615	1073.954545
3312.258275	1079.086014
3313.339321	1080.744755
3314.420216	1068.659441
3315.499498	1064.800000
3316.578629	1058.224476
3317.659072	1042.275524
3318.736440	1043.586014
3319.815120	1042.662937
3320.892188	1032.923776
3321.969106	1037.413287
3323.044414	1038.781119
3324.119572	1037.086713
3325.196041	1042.846154
3326.269439	1038.247552
3327.342689	1040.595105
3328.417250	1051.745455
3329.490201	1066.197902
3330.561545	1059.858741
3331.634199	1058.277622
3332.703786	1037.230070
3333.774684	1040.582517
3334.843975	1051.157343
3335.914577	1054.574126
3336.983572	1046.030769
3338.050961	1060.685315
3339.116745	1061.313287
3340.186755	1077.636364
3341.253702	1087.075524
3342.317587	1078.544056
3343.384240	1074.629371
3344.449289	1058.069231
3345.512734	1049.198601
3346.576032	1060.206294
3347.639185	1073.099301
3348.702191	1078.562937
3349.765050	1081.303497
3350.826308	1090.420280
3351.884509	1108.273427
3352.946931	1118.100000
3354.006296	1114.475524
3355.065517	1112.913986
3356.126046	1114.649650
3357.182066	1104.639860
3358.240851	1103.108392
3359.295128	1113.917483
3360.352169	1120.306294
3361.407611	1121.950350
3362.464362	1122.886713
3363.519516	1119.004196
3364.573072	1127.115385
3365.625031	1122.376224
3366.679752	1119.425874
3367.731425	1115.090210
3368.782953	1112.245455
3369.835791	1106.262238
3370.885581	1100.057343
3371.936680	1110.946154
3372.984732	1113.875524
3374.035545	1105.348951
3375.083312	1103.148951
3376.130937	1102.372727
3377.178420	1108.090909
3378.224309	1100.945455
3379.271508	1107.168531
3380.315663	1105.386713
3381.362577	1100.048252
3382.407899	1094.339161
3383.450181	1088.156643
3384.492321	1101.545455
3385.535770	1105.376923
3386.579077	1091.095105
3387.620794	1100.937762
3388.662370	1102.240559
3389.703806	1107.097902
3390.743653	1105.471329
3391.781911	1122.437762
3392.821477	1120.426573
3393.860903	1121.563636
3394.898741	1119.075524
3395.934992	1117.965035
3396.971103	1128.185315
3398.008522	1125.716783
3399.042908	1121.251049
3400.078602	1125.288112
3401.114156	1106.060839
3402.146678	1105.789510
3403.181954	1109.837063
3404.214199	1113.043357
3405.246306	1124.601399
3406.276829	1138.211189
3407.308660	1149.169930
3408.340352	1166.300000
3409.369016	1181.067133
3410.397542	1191.530070
3411.427376	1189.486014
3412.457072	1168.560140
3413.483741	1147.502797
3414.511718	1142.567133
3415.536670	1137.380420
3416.564372	1131.958741
3417.589051	1145.383217
3418.615036	1159.006294
3419.639442	1167.961538
3420.663710	1169.162238
3421.686400	1181.748951
3422.708955	1187.149650
3423.732814	1191.338462
3424.753654	1184.648252
3425.774359	1190.427672
3426.796369	1195.521379
3427.815361	1198.615385
3428.834218	1198.395704
3429.854381	1193.548352
3430.871526	1182.759341
