-118.385087	27.150275
-115.715486	23.742857
-113.048821	23.097153
-110.382909	24.559141
-107.719928	27.474800
-105.055517	31.190110
-102.394037	35.051049
-99.731128	37.751748
-97.073326	35.665734
-94.414093	35.486713
-91.755609	37.503497
-89.100050	37.276224
-86.443062	36.388112
-83.791171	33.306294
-81.137851	33.365734
-78.487451	32.223776
-75.835621	33.280420
-73.188882	36.972727
-70.540713	36.048252
-67.893288	35.421678
-65.248776	34.998601
-62.602835	36.536364
-59.961977	38.881818
-57.319688	36.205594
-54.680309	36.849650
-52.039501	37.744755
-49.399432	42.746154
-46.764437	46.141259
-44.128012	50.407692
-41.494491	54.172028
-38.859540	60.795804
-36.229656	67.030769
-33.596178	72.000000
-30.967763	78.254545
-28.340082	79.811189
-25.710973	50.420280
-23.086920	-162.416084
-20.459278	-931.300699
-17.836689	-2208.541259
-15.214831	-2731.228671
-12.593704	1842.313287
-9.973308	11103.003497
-7.355799	19130.788811
-4.736862	24782.638462
-2.120811	28019.879021
0.494512	28841.273427
3.109108	27251.976923
5.720822	23274.700000
8.333963	17030.248951
10.942071	9050.274126
13.553761	1063.262238
16.160420	-3984.730070
18.768507	-3255.432867
21.375870	-399.204196
23.978208	99.340559
26.584124	103.025874
29.185019	93.564336
31.787341	86.451748
34.384645	80.455944
36.985525	70.772727
39.581391	65.511888
42.178684	63.821678
44.775258	63.715385
47.366823	57.862937
49.959816	56.426573
52.549948	49.504895
55.141508	44.572727
57.730208	41.462937
60.320336	39.133566
62.905464	37.127972
65.492020	38.100699
68.077861	39.605594
70.660849	40.781119
73.245264	43.376923
75.822549	45.265734
78.403401	42.593007
80.981404	42.499301
83.558697	40.744755
86.137416	38.402797
88.711154	36.881119
91.286318	35.033566
93.858639	36.715385
96.430253	39.960140
98.999026	41.984615
101.569226	44.663636
104.136587	45.725175
106.705375	47.833566
109.271325	49.153846
111.834441	52.281119
114.401114	55.316783
116.958564	60.695105
119.521700	67.944755
122.079877	80.655245
124.641607	109.987413
127.198382	160.634266
129.756582	236.847552
132.309830	334.789510
134.862379	459.853147
137.418480	597.088112
139.969632	743.250350
142.520086	887.908392
145.069844	1023.593706
147.616782	1136.464336
150.163024	1224.130070
152.710693	1277.434965
155.257665	1308.516783
157.799701	1316.900000
160.341044	1315.416084
162.881695	1299.301399
165.423770	1282.784615
167.963035	1258.015385
170.499490	1239.071329
173.035255	1218.479021
175.572445	1209.132867
178.108943	1206.432867
180.642636	1223.568531
183.173526	1236.056643
185.703727	1261.018182
188.235353	1289.406993
190.764179	1321.134266
193.290205	1346.025874
195.815545	1368.746853
198.342310	1381.939860
200.866279	1389.841958
203.389562	1381.079021
205.912161	1374.426573
208.431967	1367.492308
210.951090	1367.820979
213.469530	1367.100699
215.989394	1373.744056
218.502257	1382.768531
221.018651	1377.051748
223.534364	1376.685315
226.045186	1371.713287
228.557433	1367.053147
231.066897	1368.032867
233.575683	1357.481119
236.083791	1353.141958
238.593323	1350.816783
241.097974	1353.362238
243.601949	1359.604196
246.107348	1359.717483
248.607872	1370.358042
251.111919	1453.077622
253.608996	1700.744755
256.109595	2071.366434
258.607423	2464.482517
261.104578	2784.382517
263.601060	2987.835664
266.092680	3068.288112
268.587818	3012.182517
271.080191	2823.038462
273.571893	2533.683916
276.060832	2176.527972
278.551194	1837.472028
281.038795	1609.426573
283.523636	1528.118182
286.011991	1515.359441
288.493408	1498.441259
290.978338	1453.560839
293.458422	1397.500699
295.942019	1339.606294
298.420774	1276.482517
300.900951	1224.495804
303.378377	1189.975524
305.855139	1182.208392
308.331237	1202.755245
310.804587	1246.520979
313.277276	1291.843357
315.749303	1334.571329
318.220668	1371.679720
320.689290	1391.378322
323.157252	1398.487413
325.626637	1394.898601
328.091199	1374.287413
330.559264	1345.452448
333.022510	1306.204895
335.485099	1279.046853
337.947030	1260.748951
340.408305	1261.420979
342.866846	1259.290909
345.326809	1260.713287
347.784040	1261.702797
350.240616	1255.824476
352.696537	1251.676224
355.149730	1246.514685
357.604345	1238.385315
360.054158	1227.134965
362.507467	1216.148252
364.955977	1206.483217
367.403837	1199.027273
369.853118	1192.990210
372.297606	1182.879720
374.743516	1177.194406
377.188777	1175.441259
379.631319	1171.141259
382.073213	1167.416084
384.514459	1163.186713
386.952990	1160.965734
389.392943	1154.686014
391.830182	1145.660839
394.264709	1138.620979
396.702724	1135.643357
399.135962	1134.233566
401.570622	1133.619580
404.000509	1137.137063
406.433881	1142.162238
408.862482	1151.461538
411.290443	1156.746154
413.719824	1163.072028
416.144441	1172.670629
418.570478	1174.445455
420.995876	1173.437063
423.420633	1176.862238
425.840631	1177.341259
428.262051	1176.191608
430.680774	1175.208392
433.100918	1178.053846
435.518367	1180.075524
437.937236	1184.277622
440.353412	1181.283916
442.764841	1182.613287
445.179746	1182.821678
447.591961	1182.297902
450.003542	1182.349650
452.414489	1180.990210
454.822750	1174.286014
457.230379	1165.708392
459.637375	1160.109790
462.043739	1152.723776
464.447422	1144.682517
466.850474	1134.930070
469.252896	1124.713287
471.654688	1121.665035
474.053802	1119.922378
476.454336	1127.490210
478.854241	1132.278322
481.249423	1143.412587
483.648072	1150.758042
486.042001	1153.573427
488.435304	1155.866434
490.827981	1152.398601
493.220033	1146.770629
495.613504	1133.634965
498.002262	1115.213287
500.388354	1095.758741
502.775866	1070.594406
505.162754	1045.787413
507.546979	1021.855944
509.932623	1001.917483
512.315604	973.339860
514.695925	950.269231
517.077665	936.850350
519.456746	927.271329
521.837246	921.945455
524.215088	914.881119
526.590275	910.724476
528.964844	903.555245
531.340832	893.380420
533.714166	883.857343
536.088919	876.032168
538.458985	860.203497
540.828436	845.523077
543.199306	830.753147
545.565494	822.060839
547.933101	810.925874
550.298062	807.058741
552.662410	799.681119
555.026146	797.438462
557.391299	792.909091
559.751780	789.861538
562.113678	788.336364
564.472937	790.400699
566.829557	785.723077
569.189623	785.178322
571.542997	778.905594
573.899816	780.130070
576.254000	776.920979
578.607575	776.158741
580.960542	770.330769
583.310878	768.638462
585.662630	764.603497
588.007706	763.551748
590.358246	766.239161
592.702113	766.597902
595.051441	766.549650
597.396120	769.438462
599.738175	768.111189
602.081647	769.946853
604.422496	767.517483
606.762742	762.427972
609.100368	755.969930
611.441429	750.439860
613.777853	747.526573
616.115693	745.258741
618.450915	744.396503
620.783522	739.094406
623.117546	736.595105
625.448955	735.452448
627.779766	733.541958
630.109979	730.700000
632.439595	727.910490
634.764587	726.353147
637.095021	721.308392
639.420833	720.564336
641.744039	722.202797
644.068661	721.119580
646.390677	721.688112
648.712099	718.100699
651.030918	719.150350
653.351153	720.667832
655.670795	721.748252
657.987836	720.503497
660.304286	720.325874
662.618137	721.008392
664.933403	718.174825
667.246073	717.579021
669.560158	719.228671
671.869644	717.167133
674.180544	717.187413
676.488852	716.339161
678.796572	716.379720
681.105707	711.979720
683.410249	707.958042
685.714205	703.989510
688.017574	696.171329
690.322358	689.082517
692.622556	680.344056
694.924169	673.642657
697.225196	673.067133
699.521642	669.037063
701.819502	671.960140
704.116780	675.391608
706.413473	676.677622
708.705591	674.324476
711.001120	670.646154
713.292076	663.323776
715.584446	658.623077
717.874240	652.364336
720.163455	644.289510
722.452089	640.826573
724.738152	641.908392
727.025628	646.355944
729.310534	652.136364
731.594861	656.956643
733.876621	655.843357
736.159794	659.119580
738.442390	658.487413
740.720430	656.877622
742.999884	661.377622
745.278763	662.811888
747.557066	661.816084
749.830820	663.388811
752.105988	668.421678
754.380582	673.416084
756.652617	669.993706
758.926065	664.647552
761.196955	662.453846
763.465288	664.758741
765.735036	663.500699
768.002228	663.465734
770.268850	663.034965
772.534903	664.979021
774.798404	667.232867
777.063317	670.187413
779.327662	678.427972
781.587476	680.492308
783.848704	679.086713
786.109364	680.109790
788.367477	681.436364
790.623046	676.138462
792.882006	677.348252
795.134467	675.828671
797.392295	673.546154
799.645604	670.402098
801.896372	669.028671
804.148553	666.653846
806.398196	662.853147
808.649250	656.932867
810.895793	655.118182
813.143749	652.058042
815.389169	643.715385
817.636002	635.479720
819.882272	634.314685
822.124039	634.621678
824.369188	630.225175
826.607865	627.925175
828.849925	628.655245
831.087486	622.509091
833.326458	613.908392
835.562904	608.847552
837.800762	608.136364
840.036094	609.486014
842.268902	603.793007
844.503122	596.054545
846.734820	595.609790
848.965963	595.928671
851.196551	595.326573
853.426585	595.894406
855.656064	595.749650
857.881063	589.995804
860.109435	591.604895
862.333329	594.074126
864.558633	601.441958
866.779462	603.767832
869.003663	605.476923
871.223391	604.978322
873.444530	607.063636
875.665118	607.703497
877.883197	613.481818
880.102685	611.919580
882.317707	621.941958
884.532181	620.525874
886.746108	625.156643
888.959487	625.076224
891.172320	625.720979
893.384605	624.808392
895.594389	628.379021
897.803627	623.832867
900.012319	614.827972
902.218513	619.352448
904.426116	623.925175
906.631222	625.022378
908.835784	629.845455
911.037851	615.216084
913.241327	617.358741
915.442309	615.615385
917.642749	615.534965
919.844598	612.300699
922.040056	618.869930
924.238872	618.553147
926.433251	615.069231
928.630987	635.255245
930.824287	635.232168
933.018995	634.434965
935.211218	631.027972
937.402903	618.572727
939.594050	622.005594
941.782714	625.469231
943.970841	633.623776
946.156488	633.369930
948.345487	645.176923
950.530063	643.825874
952.714104	653.372727
954.901495	678.147552
957.080583	678.765035
959.263020	689.302797
961.444924	703.090909
963.624354	717.275524
965.801311	726.913986
967.979676	735.299301
970.159447	748.620280
972.332870	749.993706
974.509639	744.172028
976.682002	741.246154
978.855771	738.886713
981.025138	732.806993
983.197848	725.037762
985.368092	737.475524
987.537808	766.873427
989.706995	790.875524
991.871785	784.560839
994.039917	788.177622
996.203653	799.830070
998.368797	810.918881
1000.531481	820.781119
1002.693640	834.916783
1004.853341	830.219580
1007.012519	835.305594
1009.173103	842.093706
1011.331232	851.244056
1013.488837	856.182517
1015.645919	854.049650
1017.802478	849.103497
1019.954657	851.701399
1022.108243	852.515385
1024.261306	864.264336
1026.411922	880.949650
1028.563943	897.740559
1030.711591	902.506993
1032.862571	924.713986
1035.009181	941.335664
1037.155271	925.859441
1039.300843	919.767133
1041.447819	921.563636
1043.588508	937.380420
1045.732525	934.658042
1047.874103	917.976224
1050.015163	915.832867
1052.157628	924.164336
1054.293814	941.042657
1056.433326	950.976224
1058.568482	987.495105
1060.706963	1000.336364
1062.841091	999.984615
1064.974705	999.297902
1067.109723	1013.705594
1069.240392	1002.011888
1071.372467	986.400699
1073.502111	946.531469
1075.631244	939.705594
1077.759866	919.072727
1079.887976	907.092308
1082.013660	917.232168
1084.138834	925.618881
1086.265411	918.088811
1088.387652	927.339161
1090.511297	909.418182
1092.630607	931.796503
1094.755146	903.839860
1096.873441	913.397203
1098.993139	908.059441
1101.110419	902.369231
1103.227193	867.376224
1105.343460	867.909091
1107.457312	868.037063
1109.572567	859.389510
1111.683500	839.632867
1113.797744	825.260839
1115.907669	807.819580
1118.018996	818.829371
1120.129820	796.914685
1122.236327	808.192308
1124.346143	807.411189
1126.451645	788.666434
1128.558551	778.130070
1130.659240	772.853147
1132.765142	756.913287
1134.866735	755.145455
1136.969731	742.806993
1139.072226	739.273427
1141.168515	735.151748
1143.270010	741.231469
1145.367203	729.859441
1147.463897	725.791608
1149.560094	722.434266
1151.655792	721.183217
1153.750993	714.847552
1155.843797	699.567832
1157.938003	697.355245
1160.026018	699.648252
1162.119231	717.841958
1164.206256	721.711888
1166.296581	723.872727
1168.382617	722.502098
1170.471951	717.126573
1172.555104	710.883916
1174.639660	708.931469
1176.725616	702.232867
1178.807291	698.342657
1180.890368	683.534965
1182.971059	680.350350
1185.051259	683.190210
1187.130967	703.092308
1189.210183	704.662937
1191.287018	713.765734
1193.361472	711.808392
1195.439218	710.698601
1197.512693	713.367832
1199.587570	706.079021
1201.658179	695.416783
1203.730189	688.093007
1205.799823	670.000000
1207.870858	664.519580
1209.941405	653.765734
1212.007691	649.900699
1214.075378	638.063636
1216.140693	642.544056
1218.207408	644.137762
1220.269867	646.276224
1222.335612	658.635664
1224.397102	659.709790
1226.459992	662.956643
1228.520515	668.260839
1230.580555	670.992308
1232.640111	672.065734
1234.697303	662.418182
1236.754012	658.930070
1238.808359	644.958741
1240.865986	657.253147
1242.921251	655.071329
1244.972275	651.959441
1247.024699	652.527273
1249.076644	649.551049
1251.126230	652.296503
1253.175337	652.780420
1255.223965	653.795105
1257.272115	661.460839
1259.319787	667.747552
1261.363228	676.756643
1263.409944	676.233566
1265.454308	686.825874
1267.498194	676.594406
1269.539730	668.697203
1271.578916	670.246154
1273.621374	664.074825
1275.659611	665.946154
1277.699245	666.663636
1279.738405	672.471329
1281.773347	676.868531
1283.809687	680.352448
1285.843682	691.701399
1287.879076	703.653846
1289.910256	707.878322
1291.942835	706.706993
1293.974941	709.181119
1296.004707	722.716783
1298.035871	717.518182
1300.062827	722.718881
1302.091181	723.800000
1304.115331	715.875524
1306.142746	698.697902
1308.165958	690.141259
1310.190568	684.999301
1312.212843	685.309790
1314.236516	669.969231
1316.257856	664.166434
1318.278729	668.360839
1320.299134	671.722378
1322.315345	669.387413
1324.332955	678.739860
1326.348236	675.376224
1328.366776	664.827972
1330.381126	647.616783
1332.393151	642.265734
1334.408434	637.603497
1336.419531	641.734965
1338.432024	637.210490
1340.440335	639.958042
1342.451902	643.616084
1344.457430	638.356643
1346.466212	638.055944
1348.470818	640.941259
1350.478677	634.835664
1352.486073	635.313986
1354.487439	631.334266
1356.490202	637.013986
1358.492505	641.161538
1360.494347	642.643357
1362.495731	642.057343
1364.494800	639.510490
1366.493411	637.544755
1368.491564	625.273427
1370.489259	621.393007
1372.482790	614.455245
1374.477718	607.883217
1376.472189	616.901399
1378.466203	624.521678
1380.457910	632.448951
1382.449161	632.559441
1384.438107	628.447552
1386.428448	634.523776
1388.418334	639.618182
1390.405917	640.044056
1392.393046	639.272727
1394.377873	637.149650
1396.364095	639.394406
1398.348016	640.711189
1400.331485	641.974825
1402.314502	641.649650
1404.295221	645.628671
1406.277334	636.565734
1408.257150	619.552448
1410.236516	625.872727
1412.211743	623.078322
1414.190208	621.239860
1416.166380	630.602098
1418.142102	640.255245
1420.117375	650.002797
1422.090357	643.772028
1424.062892	636.695105
1426.034978	640.892308
1428.006616	650.884615
1429.974127	647.432168
1431.946711	642.228671
1433.911489	649.313287
1435.881340	643.811189
1437.847066	646.578322
1439.814186	647.762238
1441.779022	648.658741
1443.739738	643.551748
1445.705522	637.674126
1447.665351	636.122378
1449.626573	642.448951
1451.589188	647.327273
1453.547688	655.027972
1455.505746	658.879720
1457.463361	658.281119
1459.420535	656.916084
1461.375433	667.306294
1463.331723	673.394406
1465.285739	683.679720
1467.239315	687.193007
1469.190618	686.930769
1471.143313	682.488112
1473.093737	686.579720
1475.043722	684.692308
1476.993267	682.465734
1478.940544	674.313986
1480.885554	674.333566
1482.831956	671.141958
1484.777920	676.883217
1486.723446	680.883217
1488.666708	684.409091
1490.609533	689.881119
1492.550095	683.144056
1494.492048	688.779720
1496.431740	692.330070
1498.370996	689.098601
1500.309818	678.583916
1502.246380	681.688811
1504.184332	681.004895
1506.120027	668.301399
1508.055288	664.102797
1509.988292	661.972727
1511.920864	665.727273
1513.853004	676.039860
1515.784712	687.897902
1517.714167	705.598601
1519.645011	705.845455
1521.575425	712.397902
1523.501766	710.576224
1525.429497	709.650350
1527.354978	696.713986
1529.280030	679.225874
1531.204653	664.010490
1533.128847	657.137063
1535.050794	649.551049
1536.974130	652.772727
1538.895221	669.052448
1540.814067	670.295105
1542.734303	684.011888
1544.652295	706.679720
1546.569861	720.879021
1548.485185	722.270629
1550.401899	730.037063
1552.314558	726.562937
1554.230421	718.131469
1556.144045	715.713986
1558.055430	703.500699
1559.968204	701.125175
1561.876929	704.527972
1563.787044	701.545455
1565.696735	710.237063
1567.606002	717.162238
1569.513036	723.709790
1571.417837	729.390210
1573.324027	747.177622
1575.227985	755.213986
1577.131523	755.132867
1579.034639	756.621678
1580.935527	750.618182
1582.837803	739.543357
1584.737850	735.706993
1586.639286	716.812587
1588.536687	709.366434
1590.433671	702.002098
1592.330236	707.331469
1594.228188	706.463636
1596.120306	710.556643
1598.015618	714.425874
1599.910511	717.904895
1601.803183	724.071329
1603.695439	724.655245
1605.585475	727.529371
1607.475095	757.056643
1609.364300	754.841958
1611.253089	772.602797
1613.139662	791.355245
1615.027621	797.816084
1616.911565	782.079720
1618.796895	773.477622
1620.681812	760.800000
1622.564515	747.060839
1624.448604	734.173427
1626.328683	730.444056
1628.210148	740.989510
1630.089403	755.728671
1631.970044	747.607692
1633.844881	767.961538
1635.724700	769.360839
1637.600513	767.602797
1639.475917	776.836364
1641.352706	777.854545
1643.223698	769.775524
1645.097872	761.913986
1646.968048	762.563636
1648.841404	755.307692
1650.712557	756.103497
1652.581508	751.718881
1654.451845	740.513287
1656.318188	727.181818
1658.185918	710.218881
1660.051448	739.032168
1661.918363	754.337063
1663.781290	776.099301
1665.645602	789.219580
1667.507719	799.412587
1669.369430	812.055245
1671.232526	814.283217
1673.093428	819.716783
1674.952136	833.093007
1676.810441	837.543357
1678.670131	826.998601
1680.524054	854.233566
1682.381149	864.276224
1684.237842	849.478322
1686.090559	864.102098
1687.946447	858.774126
1689.798361	840.176224
1691.649873	841.455944
1693.500986	833.143357
1695.351697	836.659441
1697.202008	834.961538
1699.050135	842.002797
1700.899645	853.032867
1702.743407	880.687413
1704.592119	877.917483
1706.435084	884.179720
1708.281215	896.530769
1710.123385	887.462937
1711.968719	880.523077
1713.808313	883.520280
1715.649291	865.575524
1717.491652	866.186713
1719.330057	847.047552
1721.169845	872.717483
1723.007458	888.437063
1724.844675	909.480420
1726.679719	918.630070
1728.516146	912.266434
1730.350401	902.242657
1732.184262	886.674825
1734.017728	879.967133
1735.847248	867.332867
1737.679927	869.981818
1739.508662	861.209790
1741.340555	862.035664
1743.168505	876.821678
1744.996063	885.631469
1746.823230	907.165734
1748.650004	915.764336
1750.476388	919.101399
1752.298835	934.802797
1754.124436	937.899301
1755.946103	917.816783
1757.769152	901.455944
1759.590040	904.074825
1761.410538	870.230769
1763.232418	855.360140
1765.048598	857.267133
1766.867930	883.802797
1768.683335	907.816084
1770.501891	915.063636
1772.316521	934.098601
1774.130764	949.411888
1775.944621	935.156643
1777.758091	894.075524
1779.569407	861.657343
1781.382105	850.029371
1783.194416	833.657343
1785.002810	840.795804
1786.812585	848.526573
1788.618444	859.772727
1790.427450	860.445455
1792.232542	842.295105
1794.039014	855.748252
1795.845103	850.718881
1797.647282	837.831469
1799.452604	832.502098
1801.254018	830.431469
1803.056812	844.967832
1804.855701	858.006993
1806.655969	875.621678
1808.455857	871.649650
1810.253602	870.367832
1812.050967	878.855944
1813.847951	844.687413
1815.644555	834.944056
1817.439020	826.615385
1819.234865	829.288112
1821.025054	843.830070
1822.820140	842.807692
1824.609573	835.416084
1826.402144	828.123077
1828.192579	825.362238
1829.980879	827.000000
1831.772315	815.795804
1833.558105	814.324476
1835.345275	778.667133
1837.130313	781.794406
1838.918485	792.449650
1840.702771	797.215385
1842.484928	799.675524
1844.268463	798.951748
1846.049871	785.645455
1847.832656	787.441958
1849.611562	786.403497
1851.391846	791.781818
1853.170005	793.637063
1854.949541	792.123776
1856.726953	787.821678
1858.502241	792.911888
1860.278908	779.827972
1862.053452	778.462937
1863.829373	773.425175
1865.599675	782.229371
1867.373104	779.206993
1869.144413	790.076923
1870.915351	799.084615
1872.687666	800.701399
1874.454369	813.416084
1876.224196	810.371329
1877.990160	818.609790
1879.759248	808.245455
1881.524474	803.898601
1883.289332	809.783916
1885.055566	808.095105
1886.817942	816.983916
1888.579951	806.525175
1890.341593	813.542657
1892.102867	796.655944
1893.863775	786.824476
1895.624315	779.716084
1897.382746	770.665734
1899.140812	768.316084
1900.896770	762.693706
1902.654104	751.979720
1904.411072	753.590909
1906.165935	766.381119
1907.918692	767.634266
1909.671086	772.388811
1911.424856	776.528671
1913.176522	773.139860
1914.926085	776.421678
1916.677025	780.829371
1918.427601	787.330769
1920.174339	782.364336
1921.922452	768.850350
1923.668466	753.495105
1925.415856	758.007692
1927.161147	756.134965
1928.904341	740.473427
1930.648911	744.643357
1932.391384	728.821678
1934.133497	745.817483
1935.875251	754.892308
1937.616644	773.616783
1939.355944	773.366434
1941.094885	776.205594
1942.833467	766.939161
1944.569957	766.562238
1946.306090	762.064336
1948.043597	753.613986
1949.777283	739.220280
1951.512343	739.995804
1953.245314	731.034266
1954.977929	742.590909
1956.710187	745.681818
1958.442089	754.501399
1960.171905	757.709790
1961.899637	766.500699
1963.628742	762.547552
1965.357493	770.236364
1967.084160	781.457343
1968.810473	780.268531
1970.538159	776.258042
1972.260309	772.060839
1973.985561	773.588811
1975.707005	763.907692
1977.431549	745.589510
1979.154014	751.153846
1980.872675	736.368531
1982.594435	728.053147
1984.312393	722.678322
1986.031725	725.490210
1987.747256	736.926573
1989.467609	731.895105
1991.184162	731.839860
1992.896920	740.875524
1994.612773	759.052448
1996.326554	765.690909
1998.039984	774.286014
1999.751344	790.978322
2001.464077	789.077622
2003.173018	796.500699
2004.885053	788.167133
2006.591578	792.861538
2008.301196	789.341259
2010.008746	777.290909
2011.715949	773.642657
2013.421086	778.443357
2015.125876	785.297203
2016.832038	785.802098
2018.534418	785.576224
2020.238170	785.499301
2021.939859	780.325175
2023.641202	771.932168
2025.342200	757.537063
2027.041138	756.546154
2028.741447	744.129371
2030.437980	749.065734
2032.135885	749.173427
2033.831732	750.033566
2035.530664	740.095105
2037.224110	733.851049
2038.918927	740.278322
2040.613401	745.109091
2042.304107	740.809091
2043.997897	743.184615
2045.687920	751.473427
2047.379314	756.791608
2049.068655	766.749650
2050.759366	782.616084
2052.446315	786.560839
2054.132923	785.905594
2055.820902	780.133566
2057.505121	770.812587
2059.190710	765.927972
2060.875960	751.286713
2062.559162	741.765734
2064.243734	739.947552
2065.922842	749.548951
2067.606736	753.474825
2069.285170	764.904895
2070.966681	765.311888
2072.644440	769.602098
2074.321863	761.008392
2076.000655	760.937762
2077.677404	751.395105
2079.352112	747.817483
2081.028189	740.234266
2082.702226	743.027972
2084.375927	754.386014
2086.049293	770.056643
2087.720621	780.374126
2089.391614	779.684615
2091.062273	769.956643
2092.732598	761.856643
2094.402588	752.403497
2096.070543	751.558741
2097.738165	748.142657
2099.403753	742.605594
2101.070709	734.279021
2102.735632	734.044755
2104.400222	748.385315
2106.062781	753.493706
2107.726709	763.935664
2109.388605	764.320979
2111.050170	771.052448
2112.711405	776.525874
2114.370610	781.376923
2116.029486	774.146853
2117.688031	770.232867
2119.346247	760.889510
2121.000739	747.423776
2122.658297	751.023077
2124.315524	753.924476
2125.969031	752.363636
2127.623905	766.481119
2129.275060	781.449650
2130.929278	802.574126
2132.579778	806.071329
2134.231646	819.359441
2135.878105	817.970629
2137.529318	820.869231
2139.176818	814.541958
2140.825686	799.974825
2142.472534	789.518881
2144.119056	780.111189
2145.765254	772.894406
2147.407742	770.994406
2149.053289	775.589510
2150.695129	767.673427
2152.340026	768.555245
2153.981218	779.451748
2155.622086	781.763636
2157.262631	800.613287
2158.901163	796.063636
2160.541061	796.919580
2162.177259	797.444056
2163.814823	799.825175
2165.452065	793.248951
2167.087297	783.800000
2168.722207	785.487413
2170.356796	773.406993
2171.991064	781.699301
2173.621638	776.272727
2175.255263	783.783217
2176.885197	787.881818
2178.516496	784.121678
2180.145791	787.344755
2181.774765	789.128671
2183.403421	785.569930
2185.031757	783.844056
2186.658090	776.897203
2188.284105	782.883217
2189.908119	790.864336
2191.533498	789.258741
2193.156876	784.074126
2194.781619	781.283916
2196.402680	774.511888
2198.023426	784.183916
2199.645535	789.409790
2201.265647	798.496503
2202.883763	797.258741
2204.501563	812.657343
2206.119047	807.293007
2207.736216	813.129371
2209.353070	815.500699
2210.969609	802.734965
2212.584154	798.132867
2214.196707	789.395105
2215.810625	799.054545
2217.422550	806.086713
2219.035840	804.405594
2220.647138	812.414685
2222.256448	814.479720
2223.867120	816.727972
2225.475804	807.465734
2227.084176	816.051748
2228.690560	824.664336
2230.298308	831.672028
2231.904069	840.600699
2233.509519	829.574825
2235.112985	834.527972
2236.717813	825.228671
2238.320657	814.744056
2239.921518	812.171329
2241.523742	795.535664
2243.123983	783.015385
2244.725588	781.077622
2246.323539	793.161538
2247.922853	812.311888
2249.520187	827.534266
2251.117213	828.648951
2252.715600	820.109790
2254.310339	830.118881
2255.903102	842.398601
2257.497226	849.915385
2259.092712	846.300699
2260.684554	844.890909
2262.276089	845.216084
2263.868985	833.376224
2265.456572	830.362238
2267.048856	830.306294
2268.635832	817.058042
2270.225837	803.743357
2271.810537	811.206294
2273.399931	826.781119
2274.984022	835.673427
2276.569475	835.560839
2278.152959	854.679021
2279.739468	863.081818
2281.322344	873.770629
2282.904916	871.174825
2284.487186	868.135664
2286.065825	855.985315
2287.647488	838.117483
2289.225524	841.025175
2290.806582	834.916783
2292.384013	827.692308
2293.959481	810.108392
2295.537971	800.422378
2297.112836	806.700000
2298.687401	804.481119
2300.261666	823.771329
2301.835630	830.267832
2303.409294	841.725874
2304.982657	846.661538
2306.552402	853.416783
2308.121848	867.113986
2309.694313	877.458042
2311.261503	884.772028
2312.831710	891.863636
2314.398303	900.723776
2315.966256	905.716783
2317.532254	924.337762
2319.097954	933.313287
2320.663356	924.056643
2322.226805	934.327273
2323.791613	934.497902
2325.352812	911.083916
2326.917026	902.742657
2328.475979	902.506993
2330.037945	896.525175
2331.597961	898.726573
2333.157681	898.684615
2334.715452	884.600699
2336.272929	896.004196
2337.830110	889.751049
2339.385345	877.086713
2340.940285	888.491608
2342.494932	866.230769
2344.049285	839.879720
2345.603344	833.571329
2347.157110	834.634266
2348.708931	835.747552
2350.258809	828.739860
2351.811695	844.686014
2353.359339	861.457343
2354.909990	889.411888
2356.457051	897.072727
2358.005469	913.397902
2359.553595	932.444755
2361.098134	937.375524
2362.644030	949.683916
2364.187987	948.903497
2365.733302	938.537063
2367.275032	926.458042
2368.818120	922.653846
2370.359271	919.721678
2371.900133	899.342657
2373.440706	898.156643
2374.980990	894.271329
2376.520985	897.665035
2378.057401	903.168531
2379.596819	931.256643
2381.132660	936.707692
2382.669857	946.509091
2384.203480	955.244755
2385.740102	948.031469
2387.274793	955.509091
2388.807555	937.918881
2390.340031	916.125874
2391.870578	928.969231
2393.404123	920.497902
2394.932457	915.041958
2396.462147	900.883916
2397.991552	915.747552
2399.520672	916.812587
2401.049506	942.197203
2402.573136	950.707692
2404.101401	952.313986
2405.624463	958.262937
2407.152160	951.738462
2408.673016	953.297203
2410.198506	958.647552
2411.720436	944.790210
2413.243720	947.022378
2414.765084	946.955245
2416.284528	975.819580
2417.805327	999.662937
2419.324207	1030.346853
2420.842805	1038.406294
2422.359486	1060.376923
2423.877522	1062.847552
2425.395276	1048.334965
2426.909478	1043.027273
2428.423400	1020.284615
2429.937043	1012.371329
2431.452039	1004.907692
2432.963487	1000.048252
2434.476290	995.593706
2435.987180	990.415385
2437.497790	1003.386014
2439.006489	1007.873427
2440.518175	1013.607692
2442.026317	1016.642657
2443.534180	988.167133
2445.041766	999.900000
2446.545812	1000.728671
2448.052842	1018.165734
2449.557964	997.505594
2451.062809	985.561538
2452.565747	967.428671
2454.068408	958.867133
2455.570793	964.486713
2457.071273	961.546154
2458.573106	967.188112
2460.073035	969.880420
2461.572688	970.903497
2463.072066	965.511189
2464.569541	959.704895
2466.065114	961.386713
2467.563667	939.555944
2469.058691	930.960140
2470.555069	911.040559
2472.047920	881.646853
2473.542123	888.948252
2475.036053	891.055944
2476.526460	913.744755
2478.019844	924.946154
2479.511329	929.104895
2481.000918	914.141958
2482.490236	932.567133
2483.977657	934.304895
2485.468054	946.042657
2486.954932	963.321678
2488.443162	948.633566
2489.927876	949.698601
2491.412319	983.892308
2492.898114	994.153846
2494.382016	998.655944
2495.867270	997.195105
2497.347390	971.644755
2498.830482	962.220979
2500.311684	953.767133
2501.792617	921.860140
2503.271661	912.379021
2504.750437	907.990909
2506.228944	887.018182
2507.707182	900.404895
2509.185152	922.308392
2510.659618	920.988811
2512.137052	920.143357
2513.610983	933.027273
2515.086265	923.252448
2516.561279	937.396503
2518.032792	932.232867
2519.505656	922.090909
2520.976637	925.611888
2522.448967	933.164336
2523.916185	919.111189
2525.386369	907.919580
2526.854671	914.539860
2528.322709	906.976224
2529.790482	914.277622
2531.257990	909.202098
2532.725233	895.055245
2534.188985	905.280420
2535.654086	905.230070
2537.117310	915.579720
2538.581883	926.371329
2540.042967	931.416783
2541.505402	912.348951
2542.967573	906.106993
2544.426257	908.224476
2545.889514	917.493007
2547.347674	923.125874
2548.807183	914.241259
2550.261599	907.732168
2551.720585	913.064336
2553.177698	915.579720
2554.632941	928.925175
2556.087923	933.618182
2557.541035	913.782517
2558.995496	916.220979
2560.448088	919.664336
2561.900420	921.981119
2563.350884	941.433566
2564.804304	934.566434
2566.252642	926.007692
2567.703936	932.234266
2569.153363	931.929371
2570.599319	930.996503
2572.048229	931.247552
2573.493668	933.750350
2574.940456	915.237063
2576.385380	931.706294
2577.830047	935.439860
2579.276061	936.295105
2580.718608	929.976923
2582.162503	917.190909
2583.602933	918.783916
2585.044711	929.315385
2586.484629	919.479021
2587.925894	929.797902
2589.363697	930.674825
2590.804450	944.517483
2592.240140	933.232867
2593.678780	925.334965
2595.115563	917.455245
2596.550489	894.251049
2597.988364	873.511189
2599.421181	865.065734
2600.855345	864.104895
2602.287654	867.452448
2603.721310	879.688112
2605.153113	916.828671
2606.584663	927.923776
2608.015959	944.536364
2609.445404	940.242657
2610.874596	940.544056
2612.301937	933.879720
2613.730625	933.021678
2615.159060	919.047552
2616.584049	920.290210
2618.010383	916.997902
2619.434869	923.670629
2620.860701	927.955944
2622.283089	941.450350
2623.706823	945.320979
2625.128711	950.783916
2626.550348	952.549650
2627.970140	965.283217
2629.391278	965.732168
2630.812166	963.560839
2632.229616	951.302098
2633.650005	947.367133
2635.066957	928.912587
2636.483661	909.209790
2637.900116	882.554545
2639.316323	889.627972
2640.732281	882.849650
2642.146399	891.683916
2643.560270	901.030769
2644.972301	905.272028
2646.385677	907.325175
2647.795623	910.074126
2649.208505	924.768531
2650.617958	912.973427
2652.027165	895.351748
2653.434536	887.430769
2654.844841	878.037063
2656.253310	878.863636
2657.659944	863.315385
2659.066333	873.376923
2660.470888	883.747552
2661.876787	891.266434
2663.280853	897.732867
2664.684675	913.733566
2666.088252	928.397203
2667.489997	928.448252
2668.893086	946.516783
2670.292758	954.681119
2671.693773	951.829371
2673.091371	945.939860
2674.491900	948.126573
2675.889014	964.953147
2677.287471	963.977622
2678.684100	951.470629
2680.080488	938.512587
2681.476633	940.181818
2682.870952	943.404196
2684.266614	940.654545
2685.658866	949.415385
2687.052462	931.369930
2688.444233	922.124476
2689.837346	904.260839
2691.228636	895.723776
2692.618103	911.782517
2694.007331	909.166434
2695.396318	914.909790
2696.786648	923.188811
2698.171993	945.678322
2699.560263	950.397902
2700.946712	965.434266
2702.332922	961.700699
2703.718893	949.095105
2705.101466	938.633566
2706.485380	920.497902
2707.869057	912.589510
2709.252496	922.802098
2710.632539	922.810490
2712.013924	919.260839
2713.393493	920.051748
2714.774404	929.205594
2716.153500	926.891608
2717.530781	933.015385
2718.909404	919.730769
2720.286214	927.654545
2721.662788	930.513986
2723.039126	942.148252
2724.413652	948.134266
2725.789519	958.341958
2727.161999	962.523077
2728.537396	954.841259
2729.907831	969.616084
2731.279608	962.219580
2732.651151	958.953147
2734.020885	961.395804
2735.391959	967.931469
2736.761226	976.592308
2738.130259	985.622378
2739.497485	989.251748
2740.864479	982.797203
2742.231240	972.730769
2743.597768	962.120280
2744.962492	942.296503
2746.326983	933.652448
2747.691242	913.011888
2749.055270	909.404196
2750.419065	932.499301
2751.779487	944.591608
2753.142820	954.365035
2754.501210	966.305594
2755.862510	962.821678
2757.220439	961.894406
2758.581278	959.234965
2759.940316	966.279021
2761.295986	952.632867
2762.654565	940.183916
2764.009776	939.886713
2765.364758	935.423077
2766.717943	943.620280
2768.074035	947.094406
2769.426763	958.217483
2770.779262	975.323077
2772.131533	980.647552
2773.485143	973.782517
2774.835391	964.578322
2776.183846	961.473427
2777.535205	953.439161
2778.883205	945.227273
2780.232544	923.548252
2781.580090	909.965035
2782.927409	914.346154
2784.274502	911.461538
2785.619804	912.191608
2786.964880	923.767832
2788.309730	932.876923
2789.654354	930.771329
2790.995625	944.100000
2792.338235	956.229371
2793.680620	972.229371
2795.022779	974.814685
2796.361589	973.337762
2797.703299	974.067133
2799.041660	970.574126
2800.381359	946.730070
2801.719272	917.858741
2803.055401	921.969930
2804.391307	917.492308
2805.728549	936.871329
2807.064008	958.472727
2808.399244	966.532168
2809.732698	991.720280
2811.067488	1001.423077
2812.398937	1015.508392
2813.733282	1013.525175
2815.062729	1004.978322
2816.393513	1003.545455
2817.724075	1003.113986
2819.052858	1012.156643
2820.382978	1006.668531
2821.711318	1015.769930
2823.039438	1011.005594
2824.365781	1014.790909
2825.693459	1004.422378
2827.017805	976.309790
2828.343486	964.859441
2829.667393	954.730070
2830.991079	941.044056
2832.316101	950.803497
2833.637794	950.572727
2834.959267	944.586713
2836.280522	945.483916
2837.601558	946.546853
2838.920822	957.909790
2840.241421	989.134266
2841.560248	976.978322
2842.878857	976.699301
2844.195696	976.838462
2845.512317	986.099301
2846.828720	968.644056
2848.143355	981.503497
2849.459324	961.298601
2850.771973	959.203497
2852.085958	956.983916
2853.399726	962.061538
2854.713277	973.672727
2856.025061	979.384615
2857.335080	966.667832
2858.646433	968.374126
2859.954470	963.094406
2861.263843	972.858042
2862.573000	963.006993
2863.881942	977.025874
2865.189121	962.784615
2866.494536	969.528671
2867.801286	971.155944
2869.106273	981.802098
2870.411047	983.462937
2871.714059	958.846154
2873.019953	946.981818
2874.320992	940.013986
2875.623364	928.601399
2876.923977	933.132867
2878.225924	939.675524
2879.527658	956.695804
2880.826088	963.556643
2882.125851	993.176224
2883.423857	1002.896503
2884.721651	1017.335664
2886.017688	1014.055944
2887.315059	985.478322
2888.610674	965.781818
2889.906079	945.609091
2891.201272	927.834965
2892.493167	948.588112
2893.787939	956.544056
2895.079415	966.741958
2896.372223	968.010490
2897.664821	1002.236364
2898.954124	994.220280
2900.244760	1012.236364
2901.533646	1007.988811
2902.823863	989.958741
2904.110789	977.427273
2905.399047	952.420280
2906.685556	955.256643
2907.971856	975.544056
2909.257948	983.017483
2910.542292	994.628671
2911.829508	1003.502098
2913.111897	1011.360140
2914.395618	1011.957343
2915.677592	1024.627273
2916.959360	1011.021678
2918.239382	1004.379021
2919.522274	986.923776
2920.803421	956.676923
2922.081286	964.314685
2923.362020	976.627972
2924.639473	984.818881
2925.916721	991.543357
2927.192226	995.743357
2928.470599	986.165035
2929.744157	990.534965
2931.020583	979.417483
2932.295268	978.490909
2933.568213	984.453147
2934.842488	978.877622
2936.115024	971.681119
2937.387356	978.115385
2938.656415	986.988112
2939.928339	1005.259441
2941.198525	1005.516783
2942.468507	1022.859441
2943.738286	1024.714685
2945.006328	1032.375524
2946.272635	1019.811189
2947.538739	1029.656643
2948.806174	1027.527273
2950.071873	1025.674825
2951.337370	1016.036364
2952.602665	986.134266
2953.864696	974.899301
2955.128056	979.046154
2956.391215	972.222378
2957.652641	980.488811
2958.915397	979.639860
2960.176422	983.456643
2961.435716	990.048951
2962.694809	1019.207692
2963.953702	1036.564336
2965.212395	1041.695105
2966.470888	1023.404895
2967.727652	1000.036364
2968.984217	971.105594
2970.239053	959.266434
2971.495219	936.174825
2972.748129	924.782517
2974.002369	916.286713
2975.256410	924.591608
2976.508725	941.209790
2977.760842	981.559441
2979.011234	1015.397203
2980.264481	1025.593706
2981.512951	1044.393007
2982.764275	1062.911189
2984.012351	1049.985315
2985.260229	1061.595804
2986.507910	1061.548252
2987.755395	1075.039161
2989.001158	1066.209790
2990.246724	1062.491608
2991.493619	1055.960140
2992.737268	1066.825874
2993.982246	1062.634266
2995.223981	1053.433566
2996.468567	1056.055944
2997.711434	1064.228671
2998.951059	1041.151748
3000.193536	1036.125175
3001.432772	1037.794406
3002.673336	1045.214685
3003.912183	1055.882517
3005.150836	1068.831469
3006.387773	1062.595105
3007.626037	1065.433566
3008.862587	1064.175524
3010.098943	1064.485315
3011.335105	1063.754545
3012.569553	1060.564336
3013.803808	1038.267133
3015.037870	1033.948252
3016.270220	1039.312587
3017.500858	1045.646154
3018.734342	1043.976224
3019.966115	1070.039161
3021.196176	1071.663636
3022.426046	1086.848951
3023.654206	1103.432168
3024.883693	1109.652448
3026.111470	1116.889510
3027.339056	1120.290909
3028.567968	1123.510490
3029.792138	1112.116783
3031.019151	1101.408392
3032.242941	1082.496503
3033.468056	1068.032867
3034.691465	1085.199301
3035.914685	1068.695804
3037.136199	1052.023776
3038.360554	1071.433566
3039.580174	1076.120979
3040.801120	1080.908392
3042.021876	1077.679720
3043.240929	1084.835664
3044.461308	1071.883217
3045.678470	1075.097203
3046.896957	1062.695105
3048.113743	1061.934266
3049.330340	1057.258042
3050.546750	1055.720979
3051.759946	1042.017483
3052.975980	1060.913986
3054.188802	1059.665035
3055.404461	1060.454545
3056.615397	1048.167832
3057.827659	1046.765734
3059.039733	1030.269231
3060.251621	1035.072028
3061.461811	1025.737063
3062.671816	1034.587413
3063.881634	1042.637762
3065.089756	1045.462937
3066.297692	1042.361538
3067.503934	1038.478322
3068.711500	1034.908392
3069.917371	1037.511189
3071.123057	1020.311189
3072.328559	1010.595804
3073.532367	1018.690909
3074.737499	1021.486713
3075.940938	1024.992308
3077.142685	1028.509091
3078.344249	1032.865734
3079.545629	1031.192308
3080.746825	1041.604895
3081.946331	1028.236364
3083.145653	1030.208392
3084.346299	1036.571329
3085.545256	1033.611189
3086.741017	1031.415385
3087.939608	1047.861538
3089.135005	1036.640559
3090.331726	1042.720280
3091.525254	1034.957343
3092.721610	1033.078322
3093.916279	1030.886014
3095.107758	1031.837762
3096.303568	1030.642657
3097.494685	1030.234965
3098.687125	1025.727273
3099.876376	1022.502098
3101.068454	1033.120280
3102.258848	1055.840559
3103.446055	1047.623077
3104.634586	1059.652448
3105.824439	1070.990909
3107.011107	1073.555245
3108.197596	1075.681818
3109.383905	1078.338462
3110.571537	1076.221678
3111.755986	1067.407692
3112.938755	1067.091608
3114.124348	1074.099301
3115.308260	1081.948951
3116.490494	1073.238462
3117.672550	1074.331469
3118.854427	1096.424476
3120.036126	1103.441958
3121.216148	1094.444755
3122.394492	1092.099301
3123.575658	1085.605594
3124.753648	1070.729371
3125.931461	1067.573427
3127.109097	1060.638462
3128.285058	1065.323776
3129.460843	1067.307692
3130.637948	1056.386014
3131.813380	1079.332867
3132.987138	1082.860140
3134.159223	1072.140559
3135.332629	1064.535664
3136.505860	1057.223776
3137.677418	1057.725175
3138.850298	1045.313287
3140.020010	1048.272727
3141.191043	1047.733566
3142.360405	1067.246853
3143.528098	1084.740559
3144.698606	1073.842657
3145.864455	1073.692308
3147.034614	1066.059441
3148.200115	1069.843357
3149.365443	1069.817483
3150.530597	1069.916084
3151.695578	1073.806294
3152.861878	1065.907692
3154.023525	1065.905594
3155.186493	1064.041259
3156.349287	1070.875524
3157.511909	1082.860140
3158.672866	1069.385315
3159.833650	1059.762238
3160.994263	1060.883217
3162.153211	1076.821678
3163.311987	1082.313986
3164.470592	1078.776923
3165.629025	1072.720979
3166.787286	1075.789510
3167.943885	1074.725874
3169.098823	1074.674126
3170.255080	1092.534965
3171.409677	1110.521678
3172.564102	1105.432867
3173.716868	1098.513287
3174.869464	1093.664336
3176.021890	1097.639161
3177.174145	1108.742657
3178.326231	1093.854545
3179.475170	1098.923077
3180.626916	1110.196503
3181.777005	1111.623077
3182.925436	1118.367832
3184.073699	1133.837063
3185.221793	1137.950350
3186.369717	1122.815385
3187.515987	1122.343357
3188.662088	1117.413986
3189.806535	1120.679021
3190.950813	1133.732168
3192.094924	1137.866434
3193.240353	1148.879720
3194.382643	1153.011189
3195.524765	1153.993706
3196.666721	1152.157343
3197.808509	1135.100699
3198.950130	1125.745455
3200.088615	1120.481818
3201.228419	1118.848951
3202.369539	1120.683217
3203.507525	1125.409091
3204.643862	1125.262238
3205.780033	1133.874126
3206.917522	1130.227972
3208.053362	1129.834266
3209.190518	1121.906993
3210.323063	1100.795105
3211.459888	1085.105594
3212.592102	1092.979720
3213.725634	1100.988811
3214.859000	1097.609790
3215.989239	1102.613287
3217.122277	1102.981818
3218.252187	1089.401399
3219.383415	1092.688112
3220.511517	1096.332168
3221.642417	1090.369231
3222.771672	1077.168531
3223.899283	1062.095105
3225.023773	1056.390909
3226.152538	1063.726573
3227.278181	1066.325874
3228.403661	1080.881818
3229.527500	1100.191608
3230.654134	1114.514685
3231.776169	1125.986014
3232.899521	1153.028671
3234.022711	1168.246154
3235.145739	1171.731469
3236.267127	1169.030070
3237.388354	1171.968531
3238.507942	1155.244755
3239.627369	1159.149650
3240.745159	1145.513986
3241.865740	1153.291608
3242.983208	1164.376923
3244.100515	1150.513287
3245.217661	1144.532867
3246.333172	1147.933566
3247.449998	1140.721678
3248.563713	1139.773427
3249.680219	1139.083916
3250.795089	1126.490210
3251.906851	1103.232867
3253.018454	1106.463636
3254.131372	1104.293706
3255.244130	1120.774126
3256.353782	1138.197203
3257.464749	1146.064336
3258.575557	1156.578322
3259.684733	1176.279021
3260.792278	1193.238462
3261.901138	1199.576224
3263.009839	1201.673427
3264.115438	1188.478322
3265.222352	1184.284615
3266.327636	1178.790210
3267.434234	1192.453147
3268.537732	1200.198601
3269.642544	1193.653147
3270.747199	1205.663636
3271.848756	1198.101399
3272.950156	1203.746154
3274.052870	1198.632168
3275.155427	1194.769231
3276.254889	1211.425175
3277.357133	1216.397203
3278.456283	1234.469930
3279.553807	1249.617483
3280.651176	1263.657343
3281.751328	1272.879021
3282.848386	1262.579720
3283.945290	1272.840559
3285.042038	1251.878322
3286.134227	1243.872727
3287.230666	1217.357343
3288.325482	1198.415385
3289.420143	1186.213986
3290.513183	1180.825175
3291.606069	1179.246853
3292.697334	1180.360839
3293.789912	1178.781119
3294.880870	1182.619580
3295.970208	1189.465734
3297.059393	1202.765035
3298.149890	1193.748252
3299.237303	1194.758042
3300.324564	1201.125874
3301.413137	1196.467832
3302.501557	1197.358741
3303.585430	1196.960839
3304.673545	1178.272028
3305.758579	1192.461538
3306.841997	1196.712587
3307.926727	1196.044056
3309.009841	1222.328671
3310.094267	1223.767832
3311.175615	1227.257343
3312.258275	1230.474825
3313.339321	1242.539161
3314.420216	1236.523077
3315.499498	1221.233566
3316.578629	1207.755944
3317.659072	1196.928671
3318.736440	1194.278322
3319.815120	1190.547552
3320.892188	1192.903497
3321.969106	1211.306993
3323.044414	1214.102797
3324.119572	1226.686014
3325.196041	1230.008392
3326.269439	1243.692308
3327.342689	1239.119580
3328.417250	1223.470629
3329.490201	1225.728671
3330.561545	1213.030769
3331.634199	1192.632867
3332.703786	1201.259441
3333.774684	1202.924476
3334.843975	1208.495105
3335.914577	1212.013986
3336.983572	1225.260140
3338.050961	1241.462238
3339.116745	1261.158042
3340.186755	1259.737762
3341.253702	1259.035664
3342.317587	1255.435664
3343.384240	1254.523776
3344.449289	1250.115385
3345.512734	1267.574825
3346.576032	1274.705594
3347.639185	1260.531469
3348.702191	1259.342657
3349.765050	1254.622378
3350.826308	1251.501399
3351.884509	1246.262937
3352.946931	1237.297203
3354.006296	1227.426573
3355.065517	1221.834266
3356.126046	1227.827972
3357.182066	1242.827273
3358.240851	1261.681119
3359.295128	1262.751049
3360.352169	1257.933566
3361.407611	1268.587413
3362.464362	1271.017483
3363.519516	1275.437762
3364.573072	1269.698601
3365.625031	1278.976224
3366.679752	1286.807692
3367.731425	1285.624476
3368.782953	1291.711888
3369.835791	1294.259441
3370.885581	1278.036364
3371.936680	1269.202098
3372.984732	1280.116084
3374.035545	1278.019580
3375.083312	1288.312587
3376.130937	1290.193007
3377.178420	1295.358042
3378.224309	1306.955245
3379.271508	1325.039161
3380.315663	1317.921678
3381.362577	1316.225175
3382.407899	1286.344755
3383.450181	1285.716783
3384.492321	1280.880420
3385.535770	1281.784615
3386.579077	1264.468531
3387.620794	1270.545455
3388.662370	1256.566434
3389.703806	1249.457343
3390.743653	1256.908392
3391.781911	1266.795105
3392.821477	1268.126573
3393.860903	1277.020979
3394.898741	1270.300699
3395.934992	1281.009790
3396.971103	1272.630070
3398.008522	1279.809091
3399.042908	1272.548951
3400.078602	1261.037063
3401.114156	1254.892308
3402.146678	1255.304196
3403.181954	1266.576923
3404.214199	1279.329371
3405.246306	1293.504895
3406.276829	1302.524476
3407.308660	1304.974825
3408.340352	1321.159441
3409.369016	1336.289510
3410.397542	1349.134266
3411.427376	1348.834266
3412.457072	1346.553147
3413.483741	1355.895105
3414.511718	1345.602797
3415.536670	1351.882517
3416.564372	1356.260140
3417.589051	1346.641958
3418.615036	1358.141259
3419.639442	1366.692308
3420.663710	1385.520280
3421.686400	1387.623776
3422.708955	1386.210490
3423.732814	1385.731469
3424.753654	1377.133566
3425.774359	1363.892607
3426.796369	1357.012812
3427.815361	1361.251349
3428.834218	1381.365385
3429.854381	1422.112088
3430.871526	1488.248626
