-118.385087	6.752198
-115.715486	5.613187
-113.048821	5.402897
-110.382909	5.902797
-107.719928	6.894356
-105.055517	8.159041
-102.394037	9.478322
-99.731128	8.597203
-97.073326	10.464336
-94.414093	11.080420
-91.755609	13.204196
-89.100050	10.998601
-86.443062	10.733566
-83.791171	9.278322
-81.137851	9.726573
-78.487451	10.296503
-75.835621	12.260140
-73.188882	12.351748
-70.540713	13.882517
-67.893288	12.941958
-65.248776	12.311189
-62.602835	11.528671
-59.961977	13.658741
-57.319688	11.195804
-54.680309	11.591608
-52.039501	9.825175
-49.399432	12.626573
-46.764437	15.048951
-44.128012	18.065035
-41.494491	20.714685
-38.859540	25.625874
-36.229656	27.111888
-33.596178	31.732168
-30.967763	33.606294
-28.340082	34.929371
-25.710973	22.830070
-23.086920	-27.892308
-20.459278	-232.594406
-17.836689	-683.823077
-15.214831	-1194.891608
-12.593704	239.259441
-9.973308	3388.383217
-7.355799	6079.947552
-4.736862	8000.539161
-2.120811	9134.542657
0.494512	9476.055944
3.109108	9031.767133
5.720822	7804.630070
8.333963	5827.097203
10.942071	3225.434266
13.553761	454.058741
16.160420	-1480.500000
18.768507	-1134.425175
21.375870	-99.960839
23.978208	39.787413
26.584124	44.365734
29.185019	42.827972
31.787341	39.814685
34.384645	36.509091
36.985525	31.751049
39.581391	28.795105
42.178684	27.388811
44.775258	24.667133
47.366823	21.226573
49.959816	23.044056
52.549948	20.607692
55.141508	23.624476
57.730208	21.605594
60.320336	21.961538
62.905464	18.040559
65.492020	16.525874
68.077861	15.129371
70.660849	17.569231
73.245264	16.086014
75.822549	15.029371
78.403401	14.853846
80.981404	19.130070
83.558697	19.261538
86.137416	20.665035
88.711154	17.865734
91.286318	19.167832
93.858639	16.091608
96.430253	16.748951
98.999026	16.122378
101.569226	18.618881
104.136587	17.160839
106.705375	18.352448
109.271325	16.998601
111.834441	19.907692
114.401114	19.464336
116.958564	21.267832
119.521700	23.755245
122.079877	29.031469
124.641607	35.930769
127.198382	50.795105
129.756582	73.234965
132.309830	104.541259
134.862379	138.981818
137.418480	179.951049
139.969632	217.362937
142.520086	259.361538
145.069844	297.800699
147.616782	333.011888
150.163024	359.676224
152.710693	379.860140
155.257665	393.907692
157.799701	398.574126
160.341044	399.427972
162.881695	398.269930
165.423770	388.869930
167.963035	382.831469
170.499490	374.270629
173.035255	369.509091
175.572445	366.183916
178.108943	364.345455
180.642636	363.744755
183.173526	370.794406
185.703727	373.099301
188.235353	373.425175
190.764179	375.855944
193.290205	379.139161
195.815545	373.436364
198.342310	376.250350
200.866279	374.211189
203.389562	371.397902
205.912161	366.460839
208.431967	361.225175
210.951090	361.744056
213.469530	367.298601
215.989394	366.411888
218.502257	369.969930
221.018651	370.991608
223.534364	371.981818
226.045186	369.724476
228.557433	369.804895
231.066897	365.950350
233.575683	365.418182
236.083791	361.972028
238.593323	361.441958
241.097974	366.621678
243.601949	371.173427
246.107348	371.195105
248.607872	377.949650
251.111919	408.706993
253.608996	493.839860
256.109595	623.180420
258.607423	759.166434
261.104578	871.848951
263.601060	950.080420
266.092680	977.688112
268.587818	962.718182
271.080191	903.731469
273.571893	804.026573
276.060832	683.695105
278.551194	570.525874
281.038795	492.586014
283.523636	463.776224
286.011991	461.039161
288.493408	456.270629
290.978338	438.969231
293.458422	418.797203
295.942019	395.342657
298.420774	376.467832
300.900951	355.366434
303.378377	342.092308
305.855139	342.342657
308.331237	355.895804
310.804587	376.610490
313.277276	397.619580
315.749303	416.800000
318.220668	431.444755
320.689290	435.277622
323.157252	437.949650
325.626637	432.890909
328.091199	424.309790
330.559264	407.130070
333.022510	393.383916
335.485099	380.574126
337.947030	375.534965
340.408305	372.543357
342.866846	374.415385
345.326809	376.116783
347.784040	375.645455
350.240616	371.455944
352.696537	372.064336
355.149730	365.620280
357.604345	364.480420
360.054158	361.507692
362.507467	361.629371
364.955977	357.025175
367.403837	354.908392
369.853118	351.179021
372.297606	352.372028
374.743516	352.088112
377.188777	349.894406
379.631319	345.473427
382.073213	345.042657
384.514459	339.037063
386.952990	339.271329
389.392943	337.546154
391.830182	334.998601
394.264709	330.834266
396.702724	331.202797
399.135962	331.042657
401.570622	333.804895
404.000509	335.258042
406.433881	338.027972
408.862482	338.362937
411.290443	342.709091
413.719824	345.439860
416.144441	345.516084
418.570478	346.420979
420.995876	347.746853
423.420633	346.525175
425.840631	348.487413
428.262051	347.318881
430.680774	346.979021
433.100918	344.246154
435.518367	345.040559
437.937236	346.032867
440.353412	343.770629
442.764841	341.383916
445.179746	337.351049
447.591961	337.995804
450.003542	337.925874
452.414489	331.180420
454.822750	333.595105
457.230379	330.313287
459.637375	328.577622
462.043739	324.862238
464.447422	326.967832
466.850474	326.030769
469.252896	323.232168
471.654688	323.919580
474.053802	323.053147
476.454336	323.468531
478.854241	325.532867
481.249423	325.105594
483.648072	330.816783
486.042001	327.511888
488.435304	328.596503
490.827981	326.079720
493.220033	325.527972
495.613504	317.941259
498.002262	313.727273
500.388354	304.484615
502.775866	292.734266
505.162754	283.873427
507.546979	275.591608
509.932623	265.474825
512.315604	256.087413
514.695925	248.562937
517.077665	245.365734
519.456746	242.582517
521.837246	241.991608
524.215088	238.881119
526.590275	238.993706
528.964844	233.625874
531.340832	229.570629
533.714166	225.212587
536.088919	221.186713
538.458985	217.568531
540.828436	213.546154
543.199306	209.683217
545.565494	205.639161
547.933101	203.223776
550.298062	203.304196
552.662410	201.551748
555.026146	202.242657
557.391299	202.348252
559.751780	203.295105
562.113678	203.109091
564.472937	203.116783
566.829557	203.595804
569.189623	200.930769
571.542997	194.693007
573.899816	189.517483
576.254000	185.254545
578.607575	180.989510
580.960542	179.092308
583.310878	178.672028
585.662630	180.584615
588.007706	183.402098
590.358246	182.068531
592.702113	183.022378
595.051441	185.483217
597.396120	185.281119
599.738175	181.653147
602.081647	182.091608
604.422496	181.148252
606.762742	177.230769
609.100368	175.103497
611.441429	170.739860
613.777853	170.043357
616.115693	170.636364
618.450915	166.526573
620.783522	167.865734
623.117546	167.990909
625.448955	167.883217
627.779766	167.724476
630.109979	172.334965
632.439595	173.104196
634.764587	169.398601
637.095021	167.798601
639.420833	167.253147
641.744039	166.509091
644.068661	167.086014
646.390677	166.771329
648.712099	168.066434
651.030918	166.279021
653.351153	166.712587
655.670795	166.484615
657.987836	164.463636
660.304286	162.054545
662.618137	158.501399
664.933403	160.564336
667.246073	159.830070
669.560158	158.514685
671.869644	158.990909
674.180544	160.128671
676.488852	159.662238
678.796572	158.557343
681.105707	157.490210
683.410249	157.634266
685.714205	156.632867
688.017574	156.145455
690.322358	155.897902
692.622556	158.030070
694.924169	155.930070
697.225196	152.190210
699.521642	150.938462
701.819502	150.332168
704.116780	149.834266
706.413473	147.561538
708.705591	144.790909
711.001120	142.751049
713.292076	141.817483
715.584446	139.932168
717.874240	141.200000
720.163455	138.342657
722.452089	138.734965
724.738152	137.580420
727.025628	139.689510
729.310534	141.624476
731.594861	142.145455
733.876621	139.823077
736.159794	140.992308
738.442390	138.183217
740.720430	140.005594
742.999884	140.339161
745.278763	143.874825
747.557066	141.063636
749.830820	146.100699
752.105988	142.952448
754.380582	141.302098
756.652617	139.997203
758.926065	136.700000
761.196955	134.654545
763.465288	135.286014
765.735036	133.154545
768.002228	135.740559
770.268850	139.924476
772.534903	144.574126
774.798404	143.216084
777.063317	145.211888
779.327662	145.758741
781.587476	151.905594
783.848704	154.523077
786.109364	152.364336
788.367477	151.898601
790.623046	150.787413
792.882006	149.560140
795.134467	148.598601
797.392295	143.811189
799.645604	141.216783
801.896372	134.552448
804.148553	131.521678
806.398196	130.209091
808.649250	133.267133
810.895793	129.227273
813.143749	127.156643
815.389169	125.265035
817.636002	126.303497
819.882272	126.556643
822.124039	124.302797
824.369188	120.823077
826.607865	124.200000
828.849925	120.526573
831.087486	117.227273
833.326458	116.286713
835.562904	118.653846
837.800762	117.232867
840.036094	122.336364
842.268902	122.007692
844.503122	127.004196
846.734820	128.698601
848.965963	126.770629
851.196551	128.582517
853.426585	130.684615
855.656064	124.762238
857.881063	118.451049
860.109435	112.434965
862.333329	109.320280
864.558633	107.202797
866.779462	106.434965
869.003663	103.116783
871.223391	105.602098
873.444530	107.956643
875.665118	117.932168
877.883197	125.992308
880.102685	128.960140
882.317707	126.540559
884.532181	124.813287
886.746108	117.753147
888.959487	113.878322
891.172320	109.266434
893.384605	103.090909
895.594389	96.397902
897.803627	94.437762
900.012319	98.878322
902.218513	105.504196
904.426116	107.835664
906.631222	109.884615
908.835784	116.422378
911.037851	124.442657
913.241327	127.295105
915.442309	130.922378
917.642749	129.867133
919.844598	125.871329
922.040056	116.599301
924.238872	112.932168
926.433251	110.736364
928.630987	105.427972
930.824287	100.711189
933.018995	109.771329
935.211218	116.347552
937.402903	131.577622
939.594050	137.965734
941.782714	146.742657
943.970841	147.535664
946.156488	144.043357
948.345487	139.466434
950.530063	143.270629
952.714104	142.855944
954.901495	143.867133
957.080583	140.742657
959.263020	150.590909
961.444924	144.811189
963.624354	146.485315
965.801311	142.057343
967.979676	143.769930
970.159447	144.656643
972.332870	137.538462
974.509639	143.247552
976.682002	161.260140
978.855771	166.743357
981.025138	156.832867
983.197848	164.118881
985.368092	168.323077
987.537808	164.351748
989.706995	161.889510
991.871785	163.435664
994.039917	155.791608
996.203653	160.714685
998.368797	165.962238
1000.531481	181.406294
1002.693640	177.815385
1004.853341	167.737063
1007.012519	154.963636
1009.173103	175.760140
1011.331232	177.258042
1013.488837	173.372028
1015.645919	171.871329
1017.802478	181.400000
1019.954657	185.764336
1022.108243	200.071329
1024.261306	197.716084
1026.411922	208.107692
1028.563943	207.703497
1030.711591	217.771329
1032.862571	222.174825
1035.009181	222.967133
1037.155271	217.586713
1039.300843	198.172028
1041.447819	185.630769
1043.588508	186.063636
1045.732525	198.858741
1047.874103	184.306294
1050.015163	195.253846
1052.157628	224.221678
1054.293814	246.183217
1056.433326	255.015385
1058.568482	258.874126
1060.706963	263.713986
1062.841091	258.349650
1064.974705	235.293706
1067.109723	218.234965
1069.240392	201.581119
1071.372467	198.824476
1073.502111	195.433566
1075.631244	197.459441
1077.759866	191.290909
1079.887976	190.884615
1082.013660	184.960839
1084.138834	175.009091
1086.265411	186.947552
1088.387652	185.124476
1090.511297	172.133566
1092.630607	165.491608
1094.755146	157.353147
1096.873441	159.785315
1098.993139	164.110490
1101.110419	147.150350
1103.227193	148.704895
1105.343460	152.258741
1107.457312	146.229371
1109.572567	140.371329
1111.683500	151.666434
1113.797744	144.465734
1115.907669	132.372028
1118.018996	135.844755
1120.129820	133.060839
1122.236327	126.586713
1124.346143	124.980420
1126.451645	128.728671
1128.558551	129.260140
1130.659240	137.152448
1132.765142	135.172727
1134.866735	139.002098
1136.969731	140.094406
1139.072226	141.775524
1141.168515	144.124476
1143.270010	142.480420
1145.367203	134.117483
1147.463897	129.648252
1149.560094	131.690909
1151.655792	130.586713
1153.750993	119.370629
1155.843797	119.128671
1157.938003	114.767832
1160.026018	112.679021
1162.119231	112.671329
1164.206256	116.053147
1166.296581	120.046154
1168.382617	123.804196
1170.471951	122.876224
1172.555104	128.483916
1174.639660	137.076923
1176.725616	137.190909
1178.807291	132.018182
1180.890368	137.707692
1182.971059	134.204196
1185.051259	135.639860
1187.130967	129.953846
1189.210183	133.375524
1191.287018	140.795804
1193.361472	142.686713
1195.439218	139.723077
1197.512693	147.233566
1199.587570	148.882517
1201.658179	145.712587
1203.730189	145.911888
1205.799823	146.433566
1207.870858	142.428671
1209.941405	140.602098
1212.007691	132.710490
1214.075378	129.550350
1216.140693	128.013986
1218.207408	123.911189
1220.269867	123.839860
1222.335612	126.182517
1224.397102	120.435664
1226.459992	120.258042
1228.520515	119.840559
1230.580555	113.819580
1232.640111	118.035664
1234.697303	119.882517
1236.754012	115.537063
1238.808359	117.948951
1240.865986	118.113287
1242.921251	117.715385
1244.972275	122.911189
1247.024699	124.246154
1249.076644	120.709790
1251.126230	122.789510
1253.175337	117.971329
1255.223965	109.728671
1257.272115	108.743357
1259.319787	103.333566
1261.363228	95.829371
1263.409944	104.570629
1265.454308	103.736364
1267.498194	109.128671
1269.539730	118.265035
1271.578916	120.550350
1273.621374	122.166434
1275.659611	123.720280
1277.699245	113.641259
1279.738405	116.564336
1281.773347	112.274825
1283.809687	113.140559
1285.843682	113.365734
1287.879076	114.489510
1289.910256	118.983916
1291.942835	126.797902
1293.974941	130.406294
1296.004707	130.248252
1298.035871	132.166434
1300.062827	126.654545
1302.091181	122.491608
1304.115331	129.343357
1306.142746	120.863636
1308.165958	121.346853
1310.190568	115.686014
1312.212843	111.656643
1314.236516	113.394406
1316.257856	115.832867
1318.278729	108.108392
1320.299134	108.190210
1322.315345	106.487413
1324.332955	106.685315
1326.348236	110.972028
1328.366776	115.750350
1330.381126	112.410490
1332.393151	115.998601
1334.408434	109.967133
1336.419531	108.427273
1338.432024	106.144056
1340.440335	103.876224
1342.451902	97.647552
1344.457430	97.914685
1346.466212	97.207692
1348.470818	108.290909
1350.478677	120.026573
1352.486073	127.213986
1354.487439	130.196503
1356.490202	131.915385
1358.492505	129.459441
1360.494347	129.368531
1362.495731	125.287413
1364.494800	119.406294
1366.493411	114.779720
1368.491564	109.794406
1370.489259	106.260839
1372.482790	112.823077
1374.477718	112.812587
1376.472189	113.837063
1378.466203	115.337762
1380.457910	112.795105
1382.449161	119.070629
1384.438107	118.051049
1386.428448	116.600000
1388.418334	113.760140
1390.405917	109.293007
1392.393046	107.155944
1394.377873	106.174126
1396.364095	109.958042
1398.348016	106.019580
1400.331485	109.728671
1402.314502	106.174825
1404.295221	103.065035
1406.277334	102.925175
1408.257150	101.258042
1410.236516	103.241259
1412.211743	105.917483
1414.190208	108.744755
1416.166380	113.027273
1418.142102	118.116783
1420.117375	121.617483
1422.090357	123.375524
1424.062892	126.760839
1426.034978	121.741958
1428.006616	114.021678
1429.974127	107.039161
1431.946711	109.674825
1433.911489	109.831469
1435.881340	108.920280
1437.847066	107.077622
1439.814186	103.230769
1441.779022	105.339860
1443.739738	107.054545
1445.705522	114.158741
1447.665351	120.360839
1449.626573	121.654545
1451.589188	116.230769
1453.547688	113.186713
1455.505746	118.745455
1457.463361	116.065035
1459.420535	118.620280
1461.375433	119.706294
1463.331723	118.799301
1465.285739	120.498601
1467.239315	128.141259
1469.190618	134.925175
1471.143313	136.266434
1473.093737	132.965734
1475.043722	125.616084
1476.993267	126.070629
1478.940544	130.635664
1480.885554	124.404895
1482.831956	124.236364
1484.777920	117.449650
1486.723446	116.804196
1488.666708	113.430769
1490.609533	115.249650
1492.550095	113.495804
1494.492048	112.902098
1496.431740	109.927273
1498.370996	108.074825
1500.309818	114.626573
1502.246380	112.267832
1504.184332	111.532168
1506.120027	113.301399
1508.055288	112.837063
1509.988292	118.046853
1511.920864	112.364336
1513.853004	117.659441
1515.784712	119.443357
1517.714167	122.837063
1519.645011	120.905594
1521.575425	120.649650
1523.501766	121.451049
1525.429497	122.444755
1527.354978	125.009091
1529.280030	126.632168
1531.204653	128.954545
1533.128847	128.073427
1535.050794	128.844755
1536.974130	131.604895
1538.895221	124.184615
1540.814067	126.624476
1542.734303	127.803497
1544.652295	133.134266
1546.569861	135.157343
1548.485185	136.826573
1550.401899	140.681818
1552.314558	147.269231
1554.230421	152.161538
1556.144045	143.513986
1558.055430	137.048951
1559.968204	132.506993
1561.876929	124.354545
1563.787044	119.307692
1565.696735	120.086014
1567.606002	122.641958
1569.513036	127.550350
1571.417837	132.500699
1573.324027	139.360839
1575.227985	144.053846
1577.131523	145.837063
1579.034639	141.880420
1580.935527	134.541259
1582.837803	141.127273
1584.737850	131.432867
1586.639286	123.846853
1588.536687	129.390909
1590.433671	125.765035
1592.330236	132.707692
1594.228188	133.748951
1596.120306	130.741259
1598.015618	135.382517
1599.910511	138.969231
1601.803183	142.470629
1603.695439	137.645455
1605.585475	138.676224
1607.475095	136.035664
1609.364300	135.829371
1611.253089	141.885315
1613.139662	143.506294
1615.027621	141.193706
1616.911565	142.905594
1618.796895	141.573427
1620.681812	139.118881
1622.564515	132.794406
1624.448604	127.755245
1626.328683	115.631469
1628.210148	110.601399
1630.089403	101.222378
1631.970044	102.553846
1633.844881	107.186014
1635.724700	114.188112
1637.600513	112.260839
1639.475917	127.344056
1641.352706	131.055944
1643.223698	132.406993
1645.097872	137.063636
1646.968048	146.787413
1648.841404	137.393706
1650.712557	141.615385
1652.581508	133.806993
1654.451845	131.590210
1656.318188	125.177622
1658.185918	111.776224
1660.051448	107.417483
1661.918363	103.310490
1663.781290	102.132867
1665.645602	110.080420
1667.507719	115.815385
1669.369430	135.258042
1671.232526	135.234266
1673.093428	150.914685
1674.952136	145.747552
1676.810441	147.260140
1678.670131	142.531469
1680.524054	140.866434
1682.381149	145.927273
1684.237842	140.327273
1686.090559	143.641958
1687.946447	158.041259
1689.798361	146.433566
1691.649873	152.994406
1693.500986	139.888811
1695.351697	128.822378
1697.202008	118.211888
1699.050135	129.136364
1700.899645	132.434965
1702.743407	147.849650
1704.592119	140.350350
1706.435084	146.153147
1708.281215	153.325175
1710.123385	152.534266
1711.968719	139.270629
1713.808313	131.357343
1715.649291	118.898601
1717.491652	112.360839
1719.330057	106.462238
1721.169845	111.441259
1723.007458	104.175524
1724.844675	105.346154
1726.679719	90.409790
1728.516146	105.559441
1730.350401	110.472028
1732.184262	109.060839
1734.017728	130.444056
1735.847248	136.543357
1737.679927	145.825175
1739.508662	168.148951
1741.340555	169.207692
1743.168505	166.273427
1744.996063	160.288811
1746.823230	163.847552
1748.650004	164.020280
1750.476388	165.448951
1752.298835	159.820280
1754.124436	147.779720
1755.946103	148.075524
1757.769152	132.337063
1759.590040	123.520979
1761.410538	137.270629
1763.232418	124.857343
1765.048598	116.346154
1766.867930	123.746853
1768.683335	135.544056
1770.501891	148.327972
1772.316521	153.741259
1774.130764	162.096503
1775.944621	148.930769
1777.758091	135.513287
1779.569407	127.348951
1781.382105	122.105594
1783.194416	106.325874
1785.002810	91.104196
1786.812585	76.220979
1788.618444	72.390909
1790.427450	79.387413
1792.232542	91.528671
1794.039014	111.169930
1795.845103	121.969930
1797.647282	122.850350
1799.452604	127.301399
1801.254018	147.089510
1803.056812	154.905594
1804.855701	140.157343
1806.655969	148.391608
1808.455857	137.397902
1810.253602	137.502797
1812.050967	147.658042
1813.847951	142.985315
1815.644555	149.641259
1817.439020	148.130769
1819.234865	148.935664
1821.025054	144.358741
1822.820140	141.133566
1824.609573	136.413287
1826.402144	124.400000
1828.192579	125.510490
1829.980879	125.215385
1831.772315	145.730769
1833.558105	150.284615
1835.345275	146.958042
1837.130313	161.902797
1838.918485	174.340559
1840.702771	186.081119
1842.484928	182.240559
1844.268463	169.434266
1846.049871	167.048252
1847.832656	166.940559
1849.611562	166.385315
1851.391846	169.148252
1853.170005	171.376923
1854.949541	168.228671
1856.726953	165.565734
1858.502241	161.040559
1860.278908	156.788112
1862.053452	153.932168
1863.829373	138.586014
1865.599675	127.716084
1867.373104	132.418182
1869.144413	139.460140
1870.915351	133.667133
1872.687666	127.619580
1874.454369	122.828671
1876.224196	130.203497
1877.990160	124.118182
1879.759248	123.330769
1881.524474	119.426573
1883.289332	127.525175
1885.055566	128.236364
1886.817942	138.093706
1888.579951	150.483217
1890.341593	161.440559
1892.102867	153.480420
1893.863775	140.533566
1895.624315	135.746853
1897.382746	140.653147
1899.140812	139.667832
1900.896770	142.105594
1902.654104	141.455245
1904.411072	144.650350
1906.165935	147.555245
1907.918692	152.460839
1909.671086	142.632867
1911.424856	140.308392
1913.176522	125.559441
1914.926085	116.253147
1916.677025	125.044755
1918.427601	132.169930
1920.174339	132.488112
1921.922452	134.388112
1923.668466	130.858741
1925.415856	134.529371
1927.161147	134.623077
1928.904341	130.564336
1930.648911	126.504895
1932.391384	131.351748
1934.133497	133.458042
1935.875251	132.772727
1937.616644	130.541958
1939.355944	123.800699
1941.094885	119.931469
1942.833467	119.536364
1944.569957	118.990210
1946.306090	125.594406
1948.043597	122.462937
1949.777283	126.569930
1951.512343	133.611189
1953.245314	141.911189
1954.977929	147.377622
1956.710187	145.332168
1958.442089	129.953147
1960.171905	124.062937
1961.899637	122.236364
1963.628742	132.096503
1965.357493	134.339161
1967.084160	140.418182
1968.810473	140.474126
1970.538159	142.326573
1972.260309	146.736364
1973.985561	151.123776
1975.707005	145.220280
1977.431549	142.311888
1979.154014	132.305594
1980.872675	132.573427
1982.594435	129.802098
1984.312393	139.939860
1986.031725	142.225874
1987.747256	148.227273
1989.467609	152.613986
1991.184162	154.456643
1992.896920	154.255245
1994.612773	144.782517
1996.326554	135.545455
1998.039984	139.550350
1999.751344	137.080420
2001.464077	139.216783
2003.173018	139.187413
2004.885053	145.869231
2006.591578	149.525175
2008.301196	154.776923
2010.008746	157.486713
2011.715949	153.641958
2013.421086	151.733566
2015.125876	139.857343
2016.832038	134.155944
2018.534418	136.429371
2020.238170	129.510490
2021.939859	132.889510
2023.641202	127.595804
2025.342200	131.059441
2027.041138	137.020280
2028.741447	136.890210
2030.437980	134.287413
2032.135885	136.034965
2033.831732	139.455944
2035.530664	131.421678
2037.224110	135.306993
2038.918927	137.883217
2040.613401	135.317483
2042.304107	138.553147
2043.997897	134.991608
2045.687920	131.278322
2047.379314	136.938462
2049.068655	129.809790
2050.759366	125.291608
2052.446315	125.971329
2054.132923	131.239161
2055.820902	138.597203
2057.505121	151.602098
2059.190710	161.304895
2060.875960	161.337762
2062.559162	168.071329
2064.243734	162.190210
2065.922842	157.584615
2067.606736	163.273427
2069.285170	156.730070
2070.966681	142.683916
2072.644440	142.684615
2074.321863	141.344056
2076.000655	146.285315
2077.677404	144.373427
2079.352112	142.824476
2081.028189	139.837762
2082.702226	147.354545
2084.375927	149.261538
2086.049293	148.320979
2087.720621	141.945455
2089.391614	138.128671
2091.062273	126.873427
2092.732598	130.213986
2094.402588	128.789510
2096.070543	131.554545
2097.738165	125.337063
2099.403753	124.179021
2101.070709	135.698601
2102.735632	145.560839
2104.400222	150.183217
2106.062781	147.821678
2107.726709	143.220280
2109.388605	143.603497
2111.050170	144.311189
2112.711405	149.432867
2114.370610	151.820979
2116.029486	152.348252
2117.688031	139.683217
2119.346247	132.376224
2121.000739	128.072727
2122.658297	129.858741
2124.315524	133.577622
2125.969031	137.769930
2127.623905	137.059441
2129.275060	140.343357
2130.929278	145.324476
2132.579778	156.041259
2134.231646	156.532168
2135.878105	152.460140
2137.529318	147.606294
2139.176818	147.872028
2140.825686	145.879021
2142.472534	155.610490
2144.119056	154.598601
2145.765254	155.854545
2147.407742	147.905594
2149.053289	145.188112
2150.695129	142.104895
2152.340026	151.886713
2153.981218	146.950350
2155.622086	145.796503
2157.262631	152.175524
2158.901163	154.844755
2160.541061	157.957343
2162.177259	160.348252
2163.814823	155.121678
2165.452065	164.114685
2167.087297	164.780420
2168.722207	170.989510
2170.356796	175.513986
2171.991064	178.113986
2173.621638	168.403497
2175.255263	166.004895
2176.885197	161.013986
2178.516496	151.593706
2180.145791	147.565035
2181.774765	148.937063
2183.403421	145.858042
2185.031757	148.344056
2186.658090	154.115385
2188.284105	151.476923
2189.908119	146.276224
2191.533498	137.620979
2193.156876	144.283916
2194.781619	147.460140
2196.402680	144.290210
2198.023426	140.183217
2199.645535	142.004895
2201.265647	154.328671
2202.883763	146.362937
2204.501563	150.586014
2206.119047	154.227972
2207.736216	147.791608
2209.353070	149.343357
2210.969609	152.300000
2212.584154	164.490909
2214.196707	162.686014
2215.810625	159.012587
2217.422550	156.376923
2219.035840	156.280420
2220.647138	158.362937
2222.256448	154.384615
2223.867120	157.179021
2225.475804	152.858741
2227.084176	155.949650
2228.690560	161.550350
2230.298308	175.474126
2231.904069	176.408392
2233.509519	174.712587
2235.112985	166.198601
2236.717813	168.611189
2238.320657	158.830769
2239.921518	155.369231
2241.523742	154.095804
2243.123983	152.330070
2244.725588	155.188811
2246.323539	158.669930
2247.922853	156.413287
2249.520187	164.126573
2251.117213	158.679720
2252.715600	155.176224
2254.310339	162.490210
2255.903102	171.448951
2257.497226	170.850350
2259.092712	180.243357
2260.684554	172.430769
2262.276089	172.951748
2263.868985	168.323077
2265.456572	168.365734
2267.048856	159.964336
2268.635832	164.764336
2270.225837	166.388112
2271.810537	168.011888
2273.399931	177.391608
2274.984022	174.792308
2276.569475	174.053147
2278.152959	175.365734
2279.739468	154.532168
2281.322344	154.861538
2282.904916	154.057343
2284.487186	158.537063
2286.065825	149.423077
2287.647488	157.646154
2289.225524	152.807692
2290.806582	163.445455
2292.384013	161.108392
2293.959481	168.060140
2295.537971	176.227273
2297.112836	182.639161
2298.687401	168.115385
2300.261666	169.809790
2301.835630	166.493007
2303.409294	162.023776
2304.982657	153.950350
2306.552402	157.470629
2308.121848	154.455944
2309.694313	165.849650
2311.261503	162.622378
2312.831710	174.510490
2314.398303	180.038462
2315.966256	181.010490
2317.532254	163.930070
2319.097954	154.097902
2320.663356	155.366434
2322.226805	153.474825
2323.791613	158.598601
2325.352812	159.339161
2326.917026	161.804196
2328.475979	163.793007
2330.037945	162.969930
2331.597961	162.625175
2333.157681	167.337063
2334.715452	162.623776
2336.272929	161.025175
2337.830110	174.053147
2339.385345	196.784615
2340.940285	205.810490
2342.494932	219.733566
2344.049285	217.371329
2345.603344	218.418182
2347.157110	209.309790
2348.708931	188.150350
2350.258809	177.567832
2351.811695	171.618881
2353.359339	156.366434
2354.909990	152.767832
2356.457051	155.113287
2358.005469	160.409091
2359.553595	159.868531
2361.098134	172.573427
2362.644030	181.322378
2364.187987	195.547552
2365.733302	196.953147
2367.275032	202.413287
2368.818120	206.797203
2370.359271	201.133566
2371.900133	185.783916
2373.440706	168.985315
2374.980990	157.730070
2376.520985	145.662937
2378.057401	144.889510
2379.596819	161.577622
2381.132660	173.281818
2382.669857	180.800699
2384.203480	179.558741
2385.740102	183.797902
2387.274793	159.633566
2388.807555	156.767133
2390.340031	158.528671
2391.870578	157.690909
2393.404123	153.113986
2394.932457	156.192308
2396.462147	170.474825
2397.991552	195.569231
2399.520672	214.413986
2401.049506	215.144755
2402.573136	213.897902
2404.101401	209.030070
2405.624463	194.997902
2407.152160	199.600000
2408.673016	196.500699
2410.198506	182.390210
2411.720436	168.044755
2413.243720	174.558741
2414.765084	177.841958
2416.284528	187.812587
2417.805327	200.556643
2419.324207	193.172727
2420.842805	201.787413
2422.359486	204.407692
2423.877522	196.404196
2425.395276	180.776923
2426.909478	169.722378
2428.423400	155.629371
2429.937043	159.714685
2431.452039	167.358042
2432.963487	159.290909
2434.476290	166.402098
2435.987180	175.778322
2437.497790	182.709091
2439.006489	205.053846
2440.518175	207.237063
2442.026317	214.462937
2443.534180	212.913287
2445.041766	217.143357
2446.545812	209.064336
2448.052842	208.343357
2449.557964	196.757343
2451.062809	178.282517
2452.565747	177.471329
2454.068408	173.783916
2455.570793	172.941259
2457.071273	174.193007
2458.573106	170.218182
2460.073035	183.953147
2461.572688	177.369930
2463.072066	180.278322
2464.569541	172.731469
2466.065114	177.713986
2467.563667	171.437762
2469.058691	165.226573
2470.555069	182.287413
2472.047920	188.834266
2473.542123	187.893007
2475.036053	188.213287
2476.526460	187.931469
2478.019844	194.737762
2479.511329	182.319580
2481.000918	178.683916
2482.490236	172.100000
2483.977657	174.880420
2485.468054	170.981818
2486.954932	181.877622
2488.443162	198.527972
2489.927876	199.691608
2491.412319	203.374825
2492.898114	199.123077
2494.382016	197.654545
2495.867270	198.414685
2497.347390	199.467133
2498.830482	207.536364
2500.311684	202.065035
2501.792617	214.311189
2503.271661	213.684615
2504.750437	212.875524
2506.228944	208.152448
2507.707182	200.141958
2509.185152	193.787413
2510.659618	192.238462
2512.137052	191.428671
2513.610983	188.086014
2515.086265	198.649650
2516.561279	199.306993
2518.032792	189.490210
2519.505656	201.024476
2520.976637	185.753147
2522.448967	177.913287
2523.916185	169.113287
2525.386369	157.836364
2526.854671	155.530070
2528.322709	162.813986
2529.790482	150.680420
2531.257990	143.839161
2532.725233	151.610490
2534.188985	153.874126
2535.654086	157.410490
2537.117310	169.601399
2538.581883	163.232168
2540.042967	175.481818
2541.505402	175.488811
2542.967573	172.890909
2544.426257	183.410490
2545.889514	180.661538
2547.347674	174.027273
2548.807183	173.146154
2550.261599	170.244056
2551.720585	172.256643
2553.177698	171.171329
2554.632941	172.001399
2556.087923	170.033566
2557.541035	186.372028
2558.995496	187.870629
2560.448088	203.934965
2561.900420	211.211189
2563.350884	210.901399
2564.804304	203.566434
2566.252642	205.913287
2567.703936	198.903497
2569.153363	190.383217
2570.599319	185.357343
2572.048229	184.293007
2573.493668	192.892308
2574.940456	196.602098
2576.385380	205.613287
2577.830047	213.474126
2579.276061	205.593007
2580.718608	205.116783
2582.162503	189.944056
2583.602933	198.227273
2585.044711	191.523776
2586.484629	187.693706
2587.925894	194.969231
2589.363697	194.337063
2590.804450	200.190210
2592.240140	204.679720
2593.678780	200.397902
2595.115563	193.660839
2596.550489	185.408392
2597.988364	187.644056
2599.421181	178.434965
2600.855345	187.404895
2602.287654	193.935664
2603.721310	201.830769
2605.153113	206.235664
2606.584663	214.490210
2608.015959	216.695804
2609.445404	225.662238
2610.874596	216.236364
2612.301937	218.888811
2613.730625	214.590909
2615.159060	221.818182
2616.584049	209.402098
2618.010383	209.688811
2619.434869	210.373427
2620.860701	213.099301
2622.283089	204.782517
2623.706823	208.569930
2625.128711	196.227972
2626.550348	191.746853
2627.970140	189.560140
2629.391278	191.034266
2630.812166	187.423776
2632.229616	197.902098
2633.650005	191.679720
2635.066957	195.519580
2636.483661	201.116783
2637.900116	206.728671
2639.316323	204.439161
2640.732281	210.750350
2642.146399	208.579021
2643.560270	206.789510
2644.972301	207.936364
2646.385677	205.718182
2647.795623	201.473427
2649.208505	196.926573
2650.617958	190.347552
2652.027165	190.872727
2653.434536	194.828671
2654.844841	196.408392
2656.253310	190.308392
2657.659944	194.454545
2659.066333	196.397902
2660.470888	199.406993
2661.876787	194.473427
2663.280853	201.195804
2664.684675	207.482517
2666.088252	215.675524
2667.489997	219.858741
2668.893086	226.246853
2670.292758	243.865734
2671.693773	243.730769
2673.091371	235.241259
2674.491900	235.011189
2675.889014	231.263636
2677.287471	226.383217
2678.684100	214.581119
2680.080488	218.176923
2681.476633	216.565734
2682.870952	213.213986
2684.266614	205.202098
2685.658866	223.548252
2687.052462	235.753846
2688.444233	228.097902
2689.837346	224.318881
2691.228636	219.289510
2692.618103	217.751049
2694.007331	209.851748
2695.396318	201.003497
2696.786648	209.223776
2698.171993	204.760140
2699.560263	200.348252
2700.946712	211.964336
2702.332922	227.648951
2703.718893	219.960140
2705.101466	213.021678
2706.485380	215.603497
2707.869057	213.868531
2709.252496	209.191608
2710.632539	205.070629
2712.013924	204.535664
2713.393493	218.875524
2714.774404	218.932168
2716.153500	223.384615
2717.530781	227.976923
2718.909404	240.358042
2720.286214	243.905594
2721.662788	249.127972
2723.039126	253.901399
2724.413652	258.011888
2725.789519	261.211189
2727.161999	257.174126
2728.537396	252.548252
2729.907831	248.553846
2731.279608	238.022378
2732.651151	236.163636
2734.020885	227.193007
2735.391959	237.458042
2736.761226	237.426573
2738.130259	228.054545
2739.497485	230.920280
2740.864479	233.313986
2742.231240	233.611888
2743.597768	208.403497
2744.962492	196.746154
2746.326983	193.067832
2747.691242	187.039161
2749.055270	183.372028
2750.419065	181.734266
2751.779487	181.679021
2753.142820	189.405594
2754.501210	188.519580
2755.862510	203.551049
2757.220439	211.295804
2758.581278	211.413986
2759.940316	197.989510
2761.295986	201.181818
2762.654565	203.458042
2764.009776	200.164336
2765.364758	199.304895
2766.717943	211.775524
2768.074035	203.501399
2769.426763	210.211189
2770.779262	226.334266
2772.131533	239.987413
2773.485143	253.309091
2774.835391	259.540559
2776.183846	251.066434
2777.535205	250.380420
2778.883205	239.474126
2780.232544	233.246154
2781.580090	239.181818
2782.927409	240.364336
2784.274502	229.958042
2785.619804	240.211189
2786.964880	253.921678
2788.309730	262.012587
2789.654354	274.973427
2790.995625	281.976224
2792.338235	266.300699
2793.680620	267.813287
2795.022779	268.031469
2796.361589	262.876224
2797.703299	263.872028
2799.041660	261.125175
2800.381359	262.928671
2801.719272	246.662937
2803.055401	241.700000
2804.391307	237.195804
2805.728549	236.005594
2807.064008	230.895804
2808.399244	216.932867
2809.732698	222.149650
2811.067488	230.065035
2812.398937	234.918881
2813.733282	233.743357
2815.062729	240.188112
2816.393513	243.980420
2817.724075	242.230070
2819.052858	249.106993
2820.382978	238.132168
2821.711318	244.392308
2823.039438	246.804196
2824.365781	243.837762
2825.693459	240.334266
2827.017805	243.010490
2828.343486	237.234266
2829.667393	224.381818
2830.991079	221.995804
2832.316101	230.900000
2833.637794	234.778322
2834.959267	228.666434
2836.280522	226.381119
2837.601558	225.501399
2838.920822	229.182517
2840.241421	229.600699
2841.560248	222.195105
2842.878857	217.774825
2844.195696	216.760140
2845.512317	218.750350
2846.828720	217.400699
2848.143355	227.258042
2849.459324	223.858741
2850.771973	229.894406
2852.085958	227.243357
2853.399726	227.153846
2854.713277	236.450350
2856.025061	239.051748
2857.335080	232.208392
2858.646433	229.655245
2859.954470	243.419580
2861.263843	234.547552
2862.573000	227.682517
2863.881942	228.619580
2865.189121	222.004895
2866.494536	223.291608
2867.801286	219.161538
2869.106273	224.274825
2870.411047	229.109790
2871.714059	221.848951
2873.019953	227.644056
2874.320992	227.469231
2875.623364	230.548252
2876.923977	226.916783
2878.225924	225.448951
2879.527658	222.513986
2880.826088	222.082517
2882.125851	225.188112
2883.423857	226.332867
2884.721651	235.613287
2886.017688	243.462238
2887.315059	243.303497
2888.610674	248.646853
2889.906079	242.888112
2891.201272	242.837762
2892.493167	251.248252
2893.787939	242.901399
2895.079415	236.467133
2896.372223	230.681119
2897.664821	221.343357
2898.954124	223.585315
2900.244760	233.780420
2901.533646	239.550350
2902.823863	256.277622
2904.110789	255.617483
2905.399047	269.493007
2906.685556	287.758042
2907.971856	297.909091
2909.257948	295.497902
2910.542292	290.283916
2911.829508	278.502098
2913.111897	264.055944
2914.395618	257.211888
2915.677592	253.725175
2916.959360	254.995105
2918.239382	253.987413
2919.522274	236.434266
2920.803421	242.866434
2922.081286	252.107692
2923.362020	256.877622
2924.639473	253.874126
2925.916721	258.586713
2927.192226	253.629371
2928.470599	249.126573
2929.744157	251.940559
2931.020583	261.465035
2932.295268	254.261538
2933.568213	233.663636
2934.842488	230.222378
2936.115024	231.461538
2937.387356	231.081119
2938.656415	233.562937
2939.928339	234.196503
2941.198525	252.347552
2942.468507	263.386014
2943.738286	285.125874
2945.006328	298.781818
2946.272635	306.408392
2947.538739	291.343357
2948.806174	284.162937
2950.071873	282.497203
2951.337370	271.210490
2952.602665	257.646154
2953.864696	253.634965
2955.128056	247.931469
2956.391215	250.050350
2957.652641	251.397902
2958.915397	257.439161
2960.176422	253.295105
2961.435716	250.839860
2962.694809	256.640559
2963.953702	269.476224
2965.212395	269.900699
2966.470888	280.932867
2967.727652	283.386014
2968.984217	289.618182
2970.239053	281.462937
2971.495219	282.746853
2972.748129	285.506294
2974.002369	283.930769
2975.256410	284.958042
2976.508725	282.061538
2977.760842	282.349650
2979.011234	279.533566
2980.264481	273.106294
2981.512951	269.577622
2982.764275	264.595804
2984.012351	260.776923
2985.260229	254.408392
2986.507910	259.347552
2987.755395	256.926573
2989.001158	252.750350
2990.246724	264.364336
2991.493619	258.548252
2992.737268	255.851748
2993.982246	264.118182
2995.223981	272.447552
2996.468567	273.750350
2997.711434	281.748951
2998.951059	293.946154
3000.193536	291.376923
3001.432772	295.478322
3002.673336	283.044056
3003.912183	283.490210
3005.150836	284.640559
3006.387773	276.373427
3007.626037	275.136364
3008.862587	282.298601
3010.098943	279.868531
3011.335105	282.412587
3012.569553	272.080420
3013.803808	273.363636
3015.037870	263.326573
3016.270220	266.532867
3017.500858	259.004895
3018.734342	272.644755
3019.966115	276.718881
3021.196176	285.526573
3022.426046	302.453846
3023.654206	317.779021
3024.883693	320.037063
3026.111470	322.787413
3027.339056	310.919580
3028.567968	311.184615
3029.792138	305.118182
3031.019151	301.663636
3032.242941	296.295804
3033.468056	294.800000
3034.691465	296.518182
3035.914685	301.586014
3037.136199	310.018881
3038.360554	311.281119
3039.580174	306.835664
3040.801120	307.844056
3042.021876	301.089510
3043.240929	294.120280
3044.461308	286.177622
3045.678470	281.751049
3046.896957	278.670629
3048.113743	269.052448
3049.330340	268.974825
3050.546750	266.452448
3051.759946	262.525175
3052.975980	262.563636
3054.188802	261.348252
3055.404461	269.111888
3056.615397	269.549650
3057.827659	279.027273
3059.039733	280.086713
3060.251621	280.271329
3061.461811	280.192308
3062.671816	271.398252
3063.881634	266.907692
3065.089756	270.933916
3066.297692	267.413986
3067.503934	276.338811
3068.711500	277.860839
3069.917371	284.666783
3071.123057	290.767832
3072.328559	283.759790
3073.532367	273.714685
3074.737499	270.298951
3075.940938	270.122378
3077.142685	265.481469
3078.344249	264.518182
3079.545629	271.539161
3080.746825	270.311888
3081.946331	284.965035
3083.145653	287.525175
3084.346299	289.117483
3085.545256	285.981119
3086.741017	281.390909
3087.939608	282.954545
3089.135005	283.430070
3090.331726	283.491608
3091.525254	279.194406
3092.721610	278.139161
3093.916279	279.707692
3095.107758	283.114685
3096.303568	291.674825
3097.494685	290.837762
3098.687125	283.188112
3099.876376	278.951748
3101.068454	278.074825
3102.258848	275.607692
3103.446055	270.481119
3104.634586	265.379021
3105.824439	269.055245
3107.011107	275.026573
3108.197596	285.829371
3109.383905	300.470629
3110.571537	299.513986
3111.755986	299.521678
3112.938755	295.195105
3114.124348	294.186014
3115.308260	285.269231
3116.490494	284.586713
3117.672550	282.644755
3118.854427	280.500000
3120.036126	287.253147
3121.216148	288.298601
3122.394492	290.859441
3123.575658	289.120979
3124.753648	281.088112
3125.931461	287.834266
3127.109097	294.283916
3128.285058	298.953147
3129.460843	293.739860
3130.637948	294.444755
3131.813380	292.934965
3132.987138	281.672028
3134.159223	280.246853
3135.332629	281.167133
3136.505860	277.984615
3137.677418	274.481818
3138.850298	284.775524
3140.020010	300.579021
3141.191043	312.752448
3142.360405	320.940559
3143.528098	321.504196
3144.698606	315.493007
3145.864455	311.763636
3147.034614	301.530070
3148.200115	305.687413
3149.365443	311.388811
3150.530597	306.082517
3151.695578	303.200699
3152.861878	305.909091
3154.023525	308.051748
3155.186493	312.917483
3156.349287	317.161538
3157.511909	322.810490
3158.672866	317.366434
3159.833650	327.000000
3160.994263	327.927972
3162.153211	330.911888
3163.311987	330.925175
3164.470592	325.993706
3165.629025	315.614685
3166.787286	311.502098
3167.943885	309.979720
3169.098823	303.702098
3170.255080	307.970629
3171.409677	317.079720
3172.564102	317.612587
3173.716868	327.467832
3174.869464	327.393706
3176.021890	333.523776
3177.174145	329.291608
3178.326231	329.558741
3179.475170	332.988112
3180.626916	331.194406
3181.777005	325.222378
3182.925436	329.623776
3184.073699	336.431469
3185.221793	339.696503
3186.369717	339.944755
3187.515987	336.554545
3188.662088	329.317483
3189.806535	337.039860
3190.950813	325.265734
3192.094924	333.609790
3193.240353	343.127972
3194.382643	344.935664
3195.524765	348.460839
3196.666721	355.686713
3197.808509	354.088811
3198.950130	357.897902
3200.088615	360.258741
3201.228419	343.297902
3202.369539	330.076224
3203.507525	321.596503
3204.643862	297.277622
3205.780033	296.311888
3206.917522	300.285315
3208.053362	301.640559
3209.190518	300.377622
3210.323063	309.048252
3211.459888	312.488112
3212.592102	320.553147
3213.725634	322.157343
3214.859000	318.606294
3215.989239	322.167832
3217.122277	318.411888
3218.252187	311.055245
3219.383415	317.025874
3220.511517	319.060140
3221.642417	312.927273
3222.771672	320.724476
3223.899283	325.309091
3225.023773	324.106993
3226.152538	331.647552
3227.278181	336.394406
3228.403661	339.131469
3229.527500	349.674126
3230.654134	362.953846
3231.776169	363.345455
3232.899521	360.868531
3234.022711	359.223077
3235.145739	360.516084
3236.267127	373.734965
3237.388354	378.139860
3238.507942	377.362937
3239.627369	372.400000
3240.745159	364.286713
3241.865740	350.367133
3242.983208	353.169930
3244.100515	352.124476
3245.217661	337.997203
3246.333172	337.023776
3247.449998	341.137063
3248.563713	346.771329
3249.680219	352.762238
3250.795089	356.804895
3251.906851	351.820280
3253.018454	350.285315
3254.131372	343.511189
3255.244130	346.817483
3256.353782	357.259441
3257.464749	359.225874
3258.575557	363.406993
3259.684733	370.063636
3260.792278	364.489510
3261.901138	359.503497
3263.009839	354.955245
3264.115438	353.514685
3265.222352	345.351748
3266.327636	333.789510
3267.434234	331.195804
3268.537732	343.320979
3269.642544	356.693706
3270.747199	363.689510
3271.848756	368.141958
3272.950156	375.278322
3274.052870	369.855245
3275.155427	371.254545
3276.254889	366.190909
3277.357133	365.031469
3278.456283	356.498601
3279.553807	350.992308
3280.651176	352.867133
3281.751328	357.112587
3282.848386	363.149650
3283.945290	369.656643
3285.042038	364.581818
3286.134227	373.157343
3287.230666	374.493706
3288.325482	374.581119
3289.420143	366.634965
3290.513183	359.044755
3291.606069	353.515385
3292.697334	339.723776
3293.789912	321.735664
3294.880870	308.452448
3295.970208	306.308392
3297.059393	305.797902
3298.149890	304.029371
3299.237303	323.934266
3300.324564	342.423776
3301.413137	354.066434
3302.501557	365.620979
3303.585430	380.130769
3304.673545	389.702098
3305.758579	392.757343
3306.841997	394.765035
3307.926727	397.397203
3309.009841	400.367832
3310.094267	389.313287
3311.175615	380.062937
3312.258275	372.981818
3313.339321	361.524476
3314.420216	349.141958
3315.499498	339.283217
3316.578629	334.324476
3317.659072	329.888811
3318.736440	342.894406
3319.815120	351.589510
3320.892188	371.370629
3321.969106	376.429371
3323.044414	375.869930
3324.119572	375.240559
3325.196041	384.861538
3326.269439	395.287413
3327.342689	402.723077
3328.417250	404.253147
3329.490201	406.104895
3330.561545	407.524476
3331.634199	408.232867
3332.703786	406.977622
3333.774684	399.143357
3334.843975	389.017483
3335.914577	379.308392
3336.983572	371.286014
3338.050961	381.843357
3339.116745	388.134266
3340.186755	398.957343
3341.253702	400.319580
3342.317587	415.635664
3343.384240	421.400000
3344.449289	423.109091
3345.512734	418.816783
3346.576032	414.502098
3347.639185	420.607692
3348.702191	412.088811
3349.765050	412.138462
3350.826308	409.004895
3351.884509	411.164336
3352.946931	414.441958
3354.006296	411.585315
3355.065517	414.668531
3356.126046	410.723776
3357.182066	406.025175
3358.240851	408.044056
3359.295128	408.016783
3360.352169	405.762937
3361.407611	401.895105
3362.464362	403.844755
3363.519516	396.620280
3364.573072	394.248951
3365.625031	395.448951
3366.679752	395.717483
3367.731425	403.951049
3368.782953	413.718881
3369.835791	417.534965
3370.885581	428.012587
3371.936680	423.106294
3372.984732	428.694406
3374.035545	432.168531
3375.083312	430.676224
3376.130937	422.995105
3377.178420	407.725175
3378.224309	409.819580
3379.271508	401.401399
3380.315663	397.034965
3381.362577	390.032168
3382.407899	391.390210
3383.450181	392.022378
3384.492321	387.065734
3385.535770	393.649650
3386.579077	395.981119
3387.620794	403.937762
3388.662370	409.358741
3389.703806	403.518881
3390.743653	411.512587
3391.781911	399.495804
3392.821477	400.448951
3393.860903	401.803497
3394.898741	409.486014
3395.934992	410.211888
3396.971103	411.074126
3398.008522	406.176224
3399.042908	400.954545
3400.078602	406.239860
3401.114156	411.151049
3402.146678	417.187413
3403.181954	436.390210
3404.214199	430.997902
3405.246306	435.129371
3406.276829	427.849650
3407.308660	429.698601
3408.340352	414.510490
3409.369016	402.380420
3410.397542	394.499301
3411.427376	387.106993
3412.457072	390.840559
3413.483741	404.936364
3414.511718	426.288811
3415.536670	438.821678
3416.564372	441.853846
3417.589051	440.452448
3418.615036	435.517483
3419.639442	433.853147
3420.663710	424.879720
3421.686400	423.933566
3422.708955	426.746853
3423.732814	411.056643
3424.753654	411.458741
3425.774359	411.471728
3426.796369	412.701973
3427.815361	415.053147
3428.834218	418.428921
3429.854381	422.732967
3430.871526	427.868956
