-118.385087	10.537363
-115.715486	10.282418
-113.048821	9.765235
-110.382909	9.110989
-107.719928	8.444855
-105.055517	7.892008
-102.394037	7.577622
-99.731128	8.597902
-97.073326	8.025874
-94.414093	9.604196
-91.755609	11.154545
-89.100050	14.582517
-86.443062	14.681119
-83.791171	15.419580
-81.137851	16.222378
-78.487451	16.949650
-75.835621	14.031469
-73.188882	14.420280
-70.540713	13.997902
-67.893288	13.840559
-65.248776	11.860839
-62.602835	9.350350
-59.961977	6.138462
-57.319688	5.231469
-54.680309	4.888811
-52.039501	9.221678
-49.399432	9.810490
-46.764437	11.118182
-44.128012	13.364336
-41.494491	17.148252
-38.859540	20.932867
-36.229656	24.544056
-33.596178	26.258042
-30.967763	25.995804
-28.340082	23.463636
-25.710973	12.841259
-23.086920	-46.857343
-20.459278	-235.219580
-17.836689	-667.209790
-15.214831	-788.067832
-12.593704	640.608392
-9.973308	3211.073427
-7.355799	5397.167133
-4.736862	6928.634965
-2.120811	7788.795105
0.494512	7979.520280
3.109108	7504.249650
5.720822	6370.701399
8.333963	4614.281818
10.942071	2391.165035
13.553761	126.992308
16.160420	-1159.199301
18.768507	-826.755245
21.375870	-96.049650
23.978208	23.258741
26.584124	24.833566
29.185019	18.786014
31.787341	18.657343
34.384645	15.102797
36.985525	9.037063
39.581391	8.223776
42.178684	9.080420
44.775258	8.090210
47.366823	9.311189
49.959816	7.437063
52.549948	7.952448
55.141508	8.715385
57.730208	9.948951
60.320336	7.577622
62.905464	10.086713
65.492020	8.120280
68.077861	7.404895
70.660849	12.863636
73.245264	13.006993
75.822549	13.856643
78.403401	15.858741
80.981404	15.461538
83.558697	18.036364
86.137416	17.454545
88.711154	18.152448
91.286318	15.165035
93.858639	15.656643
96.430253	15.713986
98.999026	15.261538
101.569226	16.760140
104.136587	15.891608
106.705375	16.646853
109.271325	18.130769
111.834441	16.323776
114.401114	17.843357
116.958564	17.936364
119.521700	22.446853
122.079877	24.114685
124.641607	34.611888
127.198382	56.696503
129.756582	87.027972
132.309830	128.919580
134.862379	179.063636
137.418480	236.213287
139.969632	296.182517
142.520086	355.112587
145.069844	407.096503
147.616782	455.084615
150.163024	491.155944
152.710693	509.455944
155.257665	525.941259
157.799701	531.000699
160.341044	530.330070
162.881695	527.832168
165.423770	519.770629
167.963035	514.369930
170.499490	507.451049
173.035255	501.361538
175.572445	497.090909
178.108943	500.077622
180.642636	500.934266
183.173526	500.823776
185.703727	505.478322
188.235353	508.362937
190.764179	514.329371
193.290205	521.544056
195.815545	525.728671
198.342310	527.527972
200.866279	525.806294
203.389562	523.989510
205.912161	524.594406
208.431967	527.762937
210.951090	530.933566
213.469530	531.571329
215.989394	537.173427
218.502257	537.502797
221.018651	538.476224
223.534364	538.815385
226.045186	535.519580
228.557433	531.395804
231.066897	527.929371
233.575683	526.190909
236.083791	526.260839
238.593323	529.944755
241.097974	533.606294
243.601949	533.917483
246.107348	538.023077
248.607872	544.448252
251.111919	580.616084
253.608996	661.677622
256.109595	783.323776
258.607423	909.620979
261.104578	1014.446853
263.601060	1083.009091
266.092680	1109.609790
268.587818	1088.383217
271.080191	1025.066434
273.571893	927.139161
276.060832	815.264336
278.551194	708.334965
281.038795	636.801399
283.523636	605.986014
286.011991	603.231469
288.493408	598.469231
290.978338	592.804895
293.458422	582.087413
295.942019	567.700699
298.420774	546.400000
300.900951	531.735664
303.378377	524.803497
305.855139	523.274825
308.331237	532.737762
310.804587	545.770629
313.277276	561.660140
315.749303	579.745455
318.220668	590.543357
320.689290	599.299301
323.157252	604.194406
325.626637	601.482517
328.091199	593.026573
330.559264	584.176224
333.022510	570.691608
335.485099	555.964336
337.947030	549.983916
340.408305	545.883916
342.866846	547.527273
345.326809	544.297203
347.784040	540.204895
350.240616	539.353147
352.696537	537.925874
355.149730	536.936364
357.604345	535.320280
360.054158	538.739161
362.507467	534.572028
364.955977	534.630070
367.403837	534.253147
369.853118	532.518182
372.297606	527.681119
374.743516	525.794406
377.188777	524.803497
379.631319	522.147552
382.073213	516.105594
384.514459	514.520280
386.952990	513.379021
389.392943	516.494406
391.830182	515.483916
394.264709	516.898601
396.702724	518.037762
399.135962	521.015385
401.570622	522.930070
404.000509	525.684615
406.433881	527.353846
408.862482	529.169231
411.290443	530.034965
413.719824	532.038462
416.144441	532.538462
418.570478	535.792308
420.995876	536.437762
423.420633	534.003497
425.840631	533.534266
428.262051	535.604196
430.680774	533.469231
433.100918	530.586713
435.518367	530.476923
437.937236	529.148951
440.353412	529.779021
442.764841	531.671329
445.179746	533.785315
447.591961	537.312587
450.003542	538.643357
452.414489	542.425175
454.822750	543.195804
457.230379	546.305594
459.637375	545.086014
462.043739	541.662937
464.447422	536.483916
466.850474	529.185315
469.252896	527.383916
471.654688	525.406294
474.053802	525.946853
476.454336	526.327972
478.854241	530.545455
481.249423	535.062937
483.648072	537.046853
486.042001	539.102797
488.435304	539.161538
490.827981	541.615385
493.220033	537.797203
495.613504	529.370629
498.002262	523.576923
500.388354	518.052448
502.775866	507.955944
505.162754	498.670629
507.546979	494.082517
509.932623	487.667832
512.315604	479.594406
514.695925	474.902098
517.077665	473.114685
519.456746	472.285315
521.837246	468.890909
524.215088	470.237063
526.590275	469.096503
528.964844	470.165035
531.340832	464.170629
533.714166	461.855944
536.088919	460.480420
538.458985	454.765734
540.828436	447.344056
543.199306	443.108392
545.565494	433.360839
547.933101	428.804895
550.298062	430.323077
552.662410	434.014685
555.026146	430.377622
557.391299	431.609790
559.751780	428.570629
562.113678	428.415385
564.472937	428.718881
566.829557	429.865734
569.189623	429.625175
571.542997	428.165035
573.899816	426.832867
576.254000	430.673427
578.607575	432.364336
580.960542	428.953846
583.310878	426.841958
585.662630	426.325874
588.007706	424.334266
590.358246	423.737762
592.702113	421.269231
595.051441	420.696503
597.396120	419.090909
599.738175	418.516783
602.081647	419.165035
604.422496	422.102797
606.762742	423.337063
609.100368	426.107692
611.441429	431.601399
613.777853	434.861538
616.115693	432.976923
618.450915	430.202797
620.783522	425.988112
623.117546	423.788811
625.448955	419.672727
627.779766	413.672028
630.109979	411.548252
632.439595	412.406294
634.764587	413.337063
637.095021	416.700000
639.420833	420.832867
641.744039	426.713986
644.068661	426.337063
646.390677	426.348252
648.712099	427.885315
651.030918	429.103497
653.351153	428.038462
655.670795	427.232867
657.987836	422.236364
660.304286	420.260140
662.618137	417.226573
664.933403	417.909091
667.246073	420.565035
669.560158	424.097902
671.869644	422.257343
674.180544	424.276224
676.488852	426.632867
678.796572	426.440559
681.105707	429.154545
683.410249	428.557343
685.714205	418.653147
688.017574	418.133566
690.322358	412.463636
692.622556	411.760140
694.924169	407.693706
697.225196	406.126573
699.521642	402.457343
701.819502	403.303497
704.116780	400.710490
706.413473	399.979720
708.705591	403.320979
711.001120	404.053846
713.292076	399.471329
715.584446	404.675524
717.874240	403.453846
720.163455	406.419580
722.452089	404.232867
724.738152	402.368531
727.025628	401.152448
729.310534	399.625175
731.594861	397.273427
733.876621	399.858741
736.159794	401.637063
738.442390	403.248951
740.720430	404.333566
742.999884	409.341958
745.278763	409.580420
747.557066	410.471329
749.830820	408.243357
752.105988	406.862937
754.380582	407.306294
756.652617	404.358741
758.926065	404.170629
761.196955	406.316783
763.465288	406.125874
765.735036	409.621678
768.002228	410.962937
770.268850	415.927273
772.534903	416.349650
774.798404	413.289510
777.063317	409.611888
779.327662	409.677622
781.587476	410.326573
783.848704	408.177622
786.109364	406.451748
788.367477	403.350350
790.623046	402.233566
792.882006	408.478322
795.134467	408.616084
797.392295	410.242657
799.645604	411.811189
801.896372	408.942657
804.148553	405.607692
806.398196	409.904196
808.649250	408.781119
810.895793	405.761538
813.143749	402.018182
815.389169	397.083217
817.636002	394.115385
819.882272	394.707692
822.124039	390.148252
824.369188	386.183916
826.607865	385.865734
828.849925	384.585315
831.087486	383.586014
833.326458	388.062238
835.562904	391.739860
837.800762	396.904895
840.036094	396.374126
842.268902	395.556643
844.503122	394.185315
846.734820	398.856643
848.965963	396.835664
851.196551	396.943357
853.426585	397.165734
855.656064	398.104196
857.881063	398.095105
860.109435	402.139860
862.333329	408.370629
864.558633	408.144056
866.779462	400.020280
869.003663	394.376224
871.223391	387.500699
873.444530	386.012587
875.665118	382.286014
877.883197	385.662238
880.102685	390.183217
882.317707	390.639860
884.532181	395.436364
886.746108	397.758042
888.959487	403.623077
891.172320	404.418182
893.384605	401.198601
895.594389	400.130070
897.803627	399.434965
900.012319	397.244755
902.218513	396.922378
904.426116	394.251748
906.631222	396.751049
908.835784	397.958741
911.037851	397.113287
913.241327	398.583217
915.442309	401.177622
917.642749	399.002797
919.844598	395.568531
922.040056	402.553147
924.238872	404.787413
926.433251	405.508392
928.630987	408.603497
930.824287	411.692308
933.018995	413.425175
935.211218	415.422378
937.402903	416.376923
939.594050	418.653147
941.782714	413.866434
943.970841	414.139161
946.156488	417.427273
948.345487	418.314685
950.530063	421.681119
952.714104	435.475524
954.901495	437.813287
957.080583	443.857343
959.263020	440.990909
961.444924	439.742657
963.624354	439.885315
965.801311	432.148252
967.979676	419.139860
970.159447	414.547552
972.332870	407.803497
974.509639	395.560839
976.682002	406.860839
978.855771	413.813986
981.025138	409.019580
983.197848	424.837063
985.368092	432.630769
987.537808	437.566434
989.706995	449.875524
991.871785	452.590210
994.039917	452.974825
996.203653	455.431469
998.368797	448.257343
1000.531481	447.596503
1002.693640	454.482517
1004.853341	452.794406
1007.012519	449.531469
1009.173103	446.567133
1011.331232	442.007692
1013.488837	440.003497
1015.645919	454.255245
1017.802478	459.848252
1019.954657	467.488112
1022.108243	464.577622
1024.261306	466.816084
1026.411922	477.179720
1028.563943	480.772727
1030.711591	482.593007
1032.862571	478.571329
1035.009181	474.485315
1037.155271	472.955245
1039.300843	473.558042
1041.447819	483.961538
1043.588508	474.957343
1045.732525	470.904196
1047.874103	464.330769
1050.015163	472.510490
1052.157628	483.678322
1054.293814	479.048951
1056.433326	481.793706
1058.568482	485.773427
1060.706963	498.909790
1062.841091	505.049650
1064.974705	511.009790
1067.109723	507.043357
1069.240392	503.816084
1071.372467	513.943357
1073.502111	514.397902
1075.631244	527.344056
1077.759866	532.494406
1079.887976	515.727972
1082.013660	519.016084
1084.138834	522.093007
1086.265411	524.004895
1088.387652	507.830769
1090.511297	492.820280
1092.630607	476.538462
1094.755146	472.209790
1096.873441	463.476923
1098.993139	444.193706
1101.110419	440.779021
1103.227193	432.908392
1105.343460	430.634266
1107.457312	430.870629
1109.572567	438.048252
1111.683500	442.780420
1113.797744	443.338462
1115.907669	452.323077
1118.018996	459.941259
1120.129820	456.806294
1122.236327	454.454545
1124.346143	446.281119
1126.451645	438.455245
1128.558551	436.396503
1130.659240	429.997902
1132.765142	419.987413
1134.866735	416.744056
1136.969731	415.202797
1139.072226	418.194406
1141.168515	417.620979
1143.270010	421.314685
1145.367203	418.511189
1147.463897	424.667832
1149.560094	418.941958
1151.655792	417.618881
1153.750993	431.562937
1155.843797	434.560140
1157.938003	435.431469
1160.026018	428.732867
1162.119231	426.472028
1164.206256	429.523776
1166.296581	421.690210
1168.382617	423.590909
1170.471951	426.246154
1172.555104	426.944755
1174.639660	428.518182
1176.725616	435.979021
1178.807291	450.651049
1180.890368	447.769231
1182.971059	442.948951
1185.051259	437.532168
1187.130967	429.516084
1189.210183	426.644056
1191.287018	412.813287
1193.361472	412.847552
1195.439218	409.358741
1197.512693	403.451049
1199.587570	410.483916
1201.658179	410.630070
1203.730189	419.648951
1205.799823	415.766434
1207.870858	414.159441
1209.941405	413.200699
1212.007691	410.621678
1214.075378	406.916783
1216.140693	403.602098
1218.207408	408.437063
1220.269867	402.911888
1222.335612	398.234266
1224.397102	400.019580
1226.459992	394.450350
1228.520515	400.941958
1230.580555	399.691608
1232.640111	397.549650
1234.697303	397.010490
1236.754012	391.780420
1238.808359	388.093007
1240.865986	393.586014
1242.921251	397.055245
1244.972275	397.974825
1247.024699	403.435664
1249.076644	412.630070
1251.126230	414.318182
1253.175337	425.802098
1255.223965	427.542657
1257.272115	424.308392
1259.319787	426.469930
1261.363228	421.913287
1263.409944	416.568531
1265.454308	414.316783
1267.498194	415.788112
1269.539730	412.362937
1271.578916	417.786713
1273.621374	415.841958
1275.659611	410.601399
1277.699245	411.483916
1279.738405	401.672028
1281.773347	396.550350
1283.809687	391.862937
1285.843682	383.631469
1287.879076	381.734266
1289.910256	383.081818
1291.942835	391.790210
1293.974941	396.530070
1296.004707	407.227972
1298.035871	413.232168
1300.062827	419.798601
1302.091181	423.229371
1304.115331	420.482517
1306.142746	417.658741
1308.165958	410.452448
1310.190568	407.210490
1312.212843	411.809790
1314.236516	410.551049
1316.257856	414.094406
1318.278729	410.758741
1320.299134	409.015385
1322.315345	413.662238
1324.332955	409.330070
1326.348236	408.983916
1328.366776	405.504196
1330.381126	407.201399
1332.393151	410.586014
1334.408434	416.500000
1336.419531	418.857343
1338.432024	414.755245
1340.440335	412.156643
1342.451902	406.773427
1344.457430	409.224476
1346.466212	413.258741
1348.470818	405.532168
1350.478677	405.432168
1352.486073	400.667133
1354.487439	402.969930
1356.490202	399.690210
1358.492505	401.258042
1360.494347	394.385315
1362.495731	390.908392
1364.494800	389.811888
1366.493411	387.426573
1368.491564	393.002797
1370.489259	398.255245
1372.482790	398.280420
1374.477718	402.938462
1376.472189	402.325874
1378.466203	400.454545
1380.457910	400.733566
1382.449161	403.240559
1384.438107	400.043357
1386.428448	398.313287
1388.418334	399.130070
1390.405917	398.667133
1392.393046	399.191608
1394.377873	398.119580
1396.364095	395.746154
1398.348016	395.137063
1400.331485	394.317483
1402.314502	394.955944
1404.295221	397.800699
1406.277334	399.370629
1408.257150	399.652448
1410.236516	402.495804
1412.211743	411.795804
1414.190208	413.879720
1416.166380	409.966434
1418.142102	409.844755
1420.117375	408.651748
1422.090357	410.583916
1424.062892	407.425175
1426.034978	411.076923
1428.006616	412.789510
1429.974127	415.748951
1431.946711	416.041259
1433.911489	417.351049
1435.881340	416.848252
1437.847066	411.381119
1439.814186	405.672727
1441.779022	404.398601
1443.739738	395.201399
1445.705522	390.145455
1447.665351	386.054545
1449.626573	391.409790
1451.589188	391.720979
1453.547688	395.704895
1455.505746	398.929371
1457.463361	404.583916
1459.420535	408.331469
1461.375433	412.716084
1463.331723	410.876224
1465.285739	414.624476
1467.239315	408.593706
1469.190618	411.967832
1471.143313	410.263636
1473.093737	409.381119
1475.043722	399.765035
1476.993267	397.558741
1478.940544	398.957343
1480.885554	397.846154
1482.831956	401.350350
1484.777920	403.060839
1486.723446	403.864336
1488.666708	410.169231
1490.609533	411.505594
1492.550095	416.016783
1494.492048	413.200000
1496.431740	414.278322
1498.370996	411.977622
1500.309818	414.097902
1502.246380	413.513986
1504.184332	409.150350
1506.120027	413.390909
1508.055288	410.238462
1509.988292	411.005594
1511.920864	407.360140
1513.853004	405.411888
1515.784712	404.180420
1517.714167	407.898601
1519.645011	405.482517
1521.575425	412.781119
1523.501766	413.398601
1525.429497	408.898601
1527.354978	408.983217
1529.280030	409.004895
1531.204653	408.354545
1533.128847	409.993706
1535.050794	406.099301
1536.974130	409.267832
1538.895221	411.237063
1540.814067	412.804895
1542.734303	406.462937
1544.652295	414.454545
1546.569861	411.104196
1548.485185	414.257343
1550.401899	418.391608
1552.314558	425.265734
1554.230421	429.229371
1556.144045	426.379720
1558.055430	420.093706
1559.968204	421.579720
1561.876929	414.174126
1563.787044	402.205594
1565.696735	398.736364
1567.606002	396.921678
1569.513036	393.305594
1571.417837	400.560839
1573.324027	399.411189
1575.227985	409.551049
1577.131523	413.147552
1579.034639	413.010490
1580.935527	414.061538
1582.837803	419.892308
1584.737850	415.697203
1586.639286	416.511888
1588.536687	421.365035
1590.433671	419.404895
1592.330236	413.234965
1594.228188	412.755245
1596.120306	400.025175
1598.015618	408.537063
1599.910511	416.517483
1601.803183	417.900699
1603.695439	427.088112
1605.585475	429.476224
1607.475095	430.651748
1609.364300	429.401399
1611.253089	430.217483
1613.139662	422.804196
1615.027621	408.662937
1616.911565	401.208392
1618.796895	392.266434
1620.681812	400.748252
1622.564515	403.955245
1624.448604	407.753846
1626.328683	419.332867
1628.210148	417.364336
1630.089403	420.951049
1631.970044	417.209091
1633.844881	422.061538
1635.724700	420.260839
1637.600513	416.960140
1639.475917	416.623077
1641.352706	413.248951
1643.223698	424.351748
1645.097872	429.836364
1646.968048	432.967832
1648.841404	435.558042
1650.712557	434.653846
1652.581508	440.222378
1654.451845	435.609091
1656.318188	426.899301
1658.185918	426.502098
1660.051448	422.953147
1661.918363	428.463636
1663.781290	424.148252
1665.645602	427.724476
1667.507719	426.097902
1669.369430	424.402797
1671.232526	426.572028
1673.093428	425.075524
1674.952136	416.693007
1676.810441	396.739860
1678.670131	387.900699
1680.524054	390.928671
1682.381149	398.992308
1684.237842	414.301399
1686.090559	406.865035
1687.946447	412.256643
1689.798361	421.572727
1691.649873	425.678322
1693.500986	431.893706
1695.351697	430.679720
1697.202008	426.747552
1699.050135	418.985315
1700.899645	422.137063
1702.743407	416.921678
1704.592119	417.728671
1706.435084	418.923077
1708.281215	399.553147
1710.123385	401.104196
1711.968719	396.408392
1713.808313	393.333566
1715.649291	404.136364
1717.491652	408.175524
1719.330057	409.193007
1721.169845	416.692308
1723.007458	429.313986
1724.844675	423.334266
1726.679719	421.112587
1728.516146	414.933566
1730.350401	395.141259
1732.184262	398.604196
1734.017728	395.025874
1735.847248	394.984615
1737.679927	385.911189
1739.508662	391.153846
1741.340555	388.379021
1743.168505	393.496503
1744.996063	382.522378
1746.823230	378.744755
1748.650004	372.375524
1750.476388	368.380420
1752.298835	373.675524
1754.124436	387.245455
1755.946103	403.623776
1757.769152	407.791608
1759.590040	406.865035
1761.410538	427.093706
1763.232418	420.783217
1765.048598	402.775524
1766.867930	391.097203
1768.683335	398.055245
1770.501891	388.597203
1772.316521	398.275524
1774.130764	410.386014
1775.944621	425.230070
1777.758091	431.623077
1779.569407	432.816783
1781.382105	434.149650
1783.194416	436.264336
1785.002810	436.093007
1786.812585	434.362238
1788.618444	441.915385
1790.427450	444.762238
1792.232542	438.427273
1794.039014	444.897203
1795.845103	431.462937
1797.647282	429.600699
1799.452604	416.220979
1801.254018	402.740559
1803.056812	384.987413
1804.855701	386.765734
1806.655969	390.158741
1808.455857	386.867133
1810.253602	383.997902
1812.050967	380.826573
1813.847951	381.617483
1815.644555	383.928671
1817.439020	380.555944
1819.234865	388.604895
1821.025054	395.231469
1822.820140	387.690909
1824.609573	396.227273
1826.402144	415.306993
1828.192579	419.897203
1829.980879	411.811189
1831.772315	416.148951
1833.558105	412.021678
1835.345275	409.102098
1837.130313	397.104196
1838.918485	393.915385
1840.702771	400.605594
1842.484928	408.890210
1844.268463	408.717483
1846.049871	422.055944
1847.832656	431.246853
1849.611562	433.248951
1851.391846	425.174825
1853.170005	423.568531
1854.949541	403.988811
1856.726953	403.644056
1858.502241	394.523776
1860.278908	392.953147
1862.053452	402.865734
1863.829373	406.707692
1865.599675	411.260839
1867.373104	417.288811
1869.144413	415.781818
1870.915351	408.951049
1872.687666	406.291608
1874.454369	404.325874
1876.224196	401.063636
1877.990160	413.795804
1879.759248	406.851049
1881.524474	403.660140
1883.289332	408.076923
1885.055566	406.966434
1886.817942	409.744755
1888.579951	408.717483
1890.341593	406.645455
1892.102867	405.958042
1893.863775	414.646853
1895.624315	414.687413
1897.382746	420.669231
1899.140812	425.757343
1900.896770	423.865734
1902.654104	423.204895
1904.411072	423.672028
1906.165935	422.853846
1907.918692	431.519580
1909.671086	428.115385
1911.424856	429.120979
1913.176522	432.606993
1914.926085	430.262937
1916.677025	420.102797
1918.427601	418.717483
1920.174339	408.867832
1921.922452	406.067832
1923.668466	397.333566
1925.415856	393.569231
1927.161147	400.390210
1928.904341	407.191608
1930.648911	411.669231
1932.391384	413.406993
1934.133497	421.987413
1935.875251	424.238811
1937.616644	423.283916
1939.355944	419.610839
1941.094885	412.323077
1942.833467	413.168182
1944.569957	401.908392
1946.306090	402.056294
1948.043597	398.850350
1949.777283	397.891259
1951.512343	394.258042
1953.245314	387.719930
1954.977929	394.162238
1956.710187	396.710839
1958.442089	400.337762
1960.171905	399.251049
1961.899637	405.530769
1963.628742	406.260140
1965.357493	410.953147
1967.084160	422.146853
1968.810473	419.434266
1970.538159	422.989510
1972.260309	421.437762
1973.985561	422.269930
1975.707005	420.282517
1977.431549	419.315385
1979.154014	417.465734
1980.872675	413.405594
1982.594435	413.358741
1984.312393	400.335664
1986.031725	405.999301
1987.747256	406.856643
1989.467609	402.202797
1991.184162	404.286014
1992.896920	405.562937
1994.612773	408.663636
1996.326554	412.053846
1998.039984	418.447552
1999.751344	422.587413
2001.464077	427.160839
2003.173018	426.857343
2004.885053	421.584615
2006.591578	423.597902
2008.301196	416.313986
2010.008746	412.612587
2011.715949	409.579021
2013.421086	401.976923
2015.125876	403.572028
2016.832038	403.937063
2018.534418	399.837063
2020.238170	408.441958
2021.939859	410.698601
2023.641202	417.045455
2025.342200	423.139161
2027.041138	421.629371
2028.741447	421.199301
2030.437980	419.174825
2032.135885	417.653147
2033.831732	410.400000
2035.530664	408.433566
2037.224110	409.354545
2038.918927	404.686713
2040.613401	412.643357
2042.304107	413.397902
2043.997897	421.175524
2045.687920	420.693706
2047.379314	422.188811
2049.068655	425.907692
2050.759366	421.141259
2052.446315	415.386713
2054.132923	410.330070
2055.820902	405.662238
2057.505121	405.076923
2059.190710	400.260140
2060.875960	403.763636
2062.559162	414.395804
2064.243734	414.768531
2065.922842	419.551748
2067.606736	427.039860
2069.285170	429.035664
2070.966681	425.704196
2072.644440	419.567133
2074.321863	417.839860
2076.000655	411.693007
2077.677404	407.356643
2079.352112	404.702797
2081.028189	409.267832
2082.702226	413.397902
2084.375927	410.849650
2086.049293	414.295105
2087.720621	414.377622
2089.391614	415.167832
2091.062273	415.567832
2092.732598	407.794406
2094.402588	404.327972
2096.070543	399.126573
2097.738165	400.037063
2099.403753	393.811888
2101.070709	393.115385
2102.735632	397.386014
2104.400222	405.291608
2106.062781	403.887413
2107.726709	406.088112
2109.388605	410.031469
2111.050170	411.485315
2112.711405	409.125175
2114.370610	409.985315
2116.029486	413.423077
2117.688031	417.241958
2119.346247	410.990210
2121.000739	408.300699
2122.658297	412.639161
2124.315524	411.430070
2125.969031	407.418182
2127.623905	405.945455
2129.275060	404.968531
2130.929278	408.154545
2132.579778	410.488112
2134.231646	416.420280
2135.878105	426.417483
2137.529318	426.674126
2139.176818	427.629371
2140.825686	428.167832
2142.472534	427.227273
2144.119056	426.502098
2145.765254	426.037063
2147.407742	420.477622
2149.053289	415.200000
2150.695129	408.331469
2152.340026	403.246154
2153.981218	403.613287
2155.622086	402.102098
2157.262631	401.754545
2158.901163	408.548951
2160.541061	409.597902
2162.177259	411.660839
2163.814823	420.234965
2165.452065	420.245455
2167.087297	418.279021
2168.722207	413.529371
2170.356796	404.327273
2171.991064	402.802098
2173.621638	403.120280
2175.255263	402.899301
2176.885197	403.553147
2178.516496	402.710490
2180.145791	401.429371
2181.774765	400.591608
2183.403421	402.959441
2185.031757	394.976923
2186.658090	391.027273
2188.284105	392.076923
2189.908119	398.515385
2191.533498	413.259441
2193.156876	418.644056
2194.781619	427.845455
2196.402680	421.007692
2198.023426	418.501399
2199.645535	415.879021
2201.265647	409.441259
2202.883763	412.011189
2204.501563	405.134266
2206.119047	404.727972
2207.736216	401.972727
2209.353070	408.228671
2210.969609	406.080420
2212.584154	402.806993
2214.196707	407.445455
2215.810625	401.537063
2217.422550	403.146853
2219.035840	404.218182
2220.647138	409.455944
2222.256448	420.389510
2223.867120	420.214685
2225.475804	419.472727
2227.084176	407.597902
2228.690560	407.224476
2230.298308	400.399301
2231.904069	401.967832
2233.509519	402.032867
2235.112985	404.813986
2236.717813	402.936364
2238.320657	404.305594
2239.921518	407.082517
2241.523742	412.092308
2243.123983	405.970629
2244.725588	405.409091
2246.323539	404.042657
2247.922853	412.171329
2249.520187	415.995105
2251.117213	420.487413
2252.715600	422.340559
2254.310339	421.625874
2255.903102	418.543357
2257.497226	416.645455
2259.092712	411.137063
2260.684554	406.994406
2262.276089	399.806294
2263.868985	396.316084
2265.456572	397.537063
2267.048856	398.867832
2268.635832	399.743357
2270.225837	408.220280
2271.810537	409.986014
2273.399931	416.191608
2274.984022	418.537762
2276.569475	425.895804
2278.152959	423.302098
2279.739468	423.425874
2281.322344	417.418182
2282.904916	410.359790
2284.487186	408.662238
2286.065825	405.631818
2287.647488	407.883217
2289.225524	412.409441
2290.806582	416.218881
2292.384013	420.040210
2293.959481	421.685315
2295.537971	422.494056
2297.112836	414.045455
2298.687401	413.006643
2300.261666	406.265035
2301.835630	407.932517
2303.409294	408.874126
2304.982657	415.824476
2306.552402	420.046154
2308.121848	421.248252
2309.694313	426.700000
2311.261503	427.486014
2312.831710	426.965734
2314.398303	418.141259
2315.966256	410.317483
2317.532254	400.176923
2319.097954	396.562937
2320.663356	398.973427
2322.226805	399.011888
2323.791613	409.515385
2325.352812	421.914685
2326.917026	428.911189
2328.475979	435.712587
2330.037945	437.745455
2331.597961	437.841958
2333.157681	433.924476
2334.715452	427.774126
2336.272929	415.953147
2337.830110	413.748951
2339.385345	410.211189
2340.940285	401.785315
2342.494932	403.469231
2344.049285	407.673427
2345.603344	401.465035
2347.157110	396.416084
2348.708931	392.884615
2350.258809	388.696503
2351.811695	383.130070
2353.359339	380.204196
2354.909990	375.797203
2356.457051	381.666434
2358.005469	384.674126
2359.553595	384.604895
2361.098134	393.120280
2362.644030	396.867832
2364.187987	408.890909
2365.733302	418.332867
2367.275032	414.769930
2368.818120	410.304895
2370.359271	406.046853
2371.900133	413.751049
2373.440706	418.494406
2374.980990	417.960140
2376.520985	416.104895
2378.057401	414.600000
2379.596819	411.225175
2381.132660	408.818881
2382.669857	412.521678
2384.203480	408.549650
2385.740102	398.355944
2387.274793	400.882517
2388.807555	403.906294
2390.340031	415.812587
2391.870578	421.420979
2393.404123	423.513287
2394.932457	433.139161
2396.462147	429.327273
2397.991552	422.642657
2399.520672	417.694406
2401.049506	404.871329
2402.573136	394.614685
2404.101401	387.276224
2405.624463	391.808392
2407.152160	383.319580
2408.673016	384.785315
2410.198506	398.281119
2411.720436	403.400000
2413.243720	411.982517
2414.765084	411.572028
2416.284528	411.265734
2417.805327	406.939161
2419.324207	403.131469
2420.842805	393.329371
2422.359486	409.083916
2423.877522	420.009790
2425.395276	420.499301
2426.909478	424.827273
2428.423400	427.948951
2429.937043	417.497203
2431.452039	423.845455
2432.963487	424.132168
2434.476290	422.269930
2435.987180	419.637063
2437.497790	412.387413
2439.006489	409.967133
2440.518175	418.502098
2442.026317	423.434266
2443.534180	420.854545
2445.041766	408.851748
2446.545812	395.255944
2448.052842	377.469231
2449.557964	380.892308
2451.062809	376.550350
2452.565747	380.450350
2454.068408	378.763636
2455.570793	382.719580
2457.071273	390.322378
2458.573106	402.302797
2460.073035	418.422378
2461.572688	419.933566
2463.072066	419.644755
2464.569541	410.811189
2466.065114	411.369930
2467.563667	405.343357
2469.058691	405.137762
2470.555069	407.060839
2472.047920	398.048951
2473.542123	399.094406
2475.036053	389.323077
2476.526460	387.582517
2478.019844	384.055245
2479.511329	376.981119
2481.000918	372.033566
2482.490236	362.332867
2483.977657	362.602797
2485.468054	355.895804
2486.954932	364.364336
2488.443162	365.583217
2489.927876	367.967832
2491.412319	370.452448
2492.898114	368.100699
2494.382016	380.667133
2495.867270	389.896503
2497.347390	390.012587
2498.830482	398.649650
2500.311684	402.125175
2501.792617	399.518881
2503.271661	394.275524
2504.750437	396.986014
2506.228944	393.205594
2507.707182	394.373427
2509.185152	394.670629
2510.659618	398.150350
2512.137052	404.982517
2513.610983	402.573427
2515.086265	416.702797
2516.561279	432.374825
2518.032792	442.827273
2519.505656	434.882517
2520.976637	444.916084
2522.448967	443.622378
2523.916185	430.104895
2525.386369	426.066434
2526.854671	419.292308
2528.322709	415.647552
2529.790482	404.865734
2531.257990	402.464336
2532.725233	412.578322
2534.188985	404.806294
2535.654086	404.263636
2537.117310	399.053147
2538.581883	406.895105
2540.042967	394.561538
2541.505402	393.515385
2542.967573	391.798601
2544.426257	396.424476
2545.889514	402.693706
2547.347674	403.541259
2548.807183	405.485315
2550.261599	399.154545
2551.720585	398.570629
2553.177698	406.339860
2554.632941	403.756643
2556.087923	402.678322
2557.541035	405.372028
2558.995496	412.423776
2560.448088	419.258042
2561.900420	427.769930
2563.350884	427.016084
2564.804304	423.060839
2566.252642	419.625175
2567.703936	414.101399
2569.153363	423.279720
2570.599319	422.144755
2572.048229	416.162937
2573.493668	409.037063
2574.940456	407.434266
2576.385380	402.415385
2577.830047	401.900699
2579.276061	397.921678
2580.718608	395.348252
2582.162503	391.827273
2583.602933	402.095804
2585.044711	408.804196
2586.484629	413.193007
2587.925894	417.374825
2589.363697	418.776923
2590.804450	405.281119
2592.240140	400.422378
2593.678780	393.688811
2595.115563	396.051748
2596.550489	398.239161
2597.988364	398.088112
2599.421181	399.159441
2600.855345	410.139860
2602.287654	417.035664
2603.721310	419.188112
2605.153113	413.947552
2606.584663	404.385315
2608.015959	395.028671
2609.445404	392.535664
2610.874596	386.035664
2612.301937	380.442657
2613.730625	373.634266
2615.159060	377.731469
2616.584049	375.872727
2618.010383	388.699301
2619.434869	404.396503
2620.860701	411.959441
2622.283089	413.125874
2623.706823	419.108392
2625.128711	420.746853
2626.550348	417.807692
2627.970140	411.618182
2629.391278	406.749650
2630.812166	403.678322
2632.229616	403.855245
2633.650005	389.652448
2635.066957	393.616783
2636.483661	390.746154
2637.900116	390.146154
2639.316323	386.650350
2640.732281	387.440559
2642.146399	379.391608
2643.560270	385.995105
2644.972301	392.136364
2646.385677	390.625175
2647.795623	390.874825
2649.208505	383.222378
2650.617958	377.997902
2652.027165	376.407692
2653.434536	381.002797
2654.844841	382.526573
2656.253310	387.440559
2657.659944	391.703497
2659.066333	393.926573
2660.470888	407.859441
2661.876787	412.065035
2663.280853	409.566434
2664.684675	414.986713
2666.088252	414.886014
2667.489997	414.015385
2668.893086	417.711189
2670.292758	423.212587
2671.693773	419.586014
2673.091371	419.536364
2674.491900	403.988811
2675.889014	402.129371
2677.287471	396.434266
2678.684100	385.342657
2680.080488	377.467133
2681.476633	379.792308
2682.870952	378.367133
2684.266614	372.853147
2685.658866	372.066434
2687.052462	377.631469
2688.444233	377.776923
2689.837346	381.127273
2691.228636	382.437762
2692.618103	391.108392
2694.007331	391.937063
2695.396318	388.746853
2696.786648	396.451049
2698.171993	403.644755
2699.560263	396.672028
2700.946712	388.751748
2702.332922	380.381119
2703.718893	384.268531
2705.101466	383.442657
2706.485380	388.747552
2707.869057	389.018881
2709.252496	392.851748
2710.632539	390.509091
2712.013924	388.850350
2713.393493	392.236364
2714.774404	392.869930
2716.153500	383.632867
2717.530781	381.546853
2718.909404	380.104895
2720.286214	384.361538
2721.662788	388.169231
2723.039126	389.405594
2724.413652	390.465035
2725.789519	384.739860
2727.161999	378.237063
2728.537396	374.973427
2729.907831	373.190210
2731.279608	384.423776
2732.651151	386.972028
2734.020885	390.023077
2735.391959	395.309790
2736.761226	401.106294
2738.130259	399.055944
2739.497485	395.253846
2740.864479	390.709091
2742.231240	393.776923
2743.597768	398.193706
2744.962492	398.881119
2746.326983	402.223776
2747.691242	409.730070
2749.055270	414.293007
2750.419065	410.205594
2751.779487	421.023077
2753.142820	418.001399
2754.501210	409.125175
2755.862510	405.939860
2757.220439	407.572028
2758.581278	413.600699
2759.940316	410.220280
2761.295986	412.437063
2762.654565	412.821678
2764.009776	407.655245
2765.364758	403.212587
2766.717943	391.439161
2768.074035	397.593007
2769.426763	385.917483
2770.779262	377.316783
2772.131533	375.677622
2773.485143	366.182517
2774.835391	366.765035
2776.183846	364.370629
2777.535205	372.119580
2778.883205	379.851748
2780.232544	386.222378
2781.580090	391.825175
2782.927409	399.486014
2784.274502	413.742657
2785.619804	411.480420
2786.964880	411.779720
2788.309730	415.904895
2789.654354	406.008392
2790.995625	403.613287
2792.338235	392.162937
2793.680620	397.558042
2795.022779	392.744056
2796.361589	391.834266
2797.703299	388.020979
2799.041660	387.514685
2800.381359	390.903497
2801.719272	388.168531
2803.055401	392.923077
2804.391307	394.223077
2805.728549	398.004196
2807.064008	398.548252
2808.399244	400.902797
2809.732698	402.513287
2811.067488	391.275524
2812.398937	398.472028
2813.733282	397.677622
2815.062729	395.844056
2816.393513	401.961538
2817.724075	402.586014
2819.052858	401.780420
2820.382978	410.832168
2821.711318	413.928671
2823.039438	408.653147
2824.365781	404.446154
2825.693459	395.760839
2827.017805	395.101399
2828.343486	396.020979
2829.667393	388.090909
2830.991079	385.962937
2832.316101	394.164336
2833.637794	396.974126
2834.959267	402.869930
2836.280522	410.818182
2837.601558	408.483217
2838.920822	404.502098
2840.241421	394.783916
2841.560248	388.809790
2842.878857	382.655944
2844.195696	377.676224
2845.512317	373.582517
2846.828720	382.260839
2848.143355	383.097902
2849.459324	384.011888
2850.771973	388.502797
2852.085958	392.813986
2853.399726	386.613287
2854.713277	385.925874
2856.025061	379.935664
2857.335080	380.018182
2858.646433	373.536364
2859.954470	381.910490
2861.263843	382.481119
2862.573000	399.424476
2863.881942	391.966434
2865.189121	393.607692
2866.494536	392.567133
2867.801286	394.379021
2869.106273	383.253147
2870.411047	388.195105
2871.714059	387.702797
2873.019953	393.921678
2874.320992	393.085315
2875.623364	399.272028
2876.923977	400.752448
2878.225924	408.342657
2879.527658	399.937762
2880.826088	398.272727
2882.125851	399.589510
2883.423857	392.344755
2884.721651	383.063636
2886.017688	372.978322
2887.315059	373.869930
2888.610674	376.236364
2889.906079	377.379720
2891.201272	382.938462
2892.493167	388.527972
2893.787939	391.223077
2895.079415	400.098601
2896.372223	402.875524
2897.664821	403.358042
2898.954124	391.240559
2900.244760	393.553846
2901.533646	386.731469
2902.823863	384.281119
2904.110789	386.570629
2905.399047	401.097203
2906.685556	412.813986
2907.971856	415.126573
2909.257948	417.942657
2910.542292	425.311888
2911.829508	417.886713
2913.111897	416.360839
2914.395618	412.566434
2915.677592	414.493706
2916.959360	407.557343
2918.239382	402.705594
2919.522274	401.083916
2920.803421	400.469930
2922.081286	391.285315
2923.362020	390.206993
2924.639473	386.354545
2925.916721	380.328671
2927.192226	384.596503
2928.470599	387.193706
2929.744157	388.632168
2931.020583	390.893007
2932.295268	400.272727
2933.568213	404.033566
2934.842488	398.773427
2936.115024	404.044755
2937.387356	409.315385
2938.656415	424.427273
2939.928339	413.733566
2941.198525	411.217483
2942.468507	406.878322
2943.738286	396.430070
2945.006328	390.768531
2946.272635	380.416783
2947.538739	384.120280
2948.806174	379.780420
2950.071873	376.444056
2951.337370	381.775524
2952.602665	384.641259
2953.864696	391.451049
2955.128056	384.729371
2956.391215	384.581119
2957.652641	377.591608
2958.915397	380.540559
2960.176422	375.072028
2961.435716	374.287413
2962.694809	390.291608
2963.953702	391.929371
2965.212395	394.031469
2966.470888	394.409790
2967.727652	395.101399
2968.984217	397.680420
2970.239053	392.621678
2971.495219	389.174126
2972.748129	386.132867
2974.002369	384.351748
2975.256410	376.592308
2976.508725	382.559441
2977.760842	396.754545
2979.011234	400.990210
2980.264481	403.988112
2981.512951	400.158741
2982.764275	397.632168
2984.012351	397.495804
2985.260229	391.823077
2986.507910	382.070629
2987.755395	378.552448
2989.001158	376.089510
2990.246724	378.879720
2991.493619	383.687413
2992.737268	386.492308
2993.982246	390.945455
2995.223981	398.664336
2996.468567	399.505594
2997.711434	410.080420
2998.951059	416.273427
3000.193536	423.216084
3001.432772	421.758741
3002.673336	428.104895
3003.912183	427.320979
3005.150836	427.530070
3006.387773	415.618182
3007.626037	405.232867
3008.862587	399.379720
3010.098943	403.837762
3011.335105	406.207692
3012.569553	405.876923
3013.803808	408.372028
3015.037870	417.167133
3016.270220	416.679720
3017.500858	416.560140
3018.734342	416.928671
3019.966115	416.907692
3021.196176	409.733566
3022.426046	410.818881
3023.654206	406.471329
3024.883693	412.428671
3026.111470	414.328671
3027.339056	406.132867
3028.567968	405.178322
3029.792138	404.985315
3031.019151	403.775524
3032.242941	410.716783
3033.468056	422.364336
3034.691465	429.587413
3035.914685	432.786014
3037.136199	448.730070
3038.360554	444.862238
3039.580174	442.940559
3040.801120	430.592308
3042.021876	421.492308
3043.240929	416.382517
3044.461308	417.641259
3045.678470	414.468531
3046.896957	422.914685
3048.113743	427.923776
3049.330340	423.300000
3050.546750	418.195105
3051.759946	423.406993
3052.975980	410.885315
3054.188802	407.257343
3055.404461	401.583916
3056.615397	400.603497
3057.827659	398.934266
3059.039733	398.883916
3060.251621	400.897203
3061.461811	401.062238
3062.671816	400.838811
3063.881634	399.136364
3065.089756	395.882168
3066.297692	404.095804
3067.503934	409.100350
3068.711500	415.469231
3069.917371	417.968182
3071.123057	413.156643
3072.328559	410.408741
3073.532367	404.837063
3074.737499	398.092657
3075.940938	384.397902
3077.142685	381.202448
3078.344249	390.048252
3079.545629	389.345455
3080.746825	401.154545
3081.946331	405.160839
3083.145653	406.256643
3084.346299	409.546154
3085.545256	414.327972
3086.741017	410.828671
3087.939608	406.106993
3089.135005	398.525175
3090.331726	391.945455
3091.525254	392.069930
3092.721610	398.898601
3093.916279	396.447552
3095.107758	395.873427
3096.303568	385.506993
3097.494685	383.716084
3098.687125	387.954545
3099.876376	395.467133
3101.068454	397.836364
3102.258848	407.647552
3103.446055	412.641958
3104.634586	418.932867
3105.824439	429.349650
3107.011107	436.996503
3108.197596	436.121678
3109.383905	435.477622
3110.571537	422.919580
3111.755986	418.302797
3112.938755	408.418881
3114.124348	399.258741
3115.308260	393.474825
3116.490494	391.891608
3117.672550	388.825175
3118.854427	393.725874
3120.036126	403.439860
3121.216148	412.179720
3122.394492	416.118182
3123.575658	424.846154
3124.753648	426.961538
3125.931461	440.709790
3127.109097	438.021678
3128.285058	436.298601
3129.460843	437.235664
3130.637948	439.787413
3131.813380	427.077622
3132.987138	425.653846
3134.159223	419.157343
3135.332629	410.448252
3136.505860	406.884615
3137.677418	399.519580
3138.850298	395.291608
3140.020010	401.182517
3141.191043	395.312587
3142.360405	402.458741
3143.528098	416.481818
3144.698606	429.908392
3145.864455	432.297203
3147.034614	439.641259
3148.200115	442.602797
3149.365443	446.427273
3150.530597	449.774126
3151.695578	438.767832
3152.861878	429.741259
3154.023525	425.258741
3155.186493	415.251049
3156.349287	415.758741
3157.511909	414.602098
3158.672866	417.707692
3159.833650	420.813986
3160.994263	421.027972
3162.153211	423.097203
3163.311987	427.622378
3164.470592	435.093007
3165.629025	438.194406
3166.787286	441.937762
3167.943885	436.337762
3169.098823	425.249650
3170.255080	420.881119
3171.409677	414.490909
3172.564102	414.296503
3173.716868	415.190210
3174.869464	420.500699
3176.021890	421.312587
3177.174145	426.563636
3178.326231	433.602797
3179.475170	432.343357
3180.626916	433.345455
3181.777005	433.637063
3182.925436	435.468531
3184.073699	435.974126
3185.221793	426.745455
3186.369717	429.286014
3187.515987	434.960839
3188.662088	442.689510
3189.806535	437.524476
3190.950813	436.564336
3192.094924	428.213986
3193.240353	419.629371
3194.382643	414.892308
3195.524765	422.961538
3196.666721	417.623776
3197.808509	414.779720
3198.950130	411.616084
3200.088615	420.911888
3201.228419	426.623776
3202.369539	431.820979
3203.507525	436.225874
3204.643862	438.753846
3205.780033	431.825874
3206.917522	425.925175
3208.053362	421.464336
3209.190518	424.810490
3210.323063	424.453147
3211.459888	430.828671
3212.592102	434.309091
3213.725634	432.834965
3214.859000	432.254545
3215.989239	429.459441
3217.122277	431.930769
3218.252187	422.500699
3219.383415	414.078322
3220.511517	407.141958
3221.642417	402.437063
3222.771672	401.039860
3223.899283	403.154545
3225.023773	401.165035
3226.152538	404.647552
3227.278181	410.912587
3228.403661	418.283916
3229.527500	423.335664
3230.654134	433.290909
3231.776169	434.468531
3232.899521	442.416084
3234.022711	443.946853
3235.145739	438.255944
3236.267127	433.390909
3237.388354	428.559441
3238.507942	426.455944
3239.627369	423.275524
3240.745159	420.505594
3241.865740	423.272727
3242.983208	422.186014
3244.100515	422.981818
3245.217661	421.517483
3246.333172	421.765035
3247.449998	415.828671
3248.563713	405.425874
3249.680219	405.279021
3250.795089	415.783217
3251.906851	424.425175
3253.018454	424.754545
3254.131372	431.008392
3255.244130	447.072727
3256.353782	451.447552
3257.464749	448.513287
3258.575557	452.521678
3259.684733	449.334965
3260.792278	440.594406
3261.901138	426.996503
3263.009839	430.853147
3264.115438	433.499301
3265.222352	431.062238
3266.327636	429.554545
3267.434234	431.485315
3268.537732	445.346853
3269.642544	454.865734
3270.747199	450.316783
3271.848756	462.147552
3272.950156	458.781818
3274.052870	459.974126
3275.155427	461.816783
3276.254889	469.741958
3277.357133	461.532168
3278.456283	460.086713
3279.553807	455.073427
3280.651176	452.814685
3281.751328	456.569930
3282.848386	452.622378
3283.945290	453.769231
3285.042038	456.218182
3286.134227	450.767832
3287.230666	457.488811
3288.325482	463.865035
3289.420143	461.826573
3290.513183	459.303497
3291.606069	454.958042
3292.697334	441.654545
3293.789912	436.877622
3294.880870	431.956643
3295.970208	429.789510
3297.059393	437.551748
3298.149890	438.411189
3299.237303	442.372028
3300.324564	448.445455
3301.413137	456.258042
3302.501557	459.980420
3303.585430	464.934965
3304.673545	463.001399
3305.758579	465.502098
3306.841997	468.797902
3307.926727	467.439161
3309.009841	461.065035
3310.094267	462.982517
3311.175615	470.074825
3312.258275	460.462937
3313.339321	454.243357
3314.420216	452.295105
3315.499498	448.888811
3316.578629	447.574126
3317.659072	444.079021
3318.736440	444.783916
3319.815120	441.953147
3320.892188	436.276224
3321.969106	438.521678
3323.044414	441.606993
3324.119572	449.341259
3325.196041	444.457343
3326.269439	454.313287
3327.342689	462.958741
3328.417250	468.090210
3329.490201	473.803497
3330.561545	466.847552
3331.634199	463.539161
3332.703786	463.586713
3333.774684	467.003497
3334.843975	473.529371
3335.914577	465.155245
3336.983572	467.515385
3338.050961	468.627972
3339.116745	468.806294
3340.186755	469.215385
3341.253702	471.687413
3342.317587	468.873427
3343.384240	462.286713
3344.449289	465.582517
3345.512734	472.758741
3346.576032	484.653147
3347.639185	482.939161
3348.702191	471.409091
3349.765050	474.013986
3350.826308	473.208392
3351.884509	475.126573
3352.946931	477.752448
3354.006296	485.230070
3355.065517	485.315385
3356.126046	484.858741
3357.182066	488.191608
3358.240851	487.328671
3359.295128	486.030769
3360.352169	481.723077
3361.407611	475.015385
3362.464362	484.248252
3363.519516	482.753846
3364.573072	489.409091
3365.625031	482.711189
3366.679752	480.837762
3367.731425	474.346154
3368.782953	468.683916
3369.835791	466.811888
3370.885581	467.227972
3371.936680	466.698601
3372.984732	467.724476
3374.035545	476.160839
3375.083312	480.774825
3376.130937	477.697203
3377.178420	480.771329
3378.224309	475.497203
3379.271508	476.697902
3380.315663	476.406993
3381.362577	480.684615
3382.407899	483.635664
3383.450181	483.123077
3384.492321	482.249650
3385.535770	481.876224
3386.579077	485.571329
3387.620794	482.161538
3388.662370	477.957343
3389.703806	477.662937
3390.743653	471.031469
3391.781911	471.651049
3392.821477	465.834965
3393.860903	466.796503
3394.898741	462.843357
3395.934992	461.624476
3396.971103	460.866434
3398.008522	468.306993
3399.042908	472.254545
3400.078602	482.295804
3401.114156	481.439161
3402.146678	489.246853
3403.181954	491.086713
3404.214199	494.420979
3405.246306	494.223776
3406.276829	498.309091
3407.308660	496.431469
3408.340352	500.367832
3409.369016	493.544056
3410.397542	498.103497
3411.427376	497.711189
3412.457072	502.582517
3413.483741	502.981119
3414.511718	509.090909
3415.536670	510.007692
3416.564372	512.591608
3417.589051	504.939860
3418.615036	497.006294
3419.639442	497.606294
3420.663710	493.893007
3421.686400	486.506294
3422.708955	481.254545
3423.732814	478.353846
3424.753654	481.750350
3425.774359	485.049550
3426.796369	489.895529
3427.815361	496.174126
3428.834218	503.771179
3429.854381	512.572527
3430.871526	522.464011
