-118.385087	67.611813
-115.715486	60.910989
-113.048821	56.928821
-110.382909	55.181219
-107.719928	55.184091
-105.055517	56.453347
-102.394037	58.504895
-99.731128	61.157343
-97.073326	62.837063
-94.414093	62.258741
-91.755609	61.587413
-89.100050	60.944755
-86.443062	62.377622
-83.791171	59.145455
-81.137851	60.167832
-78.487451	53.923077
-75.835621	54.891608
-73.188882	56.509790
-70.540713	58.983916
-67.893288	61.512587
-65.248776	65.690210
-62.602835	66.353846
-59.961977	67.686014
-57.319688	69.658042
-54.680309	70.693007
-52.039501	71.846154
-49.399432	73.248252
-46.764437	75.200699
-44.128012	81.744056
-41.494491	88.823776
-38.859540	102.028671
-36.229656	112.313287
-33.596178	121.741259
-30.967763	127.074126
-28.340082	132.119580
-25.710973	91.879720
-23.086920	-193.965035
-20.459278	-1167.461538
-17.836689	-2932.611189
-15.214831	-2298.002098
-12.593704	2742.327273
-9.973308	13696.131469
-7.355799	23312.493007
-4.736862	30063.870629
-2.120811	33896.388112
0.494512	34797.823776
3.109108	32782.809790
5.720822	27883.687413
8.333963	20261.873427
10.942071	10634.109091
13.553761	1187.677622
16.160420	-3954.604895
18.768507	-4044.421678
21.375870	-532.896503
23.978208	136.354545
26.584124	140.602098
29.185019	132.900699
31.787341	120.997203
34.384645	113.094406
36.985525	103.151748
39.581391	100.969930
42.178684	98.286014
44.775258	95.513986
47.366823	93.883916
49.959816	92.070629
52.549948	90.588112
55.141508	86.330070
57.730208	79.905594
60.320336	80.532867
62.905464	74.048951
65.492020	73.502098
68.077861	71.647552
70.660849	75.227273
73.245264	75.328671
75.822549	76.762238
78.403401	76.287413
80.981404	77.311189
83.558697	79.095105
86.137416	80.560140
88.711154	81.448252
91.286318	81.294406
93.858639	78.230070
96.430253	81.777622
98.999026	84.468531
101.569226	86.437063
104.136587	84.604895
106.705375	82.912587
109.271325	84.411189
111.834441	87.028671
114.401114	94.895105
116.958564	104.281119
119.521700	118.566434
122.079877	142.555245
124.641607	187.011189
127.198382	273.290909
129.756582	394.492308
132.309830	556.996503
134.862379	746.741259
137.418480	965.560839
139.969632	1196.868531
142.520086	1425.565734
145.069844	1644.967832
147.616782	1828.075524
150.163024	1970.820979
152.710693	2068.528671
155.257665	2118.995105
157.799701	2143.895804
160.341044	2137.115385
162.881695	2113.230769
165.423770	2070.800699
167.963035	2032.672028
170.499490	1996.158741
173.035255	1973.203497
175.572445	1968.937762
178.108943	1977.393706
180.642636	2003.787413
183.173526	2044.192308
185.703727	2082.718881
188.235353	2132.994406
190.764179	2177.062937
193.290205	2217.602098
195.815545	2249.382517
198.342310	2274.309091
200.866279	2284.158042
203.389562	2281.234266
205.912161	2276.564336
208.431967	2266.483217
210.951090	2263.134965
213.469530	2263.749650
215.989394	2259.376923
218.502257	2262.893706
221.018651	2252.170629
223.534364	2247.038462
226.045186	2237.441259
228.557433	2228.427273
231.066897	2211.209790
233.575683	2200.632867
236.083791	2195.725175
238.593323	2196.968531
241.097974	2199.810490
243.601949	2196.957343
246.107348	2196.893007
248.607872	2212.770629
251.111919	2359.667832
253.608996	2778.716783
256.109595	3406.255245
258.607423	4069.666434
261.104578	4607.753147
263.601060	4967.281119
266.092680	5100.397203
268.587818	5001.514685
271.080191	4673.274126
273.571893	4162.345455
276.060832	3566.619580
278.551194	2989.318182
281.038795	2605.473427
283.523636	2459.296503
286.011991	2438.537762
288.493408	2412.557343
290.978338	2344.864336
293.458422	2250.051748
295.942019	2138.330070
298.420774	2027.474825
300.900951	1930.299301
303.378377	1865.204196
305.855139	1859.313287
308.331237	1900.094406
310.804587	1980.298601
313.277276	2059.428671
315.749303	2131.443357
318.220668	2188.514685
320.689290	2229.025874
323.157252	2244.565035
325.626637	2234.553846
328.091199	2206.541958
330.559264	2151.230769
333.022510	2087.380420
335.485099	2032.736364
337.947030	2003.491608
340.408305	1994.704895
342.866846	1983.597902
345.326809	1969.723077
347.784040	1964.376224
350.240616	1965.134965
352.696537	1969.545455
355.149730	1965.692308
357.604345	1962.673427
360.054158	1952.989510
362.507467	1939.619580
364.955977	1921.625874
367.403837	1909.025175
369.853118	1889.390909
372.297606	1866.749650
374.743516	1843.669930
377.188777	1826.378322
379.631319	1817.246154
382.073213	1810.339161
384.514459	1801.650350
386.952990	1801.130769
389.392943	1793.253147
391.830182	1790.227972
394.264709	1788.806993
396.702724	1796.088811
399.135962	1798.676224
401.570622	1796.848252
404.000509	1796.963636
406.433881	1799.188112
408.862482	1801.412587
411.290443	1805.793706
413.719824	1810.133566
416.144441	1817.606294
418.570478	1816.260140
420.995876	1819.058741
423.420633	1820.581119
425.840631	1827.820979
428.262051	1834.339860
430.680774	1839.529371
433.100918	1844.976224
435.518367	1845.523077
437.937236	1847.816084
440.353412	1851.002797
442.764841	1852.287413
445.179746	1853.704196
447.591961	1850.839860
450.003542	1843.995804
452.414489	1839.362937
454.822750	1834.092308
457.230379	1826.045455
459.637375	1818.697203
462.043739	1808.381119
464.447422	1799.605594
466.850474	1789.956643
469.252896	1773.233566
471.654688	1765.139161
474.053802	1762.608392
476.454336	1761.827972
478.854241	1770.074825
481.249423	1781.258741
483.648072	1785.266434
486.042001	1789.097902
488.435304	1797.981119
490.827981	1797.283916
493.220033	1793.547552
495.613504	1772.838462
498.002262	1738.232867
500.388354	1703.617483
502.775866	1658.770629
505.162754	1611.172028
507.546979	1568.485315
509.932623	1523.290210
512.315604	1479.364336
514.695925	1446.329371
517.077665	1422.187413
519.456746	1406.030070
521.837246	1403.829371
524.215088	1397.224476
526.590275	1394.000699
528.964844	1383.783217
531.340832	1365.848252
533.714166	1345.233566
536.088919	1324.668531
538.458985	1296.715385
540.828436	1272.745455
543.199306	1248.783916
545.565494	1227.450350
547.933101	1213.594406
550.298062	1203.843357
552.662410	1200.801399
555.026146	1195.258741
557.391299	1186.055245
559.751780	1185.215385
562.113678	1186.174126
564.472937	1185.548252
566.829557	1179.677622
569.189623	1181.973427
571.542997	1176.278322
573.899816	1168.135664
576.254000	1156.934965
578.607575	1147.589510
580.960542	1143.065734
583.310878	1135.256643
585.662630	1129.376923
588.007706	1133.074825
590.358246	1134.041958
592.702113	1134.210490
595.051441	1136.548951
597.396120	1140.774825
599.738175	1134.918881
602.081647	1133.184615
604.422496	1128.657343
606.762742	1130.116783
609.100368	1126.526573
611.441429	1122.375524
613.777853	1115.293007
616.115693	1114.682517
618.450915	1111.165734
620.783522	1111.724476
623.117546	1105.723077
625.448955	1102.595804
627.779766	1097.045455
630.109979	1096.051748
632.439595	1090.039161
634.764587	1090.421678
637.095021	1086.074126
639.420833	1085.311888
641.744039	1079.465035
644.068661	1078.525175
646.390677	1074.061538
648.712099	1071.670629
651.030918	1067.112587
653.351153	1061.019580
655.670795	1059.146853
657.987836	1059.127273
660.304286	1052.986713
662.618137	1055.855944
664.933403	1056.644755
667.246073	1055.727273
669.560158	1054.069930
671.869644	1059.474126
674.180544	1055.172028
676.488852	1055.318881
678.796572	1050.169930
681.105707	1039.574126
683.410249	1037.885315
685.714205	1034.158741
688.017574	1024.053147
690.322358	1021.357343
692.622556	1014.383217
694.924169	1002.882517
697.225196	994.281119
699.521642	987.347552
701.819502	973.602797
704.116780	965.231469
706.413473	952.804895
708.705591	947.714685
711.001120	941.751748
713.292076	939.106993
715.584446	939.037762
717.874240	947.913287
720.163455	953.138462
722.452089	957.774126
724.738152	964.102098
727.025628	967.809091
729.310534	967.351748
731.594861	967.409790
733.876621	965.439161
736.159794	961.644056
738.442390	954.585315
740.720430	946.086713
742.999884	940.472028
745.278763	935.737762
747.557066	933.498601
749.830820	939.202797
752.105988	940.006993
754.380582	940.755245
756.652617	943.834965
758.926065	947.125175
761.196955	954.075524
763.465288	953.209091
765.735036	957.002797
768.002228	957.909091
770.268850	958.581119
772.534903	960.513287
774.798404	966.356643
777.063317	978.359441
779.327662	984.206993
781.587476	988.602098
783.848704	991.783916
786.109364	995.381119
788.367477	1000.041259
790.623046	995.347552
792.882006	989.567832
795.134467	981.748951
797.392295	969.877622
799.645604	965.949650
801.896372	956.386713
804.148553	953.395804
806.398196	947.956643
808.649250	937.374825
810.895793	935.151049
813.143749	932.411189
815.389169	938.512587
817.636002	930.693007
819.882272	919.408392
822.124039	914.874825
824.369188	914.002797
826.607865	916.967832
828.849925	914.026573
831.087486	913.430769
833.326458	909.849650
835.562904	905.514685
837.800762	897.348252
840.036094	893.575524
842.268902	889.736364
844.503122	884.592308
846.734820	878.036364
848.965963	883.908392
851.196551	890.281119
853.426585	893.773427
855.656064	898.447552
857.881063	893.043357
860.109435	887.983217
862.333329	885.734965
864.558633	876.839860
866.779462	886.987413
869.003663	885.633566
871.223391	895.346154
873.444530	891.775524
875.665118	900.757343
877.883197	916.978322
880.102685	928.800699
882.317707	932.458042
884.532181	925.045455
886.746108	919.938462
888.959487	919.613287
891.172320	914.133566
893.384605	920.718881
895.594389	911.297203
897.803627	904.455245
900.012319	893.216084
902.218513	894.481818
904.426116	906.817483
906.631222	921.493007
908.835784	921.237762
911.037851	926.160839
913.241327	924.410490
915.442309	930.576923
917.642749	932.313986
919.844598	929.129371
922.040056	920.404895
924.238872	916.064336
926.433251	918.139860
928.630987	918.084615
930.824287	931.369231
933.018995	953.091608
935.211218	959.438462
937.402903	967.249650
939.594050	976.316084
941.782714	1006.293007
943.970841	1009.055944
946.156488	1005.399301
948.345487	1012.353147
950.530063	1010.869231
952.714104	1025.815385
954.901495	1030.955944
957.080583	1041.939161
959.263020	1063.040559
961.444924	1099.405594
963.624354	1114.358042
965.801311	1143.509790
967.979676	1170.873427
970.159447	1170.271329
972.332870	1177.496503
974.509639	1168.641259
976.682002	1152.093007
978.855771	1156.337063
981.025138	1160.429371
983.197848	1164.553846
985.368092	1186.488112
987.537808	1227.771329
989.706995	1252.378322
991.871785	1262.655245
994.039917	1291.455944
996.203653	1330.293706
998.368797	1342.833566
1000.531481	1343.541958
1002.693640	1354.603497
1004.853341	1367.092308
1007.012519	1397.768531
1009.173103	1395.182517
1011.331232	1385.563636
1013.488837	1390.483217
1015.645919	1423.229371
1017.802478	1409.065734
1019.954657	1438.468531
1022.108243	1462.846154
1024.261306	1478.662937
1026.411922	1508.737063
1028.563943	1549.539860
1030.711591	1584.137762
1032.862571	1614.772727
1035.009181	1610.919580
1037.155271	1607.928671
1039.300843	1613.287413
1041.447819	1624.338462
1043.588508	1592.649650
1045.732525	1579.979021
1047.874103	1542.520979
1050.015163	1516.197203
1052.157628	1487.524476
1054.293814	1479.757343
1056.433326	1451.889510
1058.568482	1433.953147
1060.706963	1434.174825
1062.841091	1419.458741
1064.974705	1434.795804
1067.109723	1456.555245
1069.240392	1495.088112
1071.372467	1532.614685
1073.502111	1550.674126
1075.631244	1547.649650
1077.759866	1549.065035
1079.887976	1557.587413
1082.013660	1537.627273
1084.138834	1530.040559
1086.265411	1523.309091
1088.387652	1501.107692
1090.511297	1509.105594
1092.630607	1479.110490
1094.755146	1480.192308
1096.873441	1467.588811
1098.993139	1435.198601
1101.110419	1377.060839
1103.227193	1339.769231
1105.343460	1348.261538
1107.457312	1344.060839
1109.572567	1349.555944
1111.683500	1360.313986
1113.797744	1400.445455
1115.907669	1390.769231
1118.018996	1365.025175
1120.129820	1368.236364
1122.236327	1354.485315
1124.346143	1334.848951
1126.451645	1315.769930
1128.558551	1304.967832
1130.659240	1293.370629
1132.765142	1268.686713
1134.866735	1256.405594
1136.969731	1246.823077
1139.072226	1255.239860
1141.168515	1194.141958
1143.270010	1154.093706
1145.367203	1120.006993
1147.463897	1108.386713
1149.560094	1102.279720
1151.655792	1097.957343
1153.750993	1075.861538
1155.843797	1048.447552
1157.938003	1048.425874
1160.026018	1057.027273
1162.119231	1078.582517
1164.206256	1077.682517
1166.296581	1067.286014
1168.382617	1057.757343
1170.471951	1044.600000
1172.555104	1056.009790
1174.639660	1055.162238
1176.725616	1048.214685
1178.807291	1035.360140
1180.890368	1022.802098
1182.971059	1009.639860
1185.051259	1012.892308
1187.130967	1024.941958
1189.210183	1009.977622
1191.287018	1024.069231
1193.361472	1016.768531
1195.439218	1003.900699
1197.512693	1016.745455
1199.587570	1009.500000
1201.658179	1003.358741
1203.730189	1011.639161
1205.799823	1014.338462
1207.870858	1017.462238
1209.941405	1017.450350
1212.007691	1013.004196
1214.075378	1009.330769
1216.140693	1015.654545
1218.207408	1007.830769
1220.269867	995.778322
1222.335612	991.402797
1224.397102	973.270629
1226.459992	967.834965
1228.520515	976.532867
1230.580555	978.177622
1232.640111	962.601399
1234.697303	951.264336
1236.754012	949.267832
1238.808359	951.355944
1240.865986	958.752448
1242.921251	958.358042
1244.972275	952.355245
1247.024699	956.970629
1249.076644	950.478322
1251.126230	949.019580
1253.175337	954.675524
1255.223965	957.263636
1257.272115	950.565035
1259.319787	965.035664
1261.363228	966.534266
1263.409944	969.327972
1265.454308	985.886713
1267.498194	988.684615
1269.539730	985.816084
1271.578916	985.060140
1273.621374	977.671329
1275.659611	977.917483
1277.699245	981.272727
1279.738405	991.169930
1281.773347	1002.006294
1283.809687	1009.443357
1285.843682	1002.011189
1287.879076	1014.137063
1289.910256	1027.985315
1291.942835	1008.660839
1293.974941	988.586014
1296.004707	974.498601
1298.035871	960.374825
1300.062827	954.376224
1302.091181	953.593007
1304.115331	971.430769
1306.142746	975.280420
1308.165958	973.615385
1310.190568	980.395105
1312.212843	994.138462
1314.236516	996.931469
1316.257856	975.183916
1318.278729	961.388112
1320.299134	951.339860
1322.315345	931.411189
1324.332955	934.120280
1326.348236	934.550350
1328.366776	947.774126
1330.381126	949.182517
1332.393151	938.254545
1334.408434	934.782517
1336.419531	932.472727
1338.432024	929.627972
1340.440335	916.954545
1342.451902	915.813287
1344.457430	911.508392
1346.466212	913.473427
1348.470818	927.010490
1350.478677	930.888811
1352.486073	942.430070
1354.487439	948.388112
1356.490202	942.911888
1358.492505	937.451748
1360.494347	920.627273
1362.495731	918.930769
1364.494800	911.044056
1366.493411	915.632867
1368.491564	910.916084
1370.489259	916.543357
1372.482790	913.781818
1374.477718	905.513986
1376.472189	915.600000
1378.466203	930.264336
1380.457910	941.658741
1382.449161	933.597203
1384.438107	922.851049
1386.428448	925.583916
1388.418334	915.713287
1390.405917	910.510490
1392.393046	902.453846
1394.377873	897.032168
1396.364095	882.435664
1398.348016	878.362238
1400.331485	879.173427
1402.314502	884.196503
1404.295221	886.258042
1406.277334	881.146154
1408.257150	881.791608
1410.236516	887.752448
1412.211743	896.295105
1414.190208	901.408392
1416.166380	911.654545
1418.142102	913.858042
1420.117375	922.013986
1422.090357	934.626573
1424.062892	936.236364
1426.034978	935.054545
1428.006616	936.875524
1429.974127	926.249650
1431.946711	931.488811
1433.911489	935.108392
1435.881340	942.906993
1437.847066	943.535664
1439.814186	938.058741
1441.779022	955.802098
1443.739738	966.286014
1445.705522	963.419580
1447.665351	957.925874
1449.626573	960.642657
1451.589188	968.430769
1453.547688	958.246853
1455.505746	969.641958
1457.463361	970.482517
1459.420535	971.290210
1461.375433	971.600699
1463.331723	966.216084
1465.285739	971.695105
1467.239315	954.776224
1469.190618	941.962238
1471.143313	944.604895
1473.093737	951.181119
1475.043722	942.906294
1476.993267	955.727972
1478.940544	959.656643
1480.885554	960.216084
1482.831956	965.627972
1484.777920	968.661538
1486.723446	972.099301
1488.666708	972.737063
1490.609533	972.734266
1492.550095	973.772028
1494.492048	976.204895
1496.431740	975.713986
1498.370996	975.579021
1500.309818	984.549650
1502.246380	973.086014
1504.184332	970.245455
1506.120027	973.363636
1508.055288	974.539161
1509.988292	968.731469
1511.920864	957.694406
1513.853004	962.190210
1515.784712	961.506993
1517.714167	960.920979
1519.645011	968.488112
1521.575425	970.270629
1523.501766	967.322378
1525.429497	971.253147
1527.354978	990.196503
1529.280030	986.977622
1531.204653	987.783217
1533.128847	989.630070
1535.050794	998.795804
1536.974130	1016.468531
1538.895221	1005.646853
1540.814067	1008.413287
1542.734303	1023.460839
1544.652295	1032.985315
1546.569861	1039.831469
1548.485185	1057.697203
1550.401899	1070.255944
1552.314558	1062.728671
1554.230421	1067.371329
1556.144045	1080.081119
1558.055430	1074.151748
1559.968204	1066.227273
1561.876929	1054.502098
1563.787044	1037.680420
1565.696735	1036.212587
1567.606002	1035.206294
1569.513036	1027.313287
1571.417837	1037.268531
1573.324027	1045.321678
1575.227985	1049.813287
1577.131523	1046.390210
1579.034639	1050.720979
1580.935527	1052.167832
1582.837803	1069.076923
1584.737850	1076.690210
1586.639286	1061.309790
1588.536687	1057.834965
1590.433671	1072.905594
1592.330236	1057.849650
1594.228188	1064.941259
1596.120306	1074.549650
1598.015618	1080.683217
1599.910511	1091.493007
1601.803183	1099.073427
1603.695439	1113.892308
1605.585475	1134.790909
1607.475095	1131.532168
1609.364300	1124.972028
1611.253089	1131.614685
1613.139662	1123.700000
1615.027621	1093.185315
1616.911565	1081.797203
1618.796895	1085.709091
1620.681812	1104.158042
1622.564515	1120.097203
1624.448604	1121.327972
1626.328683	1137.892308
1628.210148	1158.388811
1630.089403	1182.310490
1631.970044	1206.203497
1633.844881	1237.995804
1635.724700	1244.908392
1637.600513	1257.097203
1639.475917	1241.148951
1641.352706	1232.140559
1643.223698	1214.619580
1645.097872	1206.445455
1646.968048	1171.420280
1648.841404	1167.976224
1650.712557	1158.014685
1652.581508	1146.633566
1654.451845	1151.309790
1656.318188	1161.045455
1658.185918	1163.018182
1660.051448	1152.301399
1661.918363	1152.544056
1663.781290	1173.227273
1665.645602	1175.008392
1667.507719	1206.462937
1669.369430	1214.935664
1671.232526	1254.919580
1673.093428	1271.699301
1674.952136	1293.811189
1676.810441	1318.948252
1678.670131	1305.630769
1680.524054	1299.963636
1682.381149	1275.913287
1684.237842	1269.398601
1686.090559	1243.193007
1687.946447	1214.962937
1689.798361	1201.401399
1691.649873	1202.821678
1693.500986	1194.715385
1695.351697	1191.713287
1697.202008	1203.538462
1699.050135	1213.248252
1700.899645	1213.208392
1702.743407	1246.938462
1704.592119	1265.298601
1706.435084	1253.458741
1708.281215	1264.786014
1710.123385	1254.841958
1711.968719	1260.602098
1713.808313	1284.733566
1715.649291	1262.048951
1717.491652	1282.751049
1719.330057	1290.423776
1721.169845	1325.851049
1723.007458	1334.602797
1724.844675	1355.095804
1726.679719	1346.306294
1728.516146	1309.713287
1730.350401	1306.966434
1732.184262	1235.899301
1734.017728	1223.864336
1735.847248	1212.269231
1737.679927	1207.743357
1739.508662	1229.309790
1741.340555	1249.248951
1743.168505	1304.098601
1744.996063	1322.735664
1746.823230	1332.972727
1748.650004	1365.404196
1750.476388	1364.646154
1752.298835	1333.792308
1754.124436	1301.125874
1755.946103	1307.404196
1757.769152	1310.762238
1759.590040	1311.639860
1761.410538	1307.875524
1763.232418	1323.611189
1765.048598	1325.202797
1766.867930	1290.066434
1768.683335	1263.874825
1770.501891	1259.442657
1772.316521	1209.214685
1774.130764	1163.881119
1775.944621	1165.288112
1777.758091	1171.946154
1779.569407	1205.208392
1781.382105	1224.693007
1783.194416	1271.541958
1785.002810	1299.948951
1786.812585	1316.039161
1788.618444	1316.168531
1790.427450	1305.609091
1792.232542	1295.917483
1794.039014	1283.967133
1795.845103	1261.537063
1797.647282	1269.397203
1799.452604	1253.086014
1801.254018	1247.396503
1803.056812	1249.864336
1804.855701	1232.960839
1806.655969	1192.901399
1808.455857	1215.616783
1810.253602	1208.516783
1812.050967	1211.088811
1813.847951	1241.479021
1815.644555	1264.338462
1817.439020	1269.746853
1819.234865	1291.190909
1821.025054	1293.961538
1822.820140	1289.385315
1824.609573	1298.147552
1826.402144	1237.076923
1828.192579	1209.317483
1829.980879	1235.102797
1831.772315	1208.212587
1833.558105	1234.631469
1835.345275	1262.024476
1837.130313	1257.677622
1838.918485	1253.619580
1840.702771	1279.798601
1842.484928	1302.937063
1844.268463	1295.962238
1846.049871	1295.092308
1847.832656	1245.669231
1849.611562	1231.448252
1851.391846	1196.796503
1853.170005	1167.596503
1854.949541	1173.984615
1856.726953	1169.344755
1858.502241	1168.631469
1860.278908	1165.371329
1862.053452	1167.332867
1863.829373	1175.629371
1865.599675	1172.570629
1867.373104	1165.295804
1869.144413	1145.590909
1870.915351	1139.690909
1872.687666	1136.956643
1874.454369	1155.253147
1876.224196	1139.579021
1877.990160	1145.049650
1879.759248	1168.281119
1881.524474	1161.561538
1883.289332	1163.567133
1885.055566	1177.097902
1886.817942	1176.827972
1888.579951	1160.456643
1890.341593	1149.779021
1892.102867	1138.927273
1893.863775	1155.332867
1895.624315	1138.720280
1897.382746	1119.179720
1899.140812	1130.451049
1900.896770	1136.239161
1902.654104	1123.976923
1904.411072	1124.359441
1906.165935	1117.448252
1907.918692	1103.618182
1909.671086	1086.141259
1911.424856	1074.528671
1913.176522	1062.287413
1914.926085	1076.209091
1916.677025	1065.527972
1918.427601	1075.035664
1920.174339	1069.698601
1921.922452	1064.653846
1923.668466	1054.679720
1925.415856	1062.026573
1927.161147	1058.260140
1928.904341	1054.744755
1930.648911	1065.861538
1932.391384	1068.752448
1934.133497	1076.700699
1935.875251	1085.191608
1937.616644	1081.084615
1939.355944	1088.691608
1941.094885	1083.692308
1942.833467	1083.949650
1944.569957	1083.362937
1946.306090	1098.027972
1948.043597	1090.387413
1949.777283	1087.846154
1951.512343	1103.964336
1953.245314	1113.696503
1954.977929	1123.272028
1956.710187	1130.028671
1958.442089	1129.009790
1960.171905	1120.616084
1961.899637	1099.481818
1963.628742	1091.618182
1965.357493	1075.088811
1967.084160	1069.758042
1968.810473	1054.188811
1970.538159	1061.006294
1972.260309	1069.764336
1973.985561	1076.999301
1975.707005	1094.028671
1977.431549	1115.618182
1979.154014	1113.983217
1980.872675	1108.297902
1982.594435	1111.102098
1984.312393	1119.441259
1986.031725	1107.669930
1987.747256	1112.500699
1989.467609	1123.347552
1991.184162	1128.197902
1992.896920	1114.751748
1994.612773	1103.341958
1996.326554	1095.986014
1998.039984	1092.804895
1999.751344	1084.360839
2001.464077	1082.883217
2003.173018	1089.770629
2004.885053	1091.222378
2006.591578	1099.083916
2008.301196	1114.523776
2010.008746	1115.609091
2011.715949	1109.772028
2013.421086	1101.288112
2015.125876	1091.646154
2016.832038	1101.451049
2018.534418	1100.864336
2020.238170	1095.811189
2021.939859	1090.889510
2023.641202	1100.798601
2025.342200	1103.950350
2027.041138	1108.532867
2028.741447	1107.504895
2030.437980	1106.073427
2032.135885	1106.748951
2033.831732	1108.968531
2035.530664	1109.458042
2037.224110	1107.327972
2038.918927	1098.749650
2040.613401	1082.286014
2042.304107	1082.536364
2043.997897	1067.572727
2045.687920	1068.657343
2047.379314	1066.732168
2049.068655	1078.764336
2050.759366	1082.576923
2052.446315	1088.840559
2054.132923	1091.498601
2055.820902	1079.639860
2057.505121	1062.676923
2059.190710	1073.008392
2060.875960	1065.358042
2062.559162	1076.022378
2064.243734	1071.868531
2065.922842	1083.652448
2067.606736	1085.184615
2069.285170	1101.683916
2070.966681	1093.856643
2072.644440	1101.294406
2074.321863	1097.848951
2076.000655	1086.552448
2077.677404	1080.379021
2079.352112	1097.581119
2081.028189	1102.376923
2082.702226	1118.497902
2084.375927	1122.030769
2086.049293	1119.484615
2087.720621	1120.866434
2089.391614	1120.993007
2091.062273	1101.139860
2092.732598	1092.186713
2094.402588	1089.868531
2096.070543	1086.727273
2097.738165	1079.435664
2099.403753	1089.888811
2101.070709	1093.072727
2102.735632	1097.229371
2104.400222	1101.850350
2106.062781	1112.469231
2107.726709	1110.250350
2109.388605	1107.525874
2111.050170	1106.062937
2112.711405	1102.379021
2114.370610	1112.902797
2116.029486	1124.823776
2117.688031	1118.701399
2119.346247	1126.086014
2121.000739	1127.965734
2122.658297	1132.627273
2124.315524	1132.147552
2125.969031	1144.983916
2127.623905	1132.060839
2129.275060	1130.293007
2130.929278	1121.904895
2132.579778	1114.146154
2134.231646	1134.569231
2135.878105	1142.668531
2137.529318	1130.016783
2139.176818	1150.067133
2140.825686	1156.360140
2142.472534	1172.323077
2144.119056	1174.095105
2145.765254	1197.035664
2147.407742	1177.284615
2149.053289	1178.609091
2150.695129	1166.501399
2152.340026	1152.905594
2153.981218	1149.659441
2155.622086	1132.260839
2157.262631	1121.385315
2158.901163	1129.416084
2160.541061	1115.426573
2162.177259	1122.851049
2163.814823	1110.853147
2165.452065	1099.941958
2167.087297	1077.493007
2168.722207	1088.353147
2170.356796	1088.874825
2171.991064	1081.811888
2173.621638	1086.585315
2175.255263	1103.014685
2176.885197	1121.210490
2178.516496	1136.873427
2180.145791	1158.344056
2181.774765	1175.898601
2183.403421	1184.228671
2185.031757	1183.201399
2186.658090	1186.043357
2188.284105	1189.943357
2189.908119	1179.446154
2191.533498	1169.982517
2193.156876	1158.609790
2194.781619	1158.606294
2196.402680	1135.115385
2198.023426	1139.606294
2199.645535	1141.618881
2201.265647	1130.976224
2202.883763	1149.862937
2204.501563	1154.436364
2206.119047	1157.902098
2207.736216	1165.056643
2209.353070	1166.193007
2210.969609	1176.293007
2212.584154	1188.843357
2214.196707	1196.886014
2215.810625	1179.202098
2217.422550	1182.751748
2219.035840	1174.328671
2220.647138	1162.750350
2222.256448	1177.750350
2223.867120	1177.900000
2225.475804	1177.394406
2227.084176	1184.248951
2228.690560	1171.635664
2230.298308	1171.068531
2231.904069	1165.984615
2233.509519	1169.022378
2235.112985	1159.745455
2236.717813	1161.981818
2238.320657	1167.982517
2239.921518	1168.520280
2241.523742	1168.916084
2243.123983	1179.398601
2244.725588	1188.344056
2246.323539	1200.907692
2247.922853	1194.004895
2249.520187	1204.290909
2251.117213	1210.006993
2252.715600	1225.594406
2254.310339	1233.041259
2255.903102	1236.155944
2257.497226	1229.448951
2259.092712	1209.699301
2260.684554	1211.673427
2262.276089	1231.549650
2263.868985	1234.973427
2265.456572	1237.395105
2267.048856	1237.862937
2268.635832	1248.682517
2270.225837	1238.406993
2271.810537	1234.726573
2273.399931	1237.302797
2274.984022	1233.548951
2276.569475	1228.748252
2278.152959	1232.485315
2279.739468	1251.630769
2281.322344	1257.188112
2282.904916	1245.063986
2284.487186	1231.046853
2286.065825	1224.186364
2287.647488	1198.625175
2289.225524	1169.381469
2290.806582	1179.650350
2292.384013	1190.523427
2293.959481	1194.658741
2295.537971	1228.551399
2297.112836	1241.442657
2298.687401	1235.736014
2300.261666	1233.684615
2301.835630	1230.038112
2303.409294	1229.856643
2304.982657	1235.911189
2306.552402	1240.107692
2308.121848	1254.996503
2309.694313	1289.334266
2311.261503	1280.379720
2312.831710	1288.209790
2314.398303	1299.505594
2315.966256	1279.011189
2317.532254	1257.141958
2319.097954	1251.282517
2320.663356	1268.651049
2322.226805	1303.660140
2323.791613	1333.489510
2325.352812	1362.792308
2326.917026	1372.309091
2328.475979	1357.041958
2330.037945	1331.910490
2331.597961	1321.984615
2333.157681	1299.738462
2334.715452	1285.780420
2336.272929	1262.214685
2337.830110	1253.183217
2339.385345	1245.165035
2340.940285	1284.350350
2342.494932	1295.546853
2344.049285	1298.931469
2345.603344	1296.295804
2347.157110	1297.071329
2348.708931	1326.224476
2350.258809	1317.517483
2351.811695	1327.325175
2353.359339	1332.197203
2354.909990	1330.638462
2356.457051	1347.439161
2358.005469	1349.081119
2359.553595	1361.953147
2361.098134	1361.229371
2362.644030	1361.108392
2364.187987	1344.778322
2365.733302	1357.493007
2367.275032	1340.344056
2368.818120	1329.293007
2370.359271	1349.369930
2371.900133	1345.007692
2373.440706	1344.955245
2374.980990	1363.337762
2376.520985	1338.780420
2378.057401	1305.993706
2379.596819	1314.180420
2381.132660	1294.961538
2382.669857	1257.816084
2384.203480	1256.791608
2385.740102	1221.634266
2387.274793	1245.601399
2388.807555	1253.513986
2390.340031	1265.300699
2391.870578	1283.632168
2393.404123	1305.918182
2394.932457	1319.506294
2396.462147	1344.409790
2397.991552	1368.342657
2399.520672	1361.916084
2401.049506	1347.165734
2402.573136	1371.620280
2404.101401	1365.395804
2405.624463	1370.917483
2407.152160	1369.768531
2408.673016	1417.094406
2410.198506	1422.872028
2411.720436	1440.184615
2413.243720	1454.382517
2414.765084	1447.071329
2416.284528	1426.365035
2417.805327	1390.795105
2419.324207	1361.655944
2420.842805	1373.583217
2422.359486	1372.395105
2423.877522	1348.325874
2425.395276	1357.439161
2426.909478	1395.220280
2428.423400	1392.798601
2429.937043	1400.113986
2431.452039	1386.937762
2432.963487	1380.181119
2434.476290	1353.098601
2435.987180	1335.167832
2437.497790	1310.586014
2439.006489	1328.142657
2440.518175	1337.808392
2442.026317	1324.937063
2443.534180	1362.999301
2445.041766	1375.797203
2446.545812	1358.058741
2448.052842	1365.773427
2449.557964	1362.735664
2451.062809	1373.393706
2452.565747	1350.689510
2454.068408	1362.245455
2455.570793	1332.455944
2457.071273	1313.350350
2458.573106	1311.493706
2460.073035	1306.230070
2461.572688	1303.401399
2463.072066	1296.689510
2464.569541	1289.871329
2466.065114	1309.959441
2467.563667	1324.393007
2469.058691	1349.096503
2470.555069	1346.567133
2472.047920	1356.711888
2473.542123	1346.288112
2475.036053	1336.246853
2476.526460	1335.298601
2478.019844	1330.070629
2479.511329	1307.920280
2481.000918	1307.780420
2482.490236	1283.549650
2483.977657	1286.707692
2485.468054	1316.601399
2486.954932	1334.731469
2488.443162	1362.206294
2489.927876	1389.812587
2491.412319	1421.649650
2492.898114	1446.188811
2494.382016	1440.376923
2495.867270	1471.046853
2497.347390	1439.439860
2498.830482	1402.860839
2500.311684	1361.581818
2501.792617	1350.913986
2503.271661	1334.972727
2504.750437	1321.886014
2506.228944	1321.306294
2507.707182	1304.382517
2509.185152	1315.174126
2510.659618	1329.672727
2512.137052	1321.340559
2513.610983	1333.633566
2515.086265	1311.719580
2516.561279	1299.988112
2518.032792	1306.786014
2519.505656	1323.427273
2520.976637	1334.951748
2522.448967	1332.581119
2523.916185	1322.658042
2525.386369	1321.566434
2526.854671	1314.631469
2528.322709	1302.596503
2529.790482	1292.519580
2531.257990	1291.893007
2532.725233	1300.607692
2534.188985	1321.715385
2535.654086	1325.188811
2537.117310	1317.597203
2538.581883	1321.014685
2540.042967	1284.079021
2541.505402	1270.451748
2542.967573	1270.192308
2544.426257	1260.155245
2545.889514	1265.904895
2547.347674	1289.137762
2548.807183	1315.595105
2550.261599	1365.423776
2551.720585	1384.873427
2553.177698	1391.139860
2554.632941	1381.320280
2556.087923	1366.794406
2557.541035	1337.881119
2558.995496	1328.834965
2560.448088	1301.441259
2561.900420	1284.610490
2563.350884	1288.940559
2564.804304	1303.902098
2566.252642	1296.565734
2567.703936	1315.604895
2569.153363	1327.523077
2570.599319	1350.135664
2572.048229	1347.325874
2573.493668	1357.485315
2574.940456	1353.753147
2576.385380	1356.309790
2577.830047	1330.467832
2579.276061	1337.920280
2580.718608	1337.960839
2582.162503	1339.805594
2583.602933	1316.760140
2585.044711	1338.172727
2586.484629	1344.727972
2587.925894	1353.957343
2589.363697	1351.346154
2590.804450	1358.703497
2592.240140	1364.420979
2593.678780	1367.934965
2595.115563	1361.398601
2596.550489	1351.604895
2597.988364	1348.186713
2599.421181	1338.247552
2600.855345	1321.743357
2602.287654	1327.995105
2603.721310	1306.899301
2605.153113	1301.851748
2606.584663	1271.186014
2608.015959	1277.575524
2609.445404	1297.613986
2610.874596	1288.211888
2612.301937	1291.068531
2613.730625	1302.483217
2615.159060	1320.358042
2616.584049	1325.695804
2618.010383	1338.942657
2619.434869	1361.860140
2620.860701	1370.039860
2622.283089	1364.073427
2623.706823	1335.742657
2625.128711	1342.827972
2626.550348	1363.534965
2627.970140	1353.189510
2629.391278	1364.806294
2630.812166	1372.991608
2632.229616	1375.284615
2633.650005	1388.521678
2635.066957	1392.981119
2636.483661	1403.171329
2637.900116	1395.402797
2639.316323	1349.041259
2640.732281	1321.234266
2642.146399	1327.672028
2643.560270	1337.181818
2644.972301	1310.248252
2646.385677	1323.788811
2647.795623	1317.532168
2649.208505	1339.201399
2650.617958	1354.320280
2652.027165	1377.610490
2653.434536	1368.900000
2654.844841	1367.231469
2656.253310	1353.971329
2657.659944	1357.244056
2659.066333	1352.775524
2660.470888	1339.931469
2661.876787	1301.627273
2663.280853	1309.862238
2664.684675	1326.725175
2666.088252	1355.713287
2667.489997	1384.801399
2668.893086	1407.557343
2670.292758	1410.448951
2671.693773	1437.432867
2673.091371	1440.042657
2674.491900	1440.538462
2675.889014	1421.430769
2677.287471	1404.415385
2678.684100	1360.337762
2680.080488	1338.461538
2681.476633	1321.806993
2682.870952	1303.764336
2684.266614	1312.120979
2685.658866	1315.993007
2687.052462	1345.085315
2688.444233	1382.404895
2689.837346	1390.321678
2691.228636	1406.963636
2692.618103	1408.833566
2694.007331	1431.602098
2695.396318	1401.730769
2696.786648	1373.549650
2698.171993	1345.533566
2699.560263	1330.451049
2700.946712	1322.163636
2702.332922	1317.686713
2703.718893	1320.800000
2705.101466	1344.232867
2706.485380	1329.877622
2707.869057	1328.520280
2709.252496	1335.034266
2710.632539	1354.642657
2712.013924	1333.365035
2713.393493	1356.378322
2714.774404	1376.611888
2716.153500	1395.293007
2717.530781	1409.111189
2718.909404	1417.578322
2720.286214	1432.690909
2721.662788	1444.417483
2723.039126	1429.926573
2724.413652	1408.727273
2725.789519	1407.690210
2727.161999	1414.403497
2728.537396	1398.591608
2729.907831	1414.032867
2731.279608	1424.379021
2732.651151	1420.102098
2734.020885	1408.954545
2735.391959	1412.763636
2736.761226	1429.055245
2738.130259	1413.087413
2739.497485	1406.005594
2740.864479	1386.175524
2742.231240	1395.883916
2743.597768	1389.472028
2744.962492	1373.903497
2746.326983	1369.219580
2747.691242	1369.193007
2749.055270	1352.555944
2750.419065	1336.946154
2751.779487	1361.715385
2753.142820	1365.139860
2754.501210	1363.141958
2755.862510	1366.065734
2757.220439	1360.631469
2758.581278	1357.317483
2759.940316	1367.638462
2761.295986	1373.621678
2762.654565	1365.737762
2764.009776	1380.146853
2765.364758	1385.839860
2766.717943	1390.848252
2768.074035	1403.037063
2769.426763	1411.068531
2770.779262	1411.887413
2772.131533	1410.217483
2773.485143	1391.444755
2774.835391	1396.126573
2776.183846	1419.127972
2777.535205	1409.358741
2778.883205	1401.436364
2780.232544	1435.887413
2781.580090	1449.889510
2782.927409	1476.904196
2784.274502	1488.957343
2785.619804	1480.775524
2786.964880	1484.848951
2788.309730	1471.147552
2789.654354	1439.925874
2790.995625	1432.043357
2792.338235	1418.236364
2793.680620	1380.130769
2795.022779	1356.006294
2796.361589	1391.469930
2797.703299	1414.711888
2799.041660	1440.540559
2800.381359	1458.523776
2801.719272	1470.123077
2803.055401	1509.778322
2804.391307	1493.812587
2805.728549	1482.508392
2807.064008	1470.102797
2808.399244	1474.278322
2809.732698	1441.924476
2811.067488	1421.721678
2812.398937	1398.823077
2813.733282	1392.776923
2815.062729	1405.098601
2816.393513	1428.952448
2817.724075	1442.956643
2819.052858	1460.373427
2820.382978	1460.731469
2821.711318	1485.769231
2823.039438	1501.558741
2824.365781	1506.840559
2825.693459	1478.471329
2827.017805	1433.331469
2828.343486	1369.349650
2829.667393	1354.379021
2830.991079	1354.920280
2832.316101	1342.084615
2833.637794	1336.255245
2834.959267	1348.827972
2836.280522	1366.597203
2837.601558	1398.569930
2838.920822	1401.961538
2840.241421	1400.641958
2841.560248	1419.687413
2842.878857	1417.966434
2844.195696	1420.697203
2845.512317	1430.050350
2846.828720	1459.379720
2848.143355	1477.369231
2849.459324	1467.672727
2850.771973	1463.445455
2852.085958	1451.018881
2853.399726	1428.327972
2854.713277	1415.243357
2856.025061	1405.931469
2857.335080	1395.383217
2858.646433	1397.620280
2859.954470	1439.332867
2861.263843	1449.749650
2862.573000	1473.374126
2863.881942	1489.817483
2865.189121	1474.810490
2866.494536	1482.256643
2867.801286	1469.902797
2869.106273	1473.723776
2870.411047	1476.085315
2871.714059	1462.106294
2873.019953	1459.597902
2874.320992	1484.511888
2875.623364	1503.360140
2876.923977	1499.713287
2878.225924	1498.265734
2879.527658	1501.958741
2880.826088	1493.025874
2882.125851	1483.731469
2883.423857	1462.846853
2884.721651	1470.316084
2886.017688	1468.315385
2887.315059	1455.095105
2888.610674	1435.000000
2889.906079	1439.754545
2891.201272	1441.822378
2892.493167	1447.770629
2893.787939	1441.876224
2895.079415	1461.154545
2896.372223	1466.422378
2897.664821	1482.369930
2898.954124	1475.423077
2900.244760	1492.872727
2901.533646	1481.183217
2902.823863	1453.704196
2904.110789	1436.379720
2905.399047	1451.145455
2906.685556	1434.514685
2907.971856	1436.883217
2909.257948	1415.976923
2910.542292	1444.560140
2911.829508	1458.233566
2913.111897	1492.913287
2914.395618	1493.035664
2915.677592	1510.545455
2916.959360	1524.580420
2918.239382	1530.311189
2919.522274	1538.806993
2920.803421	1532.035664
2922.081286	1503.826573
2923.362020	1497.885315
2924.639473	1451.813986
2925.916721	1451.069231
2927.192226	1428.465734
2928.470599	1454.505594
2929.744157	1459.515385
2931.020583	1470.848252
2932.295268	1512.527972
2933.568213	1516.845455
2934.842488	1535.851049
2936.115024	1527.455245
2937.387356	1532.572727
2938.656415	1535.276923
2939.928339	1526.288811
2941.198525	1505.218182
2942.468507	1501.162238
2943.738286	1529.336364
2945.006328	1523.102098
2946.272635	1529.027273
2947.538739	1540.752448
2948.806174	1541.801399
2950.071873	1559.804895
2951.337370	1554.014685
2952.602665	1562.606294
2953.864696	1561.311888
2955.128056	1559.391608
2956.391215	1560.380420
2957.652641	1576.048951
2958.915397	1590.506294
2960.176422	1592.341259
2961.435716	1583.253846
2962.694809	1562.299301
2963.953702	1573.004895
2965.212395	1557.170629
2966.470888	1551.233566
2967.727652	1536.580420
2968.984217	1526.525874
2970.239053	1529.523077
2971.495219	1541.206294
2972.748129	1548.446154
2974.002369	1568.725874
2975.256410	1567.109790
2976.508725	1558.060839
2977.760842	1550.674126
2979.011234	1576.851748
2980.264481	1567.711189
2981.512951	1582.986014
2982.764275	1560.674825
2984.012351	1560.058741
2985.260229	1563.760839
2986.507910	1552.876224
2987.755395	1549.651748
2989.001158	1541.861538
2990.246724	1528.125874
2991.493619	1535.488112
2992.737268	1541.386713
2993.982246	1575.334965
2995.223981	1582.308392
2996.468567	1592.839860
2997.711434	1594.325874
2998.951059	1617.258741
3000.193536	1632.586014
3001.432772	1631.585315
3002.673336	1621.320280
3003.912183	1599.184615
3005.150836	1596.559441
3006.387773	1596.130070
3007.626037	1574.744056
3008.862587	1566.737762
3010.098943	1551.378322
3011.335105	1538.556643
3012.569553	1531.180420
3013.803808	1536.623077
3015.037870	1542.114685
3016.270220	1555.013287
3017.500858	1567.451049
3018.734342	1597.473427
3019.966115	1635.676224
3021.196176	1656.678322
3022.426046	1670.541958
3023.654206	1699.283217
3024.883693	1714.418881
3026.111470	1722.790210
3027.339056	1701.824476
3028.567968	1698.204196
3029.792138	1688.005594
3031.019151	1687.183916
3032.242941	1667.964336
3033.468056	1656.420280
3034.691465	1638.755245
3035.914685	1624.341259
3037.136199	1613.480420
3038.360554	1618.953147
3039.580174	1625.034266
3040.801120	1623.223077
3042.021876	1615.809790
3043.240929	1615.379021
3044.461308	1618.006993
3045.678470	1613.525874
3046.896957	1615.004196
3048.113743	1602.303497
3049.330340	1601.794406
3050.546750	1591.725175
3051.759946	1580.962937
3052.975980	1598.479720
3054.188802	1598.387413
3055.404461	1598.206993
3056.615397	1598.871329
3057.827659	1590.311189
3059.039733	1598.772727
3060.251621	1600.429371
3061.461811	1612.981119
3062.671816	1597.636713
3063.881634	1592.211189
3065.089756	1569.180769
3066.297692	1565.764336
3067.503934	1563.943706
3068.711500	1566.712587
3069.917371	1554.519231
3071.123057	1547.613287
3072.328559	1552.910140
3073.532367	1543.822378
3074.737499	1558.326923
3075.940938	1559.917483
3077.142685	1542.296853
3078.344249	1536.849650
3079.545629	1528.469231
3080.746825	1540.070629
3081.946331	1550.567832
3083.145653	1542.851748
3084.346299	1524.632168
3085.545256	1519.190909
3086.741017	1520.825874
3087.939608	1522.664336
3089.135005	1546.208392
3090.331726	1544.548252
3091.525254	1549.558042
3092.721610	1562.073427
3093.916279	1557.868531
3095.107758	1577.301399
3096.303568	1592.174825
3097.494685	1558.998601
3098.687125	1558.684615
3099.876376	1536.008392
3101.068454	1523.369930
3102.258848	1520.011888
3103.446055	1525.202098
3104.634586	1548.655944
3105.824439	1574.194406
3107.011107	1562.223077
3108.197596	1561.416783
3109.383905	1584.764336
3110.571537	1617.165035
3111.755986	1604.095804
3112.938755	1626.295105
3114.124348	1616.306294
3115.308260	1606.053147
3116.490494	1607.421678
3117.672550	1629.371329
3118.854427	1668.316783
3120.036126	1669.886014
3121.216148	1656.360140
3122.394492	1662.379021
3123.575658	1674.674126
3124.753648	1667.830070
3125.931461	1652.965035
3127.109097	1657.413986
3128.285058	1634.920280
3129.460843	1626.455944
3130.637948	1622.390909
3131.813380	1632.107692
3132.987138	1636.714685
3134.159223	1623.281818
3135.332629	1627.079021
3136.505860	1614.562238
3137.677418	1607.536364
3138.850298	1600.236364
3140.020010	1621.345455
3141.191043	1622.427972
3142.360405	1608.210490
3143.528098	1623.088112
3144.698606	1627.297203
3145.864455	1631.873427
3147.034614	1624.907692
3148.200115	1621.029371
3149.365443	1625.065035
3150.530597	1624.574126
3151.695578	1653.370629
3152.861878	1686.021678
3154.023525	1697.658042
3155.186493	1700.207692
3156.349287	1691.334965
3157.511909	1693.670629
3158.672866	1693.415385
3159.833650	1679.255245
3160.994263	1654.722378
3162.153211	1642.744755
3163.311987	1625.499301
3164.470592	1632.934266
3165.629025	1651.899301
3166.787286	1657.155245
3167.943885	1641.120979
3169.098823	1647.509790
3170.255080	1644.087413
3171.409677	1638.859441
3172.564102	1658.216783
3173.716868	1665.338462
3174.869464	1686.822378
3176.021890	1694.016783
3177.174145	1709.206993
3178.326231	1733.665035
3179.475170	1752.741259
3180.626916	1768.469930
3181.777005	1760.686713
3182.925436	1757.761538
3184.073699	1745.624476
3185.221793	1719.400699
3186.369717	1711.848951
3187.515987	1703.840559
3188.662088	1699.641259
3189.806535	1694.625175
3190.950813	1699.244056
3192.094924	1692.168531
3193.240353	1710.340559
3194.382643	1738.285315
3195.524765	1752.624476
3196.666721	1775.581119
3197.808509	1786.280420
3198.950130	1786.001399
3200.088615	1780.852448
3201.228419	1786.567133
3202.369539	1782.604196
3203.507525	1790.566434
3204.643862	1769.616783
3205.780033	1746.290210
3206.917522	1772.758741
3208.053362	1781.601399
3209.190518	1783.632867
3210.323063	1799.758042
3211.459888	1790.174126
3212.592102	1780.960839
3213.725634	1775.387413
3214.859000	1773.502797
3215.989239	1754.037063
3217.122277	1753.916783
3218.252187	1731.497203
3219.383415	1719.546853
3220.511517	1747.671329
3221.642417	1726.540559
3222.771672	1712.541958
3223.899283	1700.095105
3225.023773	1693.535664
3226.152538	1694.032867
3227.278181	1699.711888
3228.403661	1707.047552
3229.527500	1710.466434
3230.654134	1733.239161
3231.776169	1745.628671
3232.899521	1772.788112
3234.022711	1794.809790
3235.145739	1801.882517
3236.267127	1807.676224
3237.388354	1814.131469
3238.507942	1803.411189
3239.627369	1800.972727
3240.745159	1804.218881
3241.865740	1795.549650
3242.983208	1793.152448
3244.100515	1794.071329
3245.217661	1791.691608
3246.333172	1795.273427
3247.449998	1796.881818
3248.563713	1805.133566
3249.680219	1800.435664
3250.795089	1796.130769
3251.906851	1769.234965
3253.018454	1781.074825
3254.131372	1784.251748
3255.244130	1778.081818
3256.353782	1792.834266
3257.464749	1799.326573
3258.575557	1808.304895
3259.684733	1815.925874
3260.792278	1836.250350
3261.901138	1861.718182
3263.009839	1879.506294
3264.115438	1882.837063
3265.222352	1870.925175
3266.327636	1875.341958
3267.434234	1884.484615
3268.537732	1895.187413
3269.642544	1896.294406
3270.747199	1901.969231
3271.848756	1892.473427
3272.950156	1884.937762
3274.052870	1895.025175
3275.155427	1915.077622
3276.254889	1910.399301
3277.357133	1907.081818
3278.456283	1885.797902
3279.553807	1903.483916
3280.651176	1930.179021
3281.751328	1935.752448
3282.848386	1923.112587
3283.945290	1923.783217
3285.042038	1898.196503
3286.134227	1885.813986
3287.230666	1886.166434
3288.325482	1876.913287
3289.420143	1863.048951
3290.513183	1855.225175
3291.606069	1835.246154
3292.697334	1854.591608
3293.789912	1878.502098
3294.880870	1879.201399
3295.970208	1886.200699
3297.059393	1892.778322
3298.149890	1891.413986
3299.237303	1907.811888
3300.324564	1923.816783
3301.413137	1926.730070
3302.501557	1923.295105
3303.585430	1918.355245
3304.673545	1895.148951
3305.758579	1894.053147
3306.841997	1906.865035
3307.926727	1899.625874
3309.009841	1914.228671
3310.094267	1919.384615
3311.175615	1926.641958
3312.258275	1935.497902
3313.339321	1943.780420
3314.420216	1940.610490
3315.499498	1926.601399
3316.578629	1924.564336
3317.659072	1897.765035
3318.736440	1896.334965
3319.815120	1900.288811
3320.892188	1886.370629
3321.969106	1881.581818
3323.044414	1875.316783
3324.119572	1870.244056
3325.196041	1875.392308
3326.269439	1884.544755
3327.342689	1888.445455
3328.417250	1903.000699
3329.490201	1928.604895
3330.561545	1937.679021
3331.634199	1947.502797
3332.703786	1967.774126
3333.774684	1961.011189
3334.843975	1950.856643
3335.914577	1955.664336
3336.983572	1959.552448
3338.050961	1960.262937
3339.116745	1965.535664
3340.186755	1965.528671
3341.253702	1986.395105
3342.317587	2012.552448
3343.384240	2021.369231
3344.449289	2023.797902
3345.512734	2047.645455
3346.576032	2032.017483
3347.639185	2024.255245
3348.702191	2014.138462
3349.765050	2008.247552
3350.826308	1994.927972
3351.884509	1990.174825
3352.946931	1986.628671
3354.006296	2002.525874
3355.065517	2019.748951
3356.126046	2024.341259
3357.182066	2012.011189
3358.240851	2019.906294
3359.295128	2006.770629
3360.352169	2013.650350
3361.407611	2013.516084
3362.464362	2029.931469
3363.519516	2041.736364
3364.573072	2048.160140
3365.625031	2041.434266
3366.679752	2047.232168
3367.731425	2060.458042
3368.782953	2062.543357
3369.835791	2055.040559
3370.885581	2071.085315
3371.936680	2070.836364
3372.984732	2068.799301
3374.035545	2060.336364
3375.083312	2057.167832
3376.130937	2076.302098
3377.178420	2063.733566
3378.224309	2045.206993
3379.271508	2056.186713
3380.315663	2061.497203
3381.362577	2051.858042
3382.407899	2058.279021
3383.450181	2052.951049
3384.492321	2040.417483
3385.535770	2036.268531
3386.579077	2040.195804
3387.620794	2037.540559
3388.662370	2054.903497
3389.703806	2051.446853
3390.743653	2061.575524
3391.781911	2088.048951
3392.821477	2093.652448
3393.860903	2106.632867
3394.898741	2116.916084
3395.934992	2120.665035
3396.971103	2132.324476
3398.008522	2147.932867
3399.042908	2142.146853
3400.078602	2126.516084
3401.114156	2121.319580
3402.146678	2129.730769
3403.181954	2137.565734
3404.214199	2149.055245
3405.246306	2147.913986
3406.276829	2157.006294
3407.308660	2153.886014
3408.340352	2165.547552
3409.369016	2153.237063
3410.397542	2144.918881
3411.427376	2149.734965
3412.457072	2152.979720
3413.483741	2161.182517
3414.511718	2180.797203
3415.536670	2188.139161
3416.564372	2196.558042
3417.589051	2198.985315
3418.615036	2211.026573
3419.639442	2222.917483
3420.663710	2223.346853
3421.686400	2208.524476
3422.708955	2219.106294
3423.732814	2237.496503
3424.753654	2242.238462
3425.774359	2248.328072
3426.796369	2250.715609
3427.815361	2247.925375
3428.834218	2238.481668
3429.854381	2220.908791
3430.871526	2193.731044
