-118.385087	67.390934
-115.715486	57.902198
-113.048821	51.681169
-110.382909	48.147253
-107.719928	46.719855
-105.055517	46.818382
-102.394037	47.862238
-99.731128	48.554545
-97.073326	47.772727
-94.414093	47.830070
-91.755609	49.450350
-89.100050	49.430070
-86.443062	46.172028
-83.791171	49.812587
-81.137851	52.490210
-78.487451	56.269930
-75.835621	58.297902
-73.188882	64.332168
-70.540713	62.336364
-67.893288	65.205594
-65.248776	66.487413
-62.602835	69.010490
-59.961977	71.027972
-57.319688	71.255245
-54.680309	72.069930
-52.039501	76.033566
-49.399432	77.894406
-46.764437	85.655944
-44.128012	90.669930
-41.494491	97.218182
-38.859540	106.146154
-36.229656	119.279720
-33.596178	134.334965
-30.967763	142.232168
-28.340082	149.775524
-25.710973	107.215385
-23.086920	-157.841958
-20.459278	-1215.443357
-17.836689	-3366.720280
-15.214831	-2271.255245
-12.593704	2548.018182
-9.973308	14228.280420
-7.355799	24657.828671
-4.736862	32037.526573
-2.120811	36290.997902
0.494512	37396.807692
3.109108	35364.850350
5.720822	30229.390909
8.333963	22148.102797
10.942071	11797.474825
13.553761	1551.884615
16.160420	-3740.144056
18.768507	-4553.683916
21.375870	-623.682517
23.978208	165.011888
26.584124	173.171329
29.185019	162.178322
31.787341	147.017483
34.384645	126.485315
36.985525	109.842657
39.581391	91.671329
42.178684	89.699301
44.775258	80.258042
47.366823	77.593007
49.959816	71.661538
52.549948	67.298601
55.141508	65.135664
57.730208	67.616783
60.320336	68.441259
62.905464	68.606993
65.492020	66.613986
68.077861	66.460839
70.660849	65.595804
73.245264	69.312587
75.822549	67.596503
78.403401	71.267133
80.981404	68.093706
83.558697	68.984615
86.137416	67.111189
88.711154	70.177622
91.286318	68.038462
93.858639	70.261538
96.430253	69.867832
98.999026	69.805594
101.569226	67.497902
104.136587	69.818182
106.705375	69.267133
109.271325	71.296503
111.834441	74.703497
114.401114	80.693706
116.958564	86.468531
119.521700	97.881119
122.079877	118.518881
124.641607	167.239161
127.198382	239.626573
129.756582	352.597902
132.309830	497.682517
134.862379	684.493706
137.418480	883.030070
139.969632	1094.823077
142.520086	1305.851049
145.069844	1504.938462
147.616782	1672.484615
150.163024	1800.848252
152.710693	1880.673427
155.257665	1924.637063
157.799701	1931.704895
160.341044	1928.477622
162.881695	1905.565035
165.423770	1884.310490
167.963035	1849.826573
170.499490	1827.510490
173.035255	1812.899301
175.572445	1813.886713
178.108943	1820.381818
180.642636	1836.869930
183.173526	1857.264336
185.703727	1882.279021
188.235353	1903.016783
190.764179	1939.292308
193.290205	1965.931469
195.815545	1998.876224
198.342310	2020.355944
200.866279	2038.108392
203.389562	2041.704895
205.912161	2044.565035
208.431967	2044.923776
210.951090	2053.932867
213.469530	2054.417483
215.989394	2054.737063
218.502257	2043.790909
221.018651	2040.250350
223.534364	2025.990909
226.045186	2010.776224
228.557433	1994.387413
231.066897	1981.819580
233.575683	1960.945455
236.083791	1954.131469
238.593323	1952.212587
241.097974	1959.095804
243.601949	1954.004196
246.107348	1959.744056
248.607872	1974.939161
251.111919	2120.445455
253.608996	2495.796503
256.109595	3082.606294
258.607423	3708.866434
261.104578	4222.841259
263.601060	4553.801399
266.092680	4684.563636
268.587818	4598.990909
271.080191	4302.028671
273.571893	3837.561538
276.060832	3281.771329
278.551194	2741.939161
281.038795	2380.757343
283.523636	2238.239161
286.011991	2230.488811
288.493408	2211.667133
290.978338	2149.247552
293.458422	2057.125874
295.942019	1958.218881
298.420774	1851.832168
300.900951	1756.622378
303.378377	1695.110490
305.855139	1677.548951
308.331237	1716.519580
310.804587	1802.230769
313.277276	1891.166434
315.749303	1978.916084
318.220668	2049.968531
320.689290	2098.997902
323.157252	2117.997203
325.626637	2115.176923
328.091199	2076.711189
330.559264	2021.020979
333.022510	1949.497902
335.485099	1890.783217
337.947030	1854.442657
340.408305	1843.760839
342.866846	1831.165734
345.326809	1828.404196
347.784040	1818.686014
350.240616	1815.530769
352.696537	1806.604196
355.149730	1797.377622
357.604345	1784.972727
360.054158	1776.725175
362.507467	1767.825874
364.955977	1759.114685
367.403837	1743.302797
369.853118	1732.403497
372.297606	1718.711189
374.743516	1713.111189
377.188777	1698.097902
379.631319	1686.527273
382.073213	1672.903497
384.514459	1659.882517
386.952990	1650.880420
389.392943	1647.452448
391.830182	1642.877622
394.264709	1637.110490
396.702724	1631.764336
399.135962	1630.586713
401.570622	1630.235664
404.000509	1637.586014
406.433881	1634.850350
408.862482	1635.322378
411.290443	1640.118881
413.719824	1647.238462
416.144441	1656.351748
418.570478	1662.793706
420.995876	1666.965035
423.420633	1668.871329
425.840631	1670.329371
428.262051	1676.601399
430.680774	1674.757343
433.100918	1677.726573
435.518367	1672.353147
437.937236	1674.064336
440.353412	1676.045455
442.764841	1677.758741
445.179746	1683.154545
447.591961	1677.862238
450.003542	1672.356643
452.414489	1667.653147
454.822750	1660.434266
457.230379	1651.409091
459.637375	1632.242657
462.043739	1619.569231
464.447422	1607.598601
466.850474	1597.736364
469.252896	1588.184615
471.654688	1588.059441
474.053802	1590.884615
476.454336	1592.733566
478.854241	1599.923077
481.249423	1612.272727
483.648072	1614.052448
486.042001	1616.730070
488.435304	1612.774126
490.827981	1600.337762
493.220033	1582.166434
495.613504	1554.739860
498.002262	1520.267832
500.388354	1484.026573
502.775866	1436.607692
505.162754	1391.357343
507.546979	1344.769231
509.932623	1302.683217
512.315604	1259.230070
514.695925	1229.466434
517.077665	1197.453846
519.456746	1173.606993
521.837246	1159.117483
524.215088	1148.081818
526.590275	1138.158042
528.964844	1130.202098
531.340832	1109.663636
533.714166	1092.997902
536.088919	1072.977622
538.458985	1054.713287
540.828436	1030.969930
543.199306	1010.658741
545.565494	990.269930
547.933101	972.877622
550.298062	962.455944
552.662410	959.419580
555.026146	953.866434
557.391299	951.584615
559.751780	944.370629
562.113678	943.082517
564.472937	937.265734
566.829557	933.883217
569.189623	925.237762
571.542997	916.065035
573.899816	904.372727
576.254000	893.380420
578.607575	887.644755
580.960542	883.297203
583.310878	874.967832
585.662630	871.562937
588.007706	868.346154
590.358246	868.901399
592.702113	868.703497
595.051441	865.275524
597.396120	864.850350
599.738175	860.436364
602.081647	859.142657
604.422496	863.798601
606.762742	859.965035
609.100368	858.444755
611.441429	852.520280
613.777853	846.547552
616.115693	838.048951
618.450915	834.013287
620.783522	821.504895
623.117546	812.565734
625.448955	803.581818
627.779766	798.289510
630.109979	797.718182
632.439595	799.988811
634.764587	791.902098
637.095021	789.839860
639.420833	786.206993
641.744039	785.674825
644.068661	783.153147
646.390677	782.751748
648.712099	773.855245
651.030918	774.532867
653.351153	769.727273
655.670795	771.766434
657.987836	772.019580
660.304286	772.408392
662.618137	765.261538
664.933403	762.160140
667.246073	759.422378
669.560158	759.333566
671.869644	754.221678
674.180544	751.274825
676.488852	742.911189
678.796572	744.225175
681.105707	737.313287
683.410249	738.457343
685.714205	736.840559
688.017574	727.667133
690.322358	718.723077
692.622556	709.111189
694.924169	700.190210
697.225196	697.340559
699.521642	688.496503
701.819502	685.140559
704.116780	679.431469
706.413473	681.506993
708.705591	678.895105
711.001120	685.822378
713.292076	681.311888
715.584446	678.950350
717.874240	676.527273
720.163455	669.974126
722.452089	664.279720
724.738152	664.617483
727.025628	654.131469
729.310534	652.965734
731.594861	650.523776
733.876621	654.583916
736.159794	653.158042
738.442390	653.516084
740.720430	650.531469
742.999884	654.260839
745.278763	646.867133
747.557066	642.513986
749.830820	637.381119
752.105988	636.491608
754.380582	628.180420
756.652617	629.909790
758.926065	629.677622
761.196955	636.816084
763.465288	638.908392
765.735036	643.691608
768.002228	653.081119
770.268850	664.204895
772.534903	669.859441
774.798404	673.618881
777.063317	674.568531
779.327662	677.093007
781.587476	675.455944
783.848704	674.883217
786.109364	672.733566
788.367477	672.821678
790.623046	669.399301
792.882006	674.037063
795.134467	668.495105
797.392295	668.547552
799.645604	656.223776
801.896372	653.021678
804.148553	646.625874
806.398196	643.016783
808.649250	634.422378
810.895793	632.263636
813.143749	629.411189
815.389169	636.900699
817.636002	621.881818
819.882272	621.320280
822.124039	603.027972
824.369188	592.993706
826.607865	573.869930
828.849925	573.019580
831.087486	566.792308
833.326458	560.462937
835.562904	557.865734
837.800762	565.304196
840.036094	583.071329
842.268902	599.535664
844.503122	577.346154
846.734820	584.426573
848.965963	580.274825
851.196551	580.407692
853.426585	569.005594
855.656064	568.048951
857.881063	567.346154
860.109435	565.377622
862.333329	552.160839
864.558633	540.169231
866.779462	550.489510
869.003663	548.446154
871.223391	535.928671
873.444530	546.176224
875.665118	551.742657
877.883197	566.128671
880.102685	571.023776
882.317707	579.850350
884.532181	584.226573
886.746108	581.239161
888.959487	566.921678
891.172320	550.370629
893.384605	539.174825
895.594389	541.751049
897.803627	529.265035
900.012319	533.037762
902.218513	531.502098
904.426116	536.197902
906.631222	544.500699
908.835784	553.184615
911.037851	554.282517
913.241327	558.448252
915.442309	556.883916
917.642749	549.356643
919.844598	536.570629
922.040056	551.253147
924.238872	538.579021
926.433251	550.801399
928.630987	554.963636
930.824287	564.408392
933.018995	572.562238
935.211218	564.461538
937.402903	563.683916
939.594050	567.372028
941.782714	574.475524
943.970841	582.211189
946.156488	580.906993
948.345487	599.427972
950.530063	600.974825
952.714104	610.693706
954.901495	615.576224
957.080583	614.531469
959.263020	609.088811
961.444924	595.918182
963.624354	612.735664
965.801311	627.134266
967.979676	646.183916
970.159447	661.032168
972.332870	695.181818
974.509639	717.276923
976.682002	729.128671
978.855771	756.537063
981.025138	763.586014
983.197848	774.981818
985.368092	768.110490
987.537808	757.430769
989.706995	764.916084
991.871785	762.995804
994.039917	801.775524
996.203653	814.383217
998.368797	836.987413
1000.531481	839.551748
1002.693640	843.202797
1004.853341	860.774825
1007.012519	820.744755
1009.173103	809.974126
1011.331232	790.081119
1013.488837	779.319580
1015.645919	754.997203
1017.802478	725.699301
1019.954657	708.117483
1022.108243	653.962937
1024.261306	606.244755
1026.411922	560.674126
1028.563943	519.353846
1030.711591	506.823077
1032.862571	450.930769
1035.009181	418.673427
1037.155271	372.917483
1039.300843	311.448252
1041.447819	231.625874
1043.588508	156.583217
1045.732525	81.616084
1047.874103	29.301399
1050.015163	-17.343357
1052.157628	-33.173427
1054.293814	-27.157343
1056.433326	-1.158042
1058.568482	-24.695804
1060.706963	-38.604196
1062.841091	-17.572727
1064.974705	33.925874
1067.109723	92.994406
1069.240392	152.506993
1071.372467	220.262238
1073.502111	288.715385
1075.631244	350.378322
1077.759866	426.223776
1079.887976	463.532867
1082.013660	492.304196
1084.138834	492.177622
1086.265411	504.654545
1088.387652	559.172727
1090.511297	599.275524
1092.630607	655.418182
1094.755146	704.760140
1096.873441	732.527273
1098.993139	744.979021
1101.110419	738.061538
1103.227193	731.858042
1105.343460	711.325874
1107.457312	701.089510
1109.572567	688.714685
1111.683500	660.323077
1113.797744	684.530769
1115.907669	708.253147
1118.018996	767.363636
1120.129820	798.288811
1122.236327	778.468531
1124.346143	755.530070
1126.451645	720.103497
1128.558551	719.722378
1130.659240	710.553846
1132.765142	678.872727
1134.866735	681.955944
1136.969731	677.890909
1139.072226	705.605594
1141.168515	730.457343
1143.270010	736.363636
1145.367203	734.820979
1147.463897	705.663636
1149.560094	687.926573
1151.655792	686.881119
1153.750993	691.145455
1155.843797	668.079021
1157.938003	662.120280
1160.026018	666.789510
1162.119231	659.577622
1164.206256	658.050350
1166.296581	655.786014
1168.382617	641.951049
1170.471951	646.506294
1172.555104	631.715385
1174.639660	634.951748
1176.725616	622.339860
1178.807291	620.899301
1180.890368	622.096503
1182.971059	640.495105
1185.051259	618.005594
1187.130967	619.523776
1189.210183	621.773427
1191.287018	610.953846
1193.361472	610.414685
1195.439218	609.351748
1197.512693	607.693706
1199.587570	601.357343
1201.658179	600.833566
1203.730189	613.186014
1205.799823	604.227273
1207.870858	621.341958
1209.941405	605.847552
1212.007691	607.379720
1214.075378	588.022378
1216.140693	574.297902
1218.207408	570.185315
1220.269867	563.266434
1222.335612	553.146853
1224.397102	546.865035
1226.459992	555.267832
1228.520515	553.054545
1230.580555	540.497902
1232.640111	536.232867
1234.697303	530.634965
1236.754012	531.342657
1238.808359	517.868531
1240.865986	529.041259
1242.921251	533.264336
1244.972275	537.255944
1247.024699	549.936364
1249.076644	568.117483
1251.126230	571.022378
1253.175337	574.912587
1255.223965	547.488112
1257.272115	545.264336
1259.319787	533.333566
1261.363228	530.064336
1263.409944	528.970629
1265.454308	525.407692
1267.498194	515.958042
1269.539730	529.020979
1271.578916	546.436364
1273.621374	567.565035
1275.659611	569.897203
1277.699245	580.048951
1279.738405	584.177622
1281.773347	573.914685
1283.809687	545.999301
1285.843682	553.546154
1287.879076	548.783217
1289.910256	528.848951
1291.942835	518.237762
1293.974941	519.123077
1296.004707	524.093706
1298.035871	528.763636
1300.062827	525.721678
1302.091181	546.114685
1304.115331	540.300699
1306.142746	524.565035
1308.165958	529.061538
1310.190568	541.653147
1312.212843	544.179021
1314.236516	552.260140
1316.257856	537.424476
1318.278729	535.566434
1320.299134	539.562937
1322.315345	511.643357
1324.332955	503.581818
1326.348236	502.087413
1328.366776	503.520979
1330.381126	519.706993
1332.393151	516.109091
1334.408434	524.810490
1336.419531	533.557343
1338.432024	528.197203
1340.440335	502.202797
1342.451902	504.819580
1344.457430	490.335664
1346.466212	472.551049
1348.470818	470.306294
1350.478677	473.149650
1352.486073	479.668531
1354.487439	484.155245
1356.490202	485.271329
1358.492505	478.177622
1360.494347	481.523776
1362.495731	474.577622
1364.494800	484.708392
1366.493411	492.179720
1368.491564	489.966434
1370.489259	505.846154
1372.482790	511.644056
1374.477718	516.175524
1376.472189	509.014685
1378.466203	511.941259
1380.457910	516.774825
1382.449161	501.688112
1384.438107	510.006294
1386.428448	515.672028
1388.418334	523.304895
1390.405917	520.874126
1392.393046	521.422378
1394.377873	535.685315
1396.364095	538.469930
1398.348016	530.886713
1400.331485	516.562238
1402.314502	515.193007
1404.295221	511.218881
1406.277334	504.637762
1408.257150	509.672028
1410.236516	513.525874
1412.211743	514.696503
1414.190208	523.309790
1416.166380	533.317483
1418.142102	544.778322
1420.117375	550.406294
1422.090357	538.127972
1424.062892	535.981119
1426.034978	538.390909
1428.006616	526.418881
1429.974127	512.374126
1431.946711	504.823776
1433.911489	498.529371
1435.881340	500.437063
1437.847066	499.513287
1439.814186	505.448951
1441.779022	513.283916
1443.739738	535.909091
1445.705522	544.616783
1447.665351	558.874825
1449.626573	570.779021
1451.589188	564.224476
1453.547688	555.574126
1455.505746	557.928671
1457.463361	558.864336
1459.420535	551.902098
1461.375433	550.306993
1463.331723	543.979021
1465.285739	540.449650
1467.239315	531.202797
1469.190618	518.180420
1471.143313	514.619580
1473.093737	520.458741
1475.043722	518.702797
1476.993267	523.741259
1478.940544	542.055944
1480.885554	548.180420
1482.831956	551.592308
1484.777920	565.740559
1486.723446	565.871329
1488.666708	570.120280
1490.609533	546.536364
1492.550095	542.716084
1494.492048	547.719580
1496.431740	554.335664
1498.370996	550.383217
1500.309818	550.890210
1502.246380	551.512587
1504.184332	539.200699
1506.120027	540.032168
1508.055288	527.548951
1509.988292	515.922378
1511.920864	505.316084
1513.853004	484.842657
1515.784712	501.041958
1517.714167	529.112587
1519.645011	535.446154
1521.575425	548.643357
1523.501766	562.010490
1525.429497	569.300000
1527.354978	578.417483
1529.280030	578.262937
1531.204653	582.295804
1533.128847	583.545455
1535.050794	593.972028
1536.974130	586.693007
1538.895221	586.627273
1540.814067	589.415385
1542.734303	585.783217
1544.652295	597.558741
1546.569861	597.266434
1548.485185	607.895804
1550.401899	616.734266
1552.314558	620.253147
1554.230421	632.110490
1556.144045	635.089510
1558.055430	629.894406
1559.968204	598.081818
1561.876929	582.628671
1563.787044	568.208392
1565.696735	571.041958
1567.606002	574.162937
1569.513036	563.957343
1571.417837	580.736364
1573.324027	589.076923
1575.227985	598.743357
1577.131523	615.137063
1579.034639	631.034965
1580.935527	636.672028
1582.837803	645.443357
1584.737850	653.432867
1586.639286	641.202797
1588.536687	638.708392
1590.433671	619.234266
1592.330236	592.400699
1594.228188	588.968531
1596.120306	592.017483
1598.015618	599.633566
1599.910511	595.906993
1601.803183	606.880420
1603.695439	594.504196
1605.585475	580.599301
1607.475095	596.880420
1609.364300	586.591608
1611.253089	588.437063
1613.139662	598.339161
1615.027621	597.673427
1616.911565	613.226573
1618.796895	635.181119
1620.681812	624.862937
1622.564515	630.004196
1624.448604	648.731469
1626.328683	634.309790
1628.210148	628.139161
1630.089403	632.188112
1631.970044	611.776224
1633.844881	609.771329
1635.724700	600.888112
1637.600513	579.920280
1639.475917	575.200699
1641.352706	587.234965
1643.223698	587.874126
1645.097872	618.368531
1646.968048	615.383217
1648.841404	632.290909
1650.712557	605.590909
1652.581508	616.478322
1654.451845	614.779021
1656.318188	602.167133
1658.185918	578.327972
1660.051448	568.008392
1661.918363	569.249650
1663.781290	586.970629
1665.645602	595.804895
1667.507719	570.676224
1669.369430	568.901399
1671.232526	580.972727
1673.093428	561.378322
1674.952136	634.208392
1676.810441	613.569930
1678.670131	577.478322
1680.524054	546.499301
1682.381149	518.955245
1684.237842	520.358042
1686.090559	508.022378
1687.946447	486.639161
1689.798361	466.141259
1691.649873	469.686713
1693.500986	486.897902
1695.351697	499.123077
1697.202008	529.216783
1699.050135	496.730769
1700.899645	472.823776
1702.743407	455.573427
1704.592119	431.340559
1706.435084	430.455245
1708.281215	416.204196
1710.123385	406.911189
1711.968719	416.334266
1713.808313	398.911888
1715.649291	426.701399
1717.491652	416.689510
1719.330057	416.940559
1721.169845	418.646154
1723.007458	407.167133
1724.844675	388.566434
1726.679719	369.535664
1728.516146	358.365035
1730.350401	364.608392
1732.184262	359.795804
1734.017728	351.984615
1735.847248	331.443357
1737.679927	332.365035
1739.508662	327.090210
1741.340555	335.268531
1743.168505	343.713287
1744.996063	350.275524
1746.823230	353.200699
1748.650004	361.232168
1750.476388	376.723077
1752.298835	391.930769
1754.124436	388.720280
1755.946103	391.601399
1757.769152	377.269930
1759.590040	358.713986
1761.410538	373.557343
1763.232418	374.225874
1765.048598	383.487413
1766.867930	373.952448
1768.683335	379.407692
1770.501891	402.387413
1772.316521	423.005594
1774.130764	447.972028
1775.944621	447.882517
1777.758091	460.441958
1779.569407	457.136364
1781.382105	475.653147
1783.194416	518.276923
1785.002810	527.378322
1786.812585	545.308392
1788.618444	548.911888
1790.427450	559.500699
1792.232542	557.598601
1794.039014	585.205594
1795.845103	584.574825
1797.647282	570.021678
1799.452604	569.965734
1801.254018	559.866434
1803.056812	581.318182
1804.855701	595.857343
1806.655969	606.985315
1808.455857	613.678322
1810.253602	607.614685
1812.050967	622.400000
1813.847951	614.120979
1815.644555	637.990210
1817.439020	631.041958
1819.234865	652.360140
1821.025054	661.082517
1822.820140	655.895105
1824.609573	673.584615
1826.402144	656.750350
1828.192579	644.823776
1829.980879	652.484615
1831.772315	652.725175
1833.558105	669.339860
1835.345275	663.829371
1837.130313	656.428671
1838.918485	667.512587
1840.702771	687.287413
1842.484928	702.023776
1844.268463	692.139161
1846.049871	701.314685
1847.832656	670.880420
1849.611562	697.592308
1851.391846	716.202098
1853.170005	723.362937
1854.949541	726.588112
1856.726953	729.370629
1858.502241	727.088112
1860.278908	729.896503
1862.053452	734.085315
1863.829373	716.094406
1865.599675	690.586713
1867.373104	687.453147
1869.144413	672.453846
1870.915351	692.731469
1872.687666	665.408392
1874.454369	665.900000
1876.224196	656.338462
1877.990160	667.890210
1879.759248	675.312587
1881.524474	675.381119
1883.289332	693.987413
1885.055566	681.941958
1886.817942	676.983916
1888.579951	689.681119
1890.341593	687.357343
1892.102867	685.309091
1893.863775	655.464336
1895.624315	660.466434
1897.382746	670.884615
1899.140812	685.727972
1900.896770	680.921678
1902.654104	694.353147
1904.411072	689.727972
1906.165935	671.081119
1907.918692	645.867133
1909.671086	659.416084
1911.424856	647.567832
1913.176522	648.952448
1914.926085	634.734266
1916.677025	653.294406
1918.427601	659.434965
1920.174339	655.740559
1921.922452	654.906993
1923.668466	656.486713
1925.415856	643.455944
1927.161147	636.524476
1928.904341	619.577622
1930.648911	646.360140
1932.391384	641.132867
1934.133497	654.085315
1935.875251	655.017483
1937.616644	666.081818
1939.355944	679.579720
1941.094885	706.055944
1942.833467	729.997203
1944.569957	736.086713
1946.306090	723.537762
1948.043597	702.530070
1949.777283	680.488112
1951.512343	657.924476
1953.245314	633.922378
1954.977929	613.718182
1956.710187	615.251748
1958.442089	635.463636
1960.171905	673.153846
1961.899637	696.358042
1963.628742	709.101399
1965.357493	716.621678
1967.084160	692.604196
1968.810473	692.102797
1970.538159	674.391608
1972.260309	652.781818
1973.985561	653.279720
1975.707005	632.852448
1977.431549	627.298601
1979.154014	631.147552
1980.872675	640.785315
1982.594435	626.060839
1984.312393	618.045455
1986.031725	622.781818
1987.747256	613.142657
1989.467609	631.596503
1991.184162	639.555944
1992.896920	654.037063
1994.612773	670.013986
1996.326554	671.620979
1998.039984	668.874825
1999.751344	679.517483
2001.464077	683.446154
2003.173018	653.126573
2004.885053	648.953846
2006.591578	663.004196
2008.301196	657.583916
2010.008746	677.972028
2011.715949	676.287413
2013.421086	666.922378
2015.125876	677.410490
2016.832038	693.297203
2018.534418	697.523077
2020.238170	701.728671
2021.939859	707.837762
2023.641202	702.684615
2025.342200	723.424476
2027.041138	717.001399
2028.741447	710.996503
2030.437980	711.375524
2032.135885	696.199301
2033.831732	674.989510
2035.530664	672.834965
2037.224110	667.626573
2038.918927	654.127273
2040.613401	660.517483
2042.304107	665.675524
2043.997897	661.951049
2045.687920	673.253147
2047.379314	664.137063
2049.068655	669.312587
2050.759366	656.869930
2052.446315	657.574126
2054.132923	650.939860
2055.820902	640.740559
2057.505121	639.162937
2059.190710	645.273427
2060.875960	655.579720
2062.559162	659.950350
2064.243734	664.716084
2065.922842	678.553846
2067.606736	693.409790
2069.285170	694.452448
2070.966681	696.767832
2072.644440	677.104196
2074.321863	679.572727
2076.000655	664.788112
2077.677404	671.034965
2079.352112	669.425175
2081.028189	666.521678
2082.702226	668.255944
2084.375927	660.702098
2086.049293	669.076224
2087.720621	690.328671
2089.391614	692.708392
2091.062273	693.746154
2092.732598	683.298601
2094.402588	681.409790
2096.070543	669.280420
2097.738165	679.074126
2099.403753	682.334266
2101.070709	689.981119
2102.735632	679.537762
2104.400222	668.067832
2106.062781	681.139161
2107.726709	690.730070
2109.388605	677.656643
2111.050170	691.046154
2112.711405	714.834266
2114.370610	714.767133
2116.029486	723.179720
2117.688031	740.666434
2119.346247	730.366434
2121.000739	728.244755
2122.658297	712.944755
2124.315524	691.686713
2125.969031	689.500000
2127.623905	665.731469
2129.275060	648.865035
2130.929278	674.334965
2132.579778	685.186014
2134.231646	696.684615
2135.878105	711.745455
2137.529318	707.511888
2139.176818	698.493007
2140.825686	715.444056
2142.472534	721.930070
2144.119056	725.704196
2145.765254	725.847552
2147.407742	710.955944
2149.053289	712.652448
2150.695129	709.576224
2152.340026	704.590909
2153.981218	725.879720
2155.622086	736.105594
2157.262631	741.140559
2158.901163	743.090909
2160.541061	740.974825
2162.177259	763.532168
2163.814823	767.644056
2165.452065	753.416084
2167.087297	742.643357
2168.722207	736.960839
2170.356796	713.566434
2171.991064	706.332168
2173.621638	709.447552
2175.255263	708.379021
2176.885197	717.548951
2178.516496	696.197203
2180.145791	691.218182
2181.774765	695.305594
2183.403421	690.775524
2185.031757	695.190210
2186.658090	705.566434
2188.284105	708.594406
2189.908119	699.441259
2191.533498	703.304196
2193.156876	701.595804
2194.781619	712.356643
2196.402680	723.628671
2198.023426	732.338462
2199.645535	752.207692
2201.265647	751.760140
2202.883763	763.080420
2204.501563	764.346154
2206.119047	775.901399
2207.736216	778.502797
2209.353070	773.071329
2210.969609	774.330070
2212.584154	758.534266
2214.196707	749.460140
2215.810625	746.608392
2217.422550	746.941259
2219.035840	765.189510
2220.647138	756.521678
2222.256448	749.712587
2223.867120	758.218881
2225.475804	779.932168
2227.084176	767.504196
2228.690560	749.195804
2230.298308	762.392308
2231.904069	758.741259
2233.509519	765.369231
2235.112985	766.369930
2236.717813	753.471329
2238.320657	776.039860
2239.921518	773.769231
2241.523742	785.597203
2243.123983	807.633566
2244.725588	808.729371
2246.323539	812.985315
2247.922853	828.407692
2249.520187	862.850350
2251.117213	853.128671
2252.715600	856.773427
2254.310339	822.849650
2255.903102	794.348252
2257.497226	778.681818
2259.092712	750.155245
2260.684554	744.065035
2262.276089	751.300699
2263.868985	756.253846
2265.456572	785.981818
2267.048856	784.948951
2268.635832	810.748252
2270.225837	817.219580
2271.810537	844.420979
2273.399931	831.411888
2274.984022	832.220280
2276.569475	814.180420
2278.152959	795.490210
2279.739468	801.186713
2281.322344	785.971329
2282.904916	786.179720
2284.487186	796.509790
2286.065825	776.456643
2287.647488	785.543357
2289.225524	794.382517
2290.806582	800.893706
2292.384013	774.936364
2293.959481	788.845455
2295.537971	765.831469
2297.112836	736.308392
2298.687401	743.353147
2300.261666	746.732168
2301.835630	798.093007
2303.409294	818.119580
2304.982657	833.562238
2306.552402	828.410490
2308.121848	828.870629
2309.694313	828.251049
2311.261503	823.250350
2312.831710	810.490909
2314.398303	758.076923
2315.966256	735.783916
2317.532254	749.874126
2319.097954	772.858741
2320.663356	805.980420
2322.226805	839.930070
2323.791613	886.934266
2325.352812	888.999301
2326.917026	890.274126
2328.475979	878.267133
2330.037945	859.074825
2331.597961	813.153846
2333.157681	796.247552
2334.715452	778.240559
2336.272929	738.804196
2337.830110	733.924476
2339.385345	733.520979
2340.940285	744.643357
2342.494932	756.530070
2344.049285	761.416084
2345.603344	737.870629
2347.157110	717.375524
2348.708931	724.609091
2350.258809	736.424476
2351.811695	745.780420
2353.359339	757.102098
2354.909990	745.130769
2356.457051	773.474126
2358.005469	773.906294
2359.553595	771.905594
2361.098134	794.741259
2362.644030	775.685315
2364.187987	767.577622
2365.733302	773.048951
2367.275032	809.664336
2368.818120	811.445455
2370.359271	823.665734
2371.900133	835.678322
2373.440706	840.627273
2374.980990	863.209790
2376.520985	863.321678
2378.057401	860.135664
2379.596819	858.974126
2381.132660	832.722378
2382.669857	851.058741
2384.203480	845.454545
2385.740102	844.890210
2387.274793	821.488811
2388.807555	799.923077
2390.340031	791.391608
2391.870578	822.784615
2393.404123	829.874126
2394.932457	837.808392
2396.462147	851.840559
2397.991552	855.527972
2399.520672	835.153846
2401.049506	836.779021
2402.573136	819.119580
2404.101401	778.714685
2405.624463	783.447552
2407.152160	790.524476
2408.673016	815.984615
2410.198506	845.427972
2411.720436	846.304196
2413.243720	878.771329
2414.765084	882.595105
2416.284528	856.290909
2417.805327	817.259441
2419.324207	800.738462
2420.842805	782.200699
2422.359486	756.720280
2423.877522	778.624476
2425.395276	787.455245
2426.909478	774.162238
2428.423400	792.882517
2429.937043	812.089510
2431.452039	834.023077
2432.963487	825.676923
2434.476290	819.283916
2435.987180	805.613986
2437.497790	795.176224
2439.006489	779.510490
2440.518175	768.266434
2442.026317	787.875524
2443.534180	797.760839
2445.041766	793.725175
2446.545812	816.472028
2448.052842	868.758741
2449.557964	898.838462
2451.062809	927.039161
2452.565747	957.655245
2454.068408	922.686014
2455.570793	887.674825
2457.071273	865.237063
2458.573106	843.773427
2460.073035	848.170629
2461.572688	815.898601
2463.072066	787.309790
2464.569541	784.881818
2466.065114	839.211189
2467.563667	832.179021
2469.058691	825.183916
2470.555069	809.461538
2472.047920	779.667133
2473.542123	788.259441
2475.036053	802.086713
2476.526460	796.938462
2478.019844	794.064336
2479.511329	807.042657
2481.000918	844.698601
2482.490236	883.041958
2483.977657	907.100000
2485.468054	861.885315
2486.954932	833.623776
2488.443162	825.470629
2489.927876	830.802797
2491.412319	826.158741
2492.898114	796.016084
2494.382016	783.524476
2495.867270	790.185315
2497.347390	807.553147
2498.830482	801.171329
2500.311684	819.348951
2501.792617	800.374825
2503.271661	814.134266
2504.750437	842.415385
2506.228944	873.188811
2507.707182	870.436364
2509.185152	896.839161
2510.659618	921.874825
2512.137052	914.597902
2513.610983	920.560140
2515.086265	897.099301
2516.561279	864.451748
2518.032792	864.164336
2519.505656	838.962238
2520.976637	857.542657
2522.448967	857.629371
2523.916185	839.934965
2525.386369	825.776224
2526.854671	876.023776
2528.322709	883.658741
2529.790482	852.692308
2531.257990	869.823077
2532.725233	879.121678
2534.188985	856.028671
2535.654086	856.060839
2537.117310	859.533566
2538.581883	854.742657
2540.042967	846.553846
2541.505402	831.244755
2542.967573	838.144755
2544.426257	865.795105
2545.889514	865.186713
2547.347674	877.438462
2548.807183	884.586713
2550.261599	893.440559
2551.720585	916.697902
2553.177698	922.942657
2554.632941	927.713986
2556.087923	911.375524
2557.541035	900.939860
2558.995496	885.749650
2560.448088	866.818881
2561.900420	868.427972
2563.350884	874.235664
2564.804304	865.650350
2566.252642	854.716783
2567.703936	860.390210
2569.153363	898.852448
2570.599319	888.004895
2572.048229	914.165734
2573.493668	921.611888
2574.940456	924.760140
2576.385380	939.393706
2577.830047	943.326573
2579.276061	956.584615
2580.718608	953.177622
2582.162503	961.423077
2583.602933	949.087413
2585.044711	940.400699
2586.484629	943.823077
2587.925894	940.649650
2589.363697	963.124476
2590.804450	970.897203
2592.240140	976.731469
2593.678780	964.660140
2595.115563	947.995105
2596.550489	935.558741
2597.988364	907.127972
2599.421181	895.003497
2600.855345	837.634266
2602.287654	816.853147
2603.721310	816.941958
2605.153113	835.542657
2606.584663	871.823776
2608.015959	882.159441
2609.445404	894.977622
2610.874596	882.527972
2612.301937	915.213287
2613.730625	915.226573
2615.159060	897.169930
2616.584049	889.567133
2618.010383	908.186014
2619.434869	920.895105
2620.860701	953.141958
2622.283089	972.174825
2623.706823	980.375524
2625.128711	970.946853
2626.550348	979.662937
2627.970140	974.592308
2629.391278	968.369930
2630.812166	951.984615
2632.229616	947.208392
2633.650005	969.762937
2635.066957	1012.134266
2636.483661	1018.747552
2637.900116	1043.125874
2639.316323	1010.870629
2640.732281	995.651748
2642.146399	1001.865035
2643.560270	995.844056
2644.972301	979.311888
2646.385677	976.430769
2647.795623	1002.797203
2649.208505	1008.784615
2650.617958	1026.382517
2652.027165	1031.640559
2653.434536	1018.767832
2654.844841	987.837063
2656.253310	937.053846
2657.659944	951.065734
2659.066333	922.076923
2660.470888	916.336364
2661.876787	934.415385
2663.280853	952.179720
2664.684675	967.857343
2666.088252	975.613986
2667.489997	979.343357
2668.893086	971.244056
2670.292758	965.776923
2671.693773	964.274825
2673.091371	964.315385
2674.491900	980.549650
2675.889014	950.468531
2677.287471	983.937762
2678.684100	998.224476
2680.080488	1010.802797
2681.476633	1040.802098
2682.870952	1032.553846
2684.266614	1033.039161
2685.658866	1044.043357
2687.052462	1051.727972
2688.444233	1046.629371
2689.837346	1048.851049
2691.228636	1035.979021
2692.618103	1006.937063
2694.007331	1000.548951
2695.396318	1006.913986
2696.786648	1048.072727
2698.171993	1047.324476
2699.560263	1018.569930
2700.946712	1045.216084
2702.332922	1054.016783
2703.718893	1054.082517
2705.101466	1048.245455
2706.485380	1061.073427
2707.869057	1044.717483
2709.252496	1039.867832
2710.632539	1041.418182
2712.013924	1077.737063
2713.393493	1074.448252
2714.774404	1072.377622
2716.153500	1064.886014
2717.530781	1095.639860
2718.909404	1086.696503
2720.286214	1074.873427
2721.662788	1049.613287
2723.039126	1068.079720
2724.413652	1064.513287
2725.789519	1077.076224
2727.161999	1085.170629
2728.537396	1075.839860
2729.907831	1059.352448
2731.279608	1068.551748
2732.651151	1071.342657
2734.020885	1087.898601
2735.391959	1066.620979
2736.761226	1069.397902
2738.130259	1056.837762
2739.497485	1093.913287
2740.864479	1109.081818
2742.231240	1110.069930
2743.597768	1123.075524
2744.962492	1114.309091
2746.326983	1120.452448
2747.691242	1114.479720
2749.055270	1108.202797
2750.419065	1116.653147
2751.779487	1100.064336
2753.142820	1115.240559
2754.501210	1104.486014
2755.862510	1120.489510
2757.220439	1100.727273
2758.581278	1063.273427
2759.940316	1051.062238
2761.295986	1027.908392
2762.654565	1005.788112
2764.009776	980.484615
2765.364758	960.414685
2766.717943	1009.203497
2768.074035	1022.252448
2769.426763	1061.632168
2770.779262	1083.837762
2772.131533	1120.373427
2773.485143	1142.025175
2774.835391	1160.484615
2776.183846	1172.009091
2777.535205	1189.020979
2778.883205	1182.229371
2780.232544	1158.014685
2781.580090	1153.956643
2782.927409	1153.587413
2784.274502	1133.688811
2785.619804	1105.958042
2786.964880	1067.774825
2788.309730	1086.707692
2789.654354	1124.939161
2790.995625	1147.617483
2792.338235	1148.406993
2793.680620	1145.218182
2795.022779	1116.260140
2796.361589	1100.090909
2797.703299	1079.071329
2799.041660	1066.162937
2800.381359	1074.175524
2801.719272	1058.526573
2803.055401	1077.806993
2804.391307	1133.087413
2805.728549	1184.427273
2807.064008	1228.005594
2808.399244	1239.025874
2809.732698	1238.419580
2811.067488	1234.860140
2812.398937	1229.674126
2813.733282	1225.201399
2815.062729	1222.641958
2816.393513	1213.211189
2817.724075	1179.364336
2819.052858	1158.502797
2820.382978	1138.333566
2821.711318	1117.623776
2823.039438	1124.845455
2824.365781	1116.690210
2825.693459	1122.913287
2827.017805	1123.004196
2828.343486	1111.490210
2829.667393	1104.255245
2830.991079	1083.609091
2832.316101	1065.355944
2833.637794	1058.749650
2834.959267	1063.374825
2836.280522	1088.995804
2837.601558	1116.660140
2838.920822	1149.913986
2840.241421	1186.868531
2841.560248	1223.628671
2842.878857	1215.434965
2844.195696	1214.034965
2845.512317	1203.179021
2846.828720	1176.660839
2848.143355	1149.032867
2849.459324	1149.532168
2850.771973	1122.004895
2852.085958	1098.460140
2853.399726	1090.391608
2854.713277	1075.953846
2856.025061	1101.337762
2857.335080	1110.665734
2858.646433	1114.169930
2859.954470	1126.558741
2861.263843	1140.402797
2862.573000	1136.432867
2863.881942	1148.277622
2865.189121	1156.930769
2866.494536	1141.525874
2867.801286	1138.848252
2869.106273	1125.931469
2870.411047	1117.072028
2871.714059	1142.884615
2873.019953	1119.888112
2874.320992	1126.708392
2875.623364	1121.066434
2876.923977	1118.711189
2878.225924	1102.467832
2879.527658	1117.138462
2880.826088	1126.369930
2882.125851	1130.632867
2883.423857	1133.210490
2884.721651	1118.684615
2886.017688	1119.264336
2887.315059	1123.017483
2888.610674	1094.289510
2889.906079	1104.344056
2891.201272	1109.832168
2892.493167	1085.032168
2893.787939	1077.339161
2895.079415	1100.793706
2896.372223	1124.560839
2897.664821	1130.867832
2898.954124	1169.018881
2900.244760	1174.201399
2901.533646	1175.506294
2902.823863	1163.275524
2904.110789	1159.787413
2905.399047	1139.865035
2906.685556	1141.800000
2907.971856	1118.079021
2909.257948	1132.413986
2910.542292	1154.728671
2911.829508	1173.183916
2913.111897	1189.675524
2914.395618	1226.869231
2915.677592	1193.521678
2916.959360	1200.277622
2918.239382	1194.332867
2919.522274	1216.418881
2920.803421	1214.555245
2922.081286	1254.705594
2923.362020	1247.115385
2924.639473	1247.390210
2925.916721	1258.995804
2927.192226	1258.288112
2928.470599	1264.324476
2929.744157	1251.179720
2931.020583	1208.616084
2932.295268	1226.879720
2933.568213	1224.322378
2934.842488	1249.246154
2936.115024	1260.603497
2937.387356	1260.933566
2938.656415	1217.365035
2939.928339	1217.113287
2941.198525	1226.197203
2942.468507	1237.225874
2943.738286	1239.767133
2945.006328	1247.224476
2946.272635	1261.509790
2947.538739	1263.562937
2948.806174	1253.315385
2950.071873	1225.311189
2951.337370	1208.230769
2952.602665	1207.248951
2953.864696	1196.126573
2955.128056	1216.996503
2956.391215	1221.745455
2957.652641	1254.011888
2958.915397	1245.816084
2960.176422	1260.833566
2961.435716	1267.834965
2962.694809	1237.734965
2963.953702	1248.059441
2965.212395	1228.531469
2966.470888	1240.186014
2967.727652	1262.105594
2968.984217	1284.027273
2970.239053	1302.986713
2971.495219	1303.760140
2972.748129	1324.153147
2974.002369	1311.937063
2975.256410	1301.728671
2976.508725	1286.727273
2977.760842	1269.737063
2979.011234	1285.888811
2980.264481	1263.599301
2981.512951	1263.219580
2982.764275	1278.804895
2984.012351	1295.942657
2985.260229	1307.990210
2986.507910	1298.381818
2987.755395	1317.920280
2989.001158	1298.941958
2990.246724	1267.314685
2991.493619	1243.164336
2992.737268	1234.991608
2993.982246	1227.127972
2995.223981	1214.825175
2996.468567	1228.122378
2997.711434	1253.076224
2998.951059	1283.963636
3000.193536	1335.219580
3001.432772	1364.999301
3002.673336	1382.663636
3003.912183	1390.607692
3005.150836	1415.696503
3006.387773	1425.164336
3007.626037	1419.519580
3008.862587	1377.355245
3010.098943	1361.804196
3011.335105	1339.178322
3012.569553	1318.204196
3013.803808	1324.213287
3015.037870	1331.367832
3016.270220	1337.230070
3017.500858	1334.713287
3018.734342	1370.572727
3019.966115	1400.169930
3021.196176	1386.312587
3022.426046	1371.210490
3023.654206	1365.202098
3024.883693	1368.766434
3026.111470	1359.212587
3027.339056	1363.540559
3028.567968	1380.681119
3029.792138	1373.340559
3031.019151	1371.954545
3032.242941	1385.965734
3033.468056	1408.495105
3034.691465	1392.889510
3035.914685	1350.525874
3037.136199	1345.880420
3038.360554	1351.773427
3039.580174	1353.683916
3040.801120	1356.607692
3042.021876	1377.709790
3043.240929	1388.762937
3044.461308	1401.911189
3045.678470	1411.259441
3046.896957	1426.303497
3048.113743	1431.865035
3049.330340	1381.744056
3050.546750	1357.323077
3051.759946	1372.637063
3052.975980	1359.452448
3054.188802	1349.977622
3055.404461	1337.630769
3056.615397	1347.944755
3057.827659	1344.345455
3059.039733	1359.830070
3060.251621	1353.323776
3061.461811	1364.727972
3062.671816	1359.559091
3063.881634	1331.491608
3065.089756	1334.901049
3066.297692	1346.756643
3067.503934	1351.453497
3068.711500	1345.939161
3069.917371	1335.697552
3071.123057	1326.847552
3072.328559	1328.446503
3073.532367	1342.779720
3074.737499	1346.624126
3075.940938	1368.347552
3077.142685	1370.952797
3078.344249	1365.951049
3079.545629	1369.920979
3080.746825	1387.662937
3081.946331	1403.053846
3083.145653	1389.106294
3084.346299	1368.987413
3085.545256	1368.901399
3086.741017	1381.606993
3087.939608	1380.669231
3089.135005	1398.496503
3090.331726	1418.622378
3091.525254	1424.469231
3092.721610	1434.098601
3093.916279	1425.255245
3095.107758	1432.595105
3096.303568	1424.909790
3097.494685	1410.917483
3098.687125	1378.618881
3099.876376	1359.955245
3101.068454	1350.401399
3102.258848	1323.495804
3103.446055	1326.151748
3104.634586	1313.932867
3105.824439	1328.760839
3107.011107	1345.381818
3108.197596	1346.396503
3109.383905	1373.670629
3110.571537	1390.232168
3111.755986	1400.921678
3112.938755	1412.711888
3114.124348	1430.157343
3115.308260	1445.256643
3116.490494	1447.051748
3117.672550	1465.735664
3118.854427	1482.297203
3120.036126	1525.637063
3121.216148	1500.686713
3122.394492	1479.874126
3123.575658	1443.032867
3124.753648	1426.111888
3125.931461	1380.371329
3127.109097	1366.065734
3128.285058	1349.510490
3129.460843	1358.045455
3130.637948	1392.893706
3131.813380	1426.947552
3132.987138	1443.157343
3134.159223	1476.816084
3135.332629	1455.754545
3136.505860	1463.906294
3137.677418	1454.720979
3138.850298	1442.276224
3140.020010	1407.900000
3141.191043	1391.746154
3142.360405	1372.205594
3143.528098	1390.795105
3144.698606	1411.405594
3145.864455	1425.547552
3147.034614	1438.654545
3148.200115	1481.616084
3149.365443	1487.622378
3150.530597	1516.125874
3151.695578	1538.867832
3152.861878	1534.427273
3154.023525	1543.062937
3155.186493	1529.295105
3156.349287	1526.229371
3157.511909	1536.624476
3158.672866	1537.910490
3159.833650	1538.046853
3160.994263	1539.057343
3162.153211	1544.213287
3163.311987	1516.089510
3164.470592	1516.299301
3165.629025	1533.543357
3166.787286	1538.660140
3167.943885	1547.227273
3169.098823	1546.987413
3170.255080	1562.618881
3171.409677	1584.548951
3172.564102	1586.093007
3173.716868	1583.046853
3174.869464	1594.102797
3176.021890	1578.753846
3177.174145	1574.472727
3178.326231	1582.771329
3179.475170	1603.481119
3180.626916	1599.911189
3181.777005	1633.922378
3182.925436	1640.211888
3184.073699	1649.911888
3185.221793	1663.750350
3186.369717	1657.590909
3187.515987	1659.445455
3188.662088	1641.944755
3189.806535	1601.935664
3190.950813	1601.400000
3192.094924	1588.359441
3193.240353	1581.539161
3194.382643	1579.588112
3195.524765	1594.795105
3196.666721	1571.675524
3197.808509	1574.038462
3198.950130	1574.524476
3200.088615	1582.227972
3201.228419	1599.975524
3202.369539	1581.308392
3203.507525	1569.379021
3204.643862	1565.379021
3205.780033	1564.734965
3206.917522	1543.039161
3208.053362	1537.480420
3209.190518	1514.000699
3210.323063	1520.944056
3211.459888	1541.351049
3212.592102	1558.269231
3213.725634	1586.257343
3214.859000	1622.957343
3215.989239	1618.383916
3217.122277	1630.709790
3218.252187	1631.512587
3219.383415	1622.034266
3220.511517	1602.069231
3221.642417	1605.687413
3222.771672	1600.376224
3223.899283	1586.066434
3225.023773	1581.703497
3226.152538	1558.258741
3227.278181	1551.427273
3228.403661	1565.630769
3229.527500	1550.368531
3230.654134	1578.304895
3231.776169	1585.451748
3232.899521	1600.590909
3234.022711	1638.088112
3235.145739	1663.156643
3236.267127	1671.372727
3237.388354	1652.152448
3238.507942	1646.026573
3239.627369	1634.334965
3240.745159	1654.868531
3241.865740	1647.175524
3242.983208	1644.618182
3244.100515	1641.634965
3245.217661	1638.226573
3246.333172	1667.479720
3247.449998	1686.065035
3248.563713	1690.051748
3249.680219	1677.181119
3250.795089	1668.869930
3251.906851	1667.899301
3253.018454	1662.913287
3254.131372	1662.800699
3255.244130	1664.730769
3256.353782	1667.939860
3257.464749	1665.413986
3258.575557	1707.299301
3259.684733	1736.173427
3260.792278	1757.567832
3261.901138	1799.253147
3263.009839	1819.127273
3264.115438	1829.556643
3265.222352	1817.229371
3266.327636	1793.916783
3267.434234	1782.659441
3268.537732	1776.409790
3269.642544	1767.530769
3270.747199	1760.269930
3271.848756	1757.547552
3272.950156	1728.759441
3274.052870	1738.886014
3275.155427	1763.939161
3276.254889	1768.941259
3277.357133	1766.153147
3278.456283	1761.709790
3279.553807	1764.302797
3280.651176	1767.012587
3281.751328	1767.262238
3282.848386	1774.072028
3283.945290	1755.401399
3285.042038	1752.725874
3286.134227	1733.323077
3287.230666	1732.165035
3288.325482	1728.419580
3289.420143	1718.327273
3290.513183	1720.010490
3291.606069	1706.455245
3292.697334	1698.921678
3293.789912	1705.402797
3294.880870	1702.203497
3295.970208	1708.274825
3297.059393	1713.225874
3298.149890	1727.673427
3299.237303	1742.499301
3300.324564	1749.299301
3301.413137	1771.278322
3302.501557	1786.460140
3303.585430	1797.567133
3304.673545	1801.611888
3305.758579	1820.037762
3306.841997	1830.805594
3307.926727	1824.818182
3309.009841	1821.602098
3310.094267	1806.102797
3311.175615	1799.187413
3312.258275	1796.303497
3313.339321	1794.160839
3314.420216	1815.244056
3315.499498	1819.551748
3316.578629	1814.246154
3317.659072	1834.505594
3318.736440	1859.288112
3319.815120	1848.404895
3320.892188	1852.056643
3321.969106	1841.159441
3323.044414	1832.533566
3324.119572	1819.810490
3325.196041	1808.810490
3326.269439	1822.310490
3327.342689	1835.860839
3328.417250	1832.400699
3329.490201	1836.482517
3330.561545	1850.776923
3331.634199	1877.100000
3332.703786	1892.976923
3333.774684	1918.757343
3334.843975	1931.840559
3335.914577	1943.452448
3336.983572	1948.115385
3338.050961	1967.027273
3339.116745	1989.855245
3340.186755	1984.089510
3341.253702	1982.727273
3342.317587	1963.286014
3343.384240	1940.915385
3344.449289	1939.486713
3345.512734	1927.618182
3346.576032	1922.707692
3347.639185	1932.461538
3348.702191	1930.251049
3349.765050	1951.740559
3350.826308	1970.786014
3351.884509	2003.050350
3352.946931	2016.426573
3354.006296	2040.332867
3355.065517	2030.081119
3356.126046	2027.098601
3357.182066	2012.030769
3358.240851	2023.686014
3359.295128	2018.805594
3360.352169	2000.679720
3361.407611	1980.393706
3362.464362	1956.485315
3363.519516	1920.841259
3364.573072	1916.066434
3365.625031	1906.679720
3366.679752	1895.330769
3367.731425	1892.027972
3368.782953	1914.725175
3369.835791	1931.900000
3370.885581	1974.229371
3371.936680	1984.915385
3372.984732	1988.880420
3374.035545	1988.437762
3375.083312	1973.554545
3376.130937	1966.154545
3377.178420	1936.089510
3378.224309	1919.812587
3379.271508	1921.981119
3380.315663	1936.366434
3381.362577	1957.153147
3382.407899	1948.874825
3383.450181	1966.756643
3384.492321	1985.046154
3385.535770	1985.683916
3386.579077	1998.034266
3387.620794	2002.769231
3388.662370	1980.841958
3389.703806	1949.535664
3390.743653	1964.459441
3391.781911	1993.460839
3392.821477	1999.622378
3393.860903	2013.559441
3394.898741	2006.676923
3395.934992	2026.139860
3396.971103	2048.374825
3398.008522	2057.327273
3399.042908	2080.467133
3400.078602	2074.611189
3401.114156	2061.723776
3402.146678	2085.304895
3403.181954	2100.391608
3404.214199	2100.539161
3405.246306	2080.337063
3406.276829	2086.314685
3407.308660	2094.010490
3408.340352	2103.334965
3409.369016	2111.925175
3410.397542	2104.665734
3411.427376	2081.802797
3412.457072	2054.127972
3413.483741	2039.916783
3414.511718	2050.393706
3415.536670	2034.027972
3416.564372	2021.318182
3417.589051	2010.856643
3418.615036	2032.454545
3419.639442	2060.159441
3420.663710	2070.415385
3421.686400	2078.562238
3422.708955	2067.840559
3423.732814	2039.232867
3424.753654	2026.222378
3425.774359	2015.583816
3426.796369	2010.129595
3427.815361	2011.979121
3428.834218	2023.251798
3429.854381	2046.067033
3430.871526	2082.544231
