-118.385087	62.090659
-115.715486	67.372527
-113.048821	71.699800
-110.382909	75.044855
-107.719928	77.380070
-105.055517	78.677822
-102.394037	78.910490
-99.731128	76.830070
-97.073326	74.826573
-94.414093	72.077622
-91.755609	67.300699
-89.100050	65.041958
-86.443062	69.602098
-83.791171	70.814685
-81.137851	74.835664
-78.487451	77.333566
-75.835621	82.442657
-73.188882	85.447552
-70.540713	87.555245
-67.893288	86.300699
-65.248776	89.519580
-62.602835	93.574825
-59.961977	95.285315
-57.319688	100.606993
-54.680309	105.409790
-52.039501	106.311189
-49.399432	112.981818
-46.764437	119.070629
-44.128012	129.572028
-41.494491	137.570629
-38.859540	151.472028
-36.229656	162.753846
-33.596178	179.267832
-30.967763	192.581119
-28.340082	204.002797
-25.710973	156.152448
-23.086920	-166.368531
-20.459278	-1537.562937
-17.836689	-3734.295105
-15.214831	-1550.090210
-12.593704	4132.979720
-9.973308	15436.101399
-7.355799	27213.284615
-4.736862	35573.553846
-2.120811	40421.135664
0.494512	41733.898601
3.109108	39517.643357
5.720822	33814.459441
8.333963	24824.660140
10.942071	13358.529371
13.553761	2514.939161
16.160420	-2775.379021
18.768507	-4413.034965
21.375870	-1514.793706
23.978208	211.318182
26.584124	216.511189
29.185019	201.832168
31.787341	184.131469
34.384645	164.018182
36.985525	149.784615
39.581391	140.804196
42.178684	134.239161
44.775258	128.678322
47.366823	123.582517
49.959816	119.168531
52.549948	109.975524
55.141508	108.790210
57.730208	105.060140
60.320336	104.027273
62.905464	97.909790
65.492020	97.081119
68.077861	92.618881
70.660849	91.174126
73.245264	92.492308
75.822549	89.788811
78.403401	91.662238
80.981404	93.078322
83.558697	97.155245
86.137416	100.838462
88.711154	100.279720
91.286318	99.259441
93.858639	98.825874
96.430253	100.900699
98.999026	98.395105
101.569226	99.420979
104.136587	101.979021
106.705375	105.344755
109.271325	109.267133
111.834441	116.684615
114.401114	128.458741
116.958564	137.050350
119.521700	157.176224
122.079877	188.482517
124.641607	244.669231
127.198382	351.523077
129.756582	504.799301
132.309830	710.410490
134.862379	960.793706
137.418480	1244.625175
139.969632	1540.536364
142.520086	1840.560839
145.069844	2120.031469
147.616782	2358.379720
150.163024	2540.207692
152.710693	2654.352448
155.257665	2708.484615
157.799701	2733.441259
160.341044	2717.062238
162.881695	2685.485315
165.423770	2639.979720
167.963035	2594.418881
170.499490	2561.574825
173.035255	2544.444755
175.572445	2546.902098
178.108943	2566.095105
180.642636	2591.118881
183.173526	2626.979021
185.703727	2661.432168
188.235353	2709.756643
190.764179	2752.039161
193.290205	2794.126573
195.815545	2826.934965
198.342310	2857.182517
200.866279	2875.398601
203.389562	2886.054545
205.912161	2884.735664
208.431967	2886.153147
210.951090	2887.999301
213.469530	2891.106294
215.989394	2889.730070
218.502257	2888.518182
221.018651	2875.041259
223.534364	2856.331469
226.045186	2839.828671
228.557433	2825.223077
231.066897	2804.693706
233.575683	2789.163636
236.083791	2769.122378
238.593323	2766.486713
241.097974	2765.613287
243.601949	2756.518881
246.107348	2749.035664
248.607872	2765.437063
251.111919	2956.486713
253.608996	3482.743357
256.109595	4311.444755
258.607423	5192.263636
261.104578	5919.169231
263.601060	6395.046853
266.092680	6579.924476
268.587818	6460.777622
271.080191	6037.251748
273.571893	5382.646154
276.060832	4596.158042
278.551194	3838.601399
281.038795	3324.017483
283.523636	3123.658741
286.011991	3106.074825
288.493408	3079.262238
290.978338	2994.702797
293.458422	2876.258741
295.942019	2737.499301
298.420774	2590.726573
300.900951	2462.858741
303.378377	2386.492308
305.855139	2374.865035
308.331237	2434.325874
310.804587	2548.215385
313.277276	2670.546154
315.749303	2781.318881
318.220668	2876.183916
320.689290	2936.822378
323.157252	2965.155245
325.626637	2942.552448
328.091199	2889.921678
330.559264	2806.969930
333.022510	2710.665734
335.485099	2628.913287
337.947030	2578.302098
340.408305	2560.707692
342.866846	2550.914685
345.326809	2540.655944
347.784040	2538.490210
350.240616	2531.092308
352.696537	2526.229371
355.149730	2515.574126
357.604345	2507.142657
360.054158	2494.350350
362.507467	2480.960839
364.955977	2463.327972
367.403837	2450.721678
369.853118	2433.116783
372.297606	2411.375524
374.743516	2392.067133
377.188777	2370.581818
379.631319	2347.735664
382.073213	2333.300699
384.514459	2320.074126
386.952990	2308.514685
389.392943	2302.779720
391.830182	2296.449650
394.264709	2293.596503
396.702724	2300.819580
399.135962	2300.060839
401.570622	2304.841259
404.000509	2307.073427
406.433881	2313.728671
408.862482	2317.810490
411.290443	2329.818182
413.719824	2332.716084
416.144441	2337.741958
418.570478	2340.064336
420.995876	2337.706993
423.420633	2335.969231
425.840631	2340.043357
428.262051	2335.586713
430.680774	2344.046853
433.100918	2347.366434
435.518367	2361.163636
437.937236	2365.900000
440.353412	2374.089510
442.764841	2376.766434
445.179746	2378.533566
447.591961	2375.345455
450.003542	2366.439860
452.414489	2352.460839
454.822750	2341.254545
457.230379	2321.195804
459.637375	2309.435664
462.043739	2290.341958
464.447422	2271.467832
466.850474	2253.224476
469.252896	2234.931469
471.654688	2226.438462
474.053802	2220.327972
476.454336	2222.728671
478.854241	2229.654545
481.249423	2237.821678
483.648072	2248.515385
486.042001	2245.526573
488.435304	2244.824476
490.827981	2232.824476
493.220033	2206.795804
495.613504	2171.543357
498.002262	2122.386014
500.388354	2065.253846
502.775866	1996.792308
505.162754	1936.442657
507.546979	1875.237762
509.932623	1818.264336
512.315604	1759.436364
514.695925	1708.815385
517.077665	1671.925175
519.456746	1647.045455
521.837246	1630.550350
524.215088	1618.330769
526.590275	1601.945455
528.964844	1582.877622
531.340832	1560.028671
533.714166	1536.497203
536.088919	1504.743357
538.458985	1473.658741
540.828436	1434.836364
543.199306	1401.950350
545.565494	1374.743357
547.933101	1353.734965
550.298062	1339.382517
552.662410	1329.446154
555.026146	1324.390210
557.391299	1322.167832
559.751780	1322.062238
562.113678	1317.662937
564.472937	1315.704196
566.829557	1308.782517
569.189623	1300.037063
571.542997	1284.920280
573.899816	1271.228671
576.254000	1247.011888
578.607575	1236.241259
580.960542	1226.585315
583.310878	1214.806993
585.662630	1206.903497
588.007706	1204.997203
590.358246	1209.572028
592.702113	1216.709790
595.051441	1214.870629
597.396120	1219.178322
599.738175	1214.753846
602.081647	1213.584615
604.422496	1212.613986
606.762742	1211.891608
609.100368	1202.798601
611.441429	1194.238462
613.777853	1187.923776
616.115693	1177.108392
618.450915	1170.831469
620.783522	1159.783916
623.117546	1147.391608
625.448955	1136.653147
627.779766	1127.951748
630.109979	1127.293007
632.439595	1124.420280
634.764587	1115.769930
637.095021	1107.657343
639.420833	1107.235664
641.744039	1104.453846
644.068661	1098.986713
646.390677	1095.913287
648.712099	1093.835664
651.030918	1087.064336
653.351153	1085.162937
655.670795	1086.090909
657.987836	1088.830070
660.304286	1084.090210
662.618137	1078.539161
664.933403	1073.523776
667.246073	1070.490210
669.560158	1064.522378
671.869644	1061.523077
674.180544	1052.644755
676.488852	1042.052448
678.796572	1032.052448
681.105707	1032.011888
683.410249	1022.581818
685.714205	1021.457343
688.017574	1004.758042
690.322358	998.903497
692.622556	991.560140
694.924169	981.644056
697.225196	972.342657
699.521642	965.388811
701.819502	952.446154
704.116780	947.018881
706.413473	946.422378
708.705591	944.853846
711.001120	934.632867
713.292076	933.021678
715.584446	921.627273
717.874240	925.608392
720.163455	921.424476
722.452089	922.943357
724.738152	923.349650
727.025628	924.644755
729.310534	926.853147
731.594861	929.746154
733.876621	927.107692
736.159794	926.512587
738.442390	916.980420
740.720430	914.579021
742.999884	910.869930
745.278763	905.611888
747.557066	899.283217
749.830820	902.053846
752.105988	905.006993
754.380582	905.277622
756.652617	898.421678
758.926065	896.295804
761.196955	894.357343
763.465288	900.652448
765.735036	898.588112
768.002228	904.045455
770.268850	912.336364
772.534903	915.184615
774.798404	925.227273
777.063317	937.251049
779.327662	946.741259
781.587476	943.641259
783.848704	934.754545
786.109364	936.100000
788.367477	938.577622
790.623046	938.858741
792.882006	934.443357
795.134467	932.263636
797.392295	937.040559
799.645604	937.900000
801.896372	936.335664
804.148553	940.406993
806.398196	932.925175
808.649250	917.360140
810.895793	899.886014
813.143749	888.272727
815.389169	872.002098
817.636002	857.532867
819.882272	841.368531
822.124039	832.842657
824.369188	832.263636
826.607865	833.183217
828.849925	824.915385
831.087486	831.493706
833.326458	824.344755
835.562904	829.267832
837.800762	827.977622
840.036094	831.297203
842.268902	836.276923
844.503122	838.086014
846.734820	837.453846
848.965963	835.245455
851.196551	826.311888
853.426585	820.765035
855.656064	801.923776
857.881063	793.632867
860.109435	778.314685
862.333329	785.930769
864.558633	773.260839
866.779462	775.512587
869.003663	775.620979
871.223391	778.223776
873.444530	785.794406
875.665118	782.592308
877.883197	785.592308
880.102685	791.062238
882.317707	794.693706
884.532181	798.062937
886.746108	809.641259
888.959487	817.437762
891.172320	806.658741
893.384605	798.740559
895.594389	766.740559
897.803627	763.207692
900.012319	761.206993
902.218513	765.632867
904.426116	772.452448
906.631222	797.737762
908.835784	817.168531
911.037851	836.507692
913.241327	861.839860
915.442309	846.582517
917.642749	834.483916
919.844598	814.451049
922.040056	782.632168
924.238872	780.227273
926.433251	780.654545
928.630987	791.283217
930.824287	787.766434
933.018995	810.895804
935.211218	831.571329
937.402903	854.300699
939.594050	843.574126
941.782714	834.320280
943.970841	842.693706
946.156488	845.900000
948.345487	860.130070
950.530063	867.762238
952.714104	875.887413
954.901495	897.484615
957.080583	906.995105
959.263020	949.725175
961.444924	969.011888
963.624354	973.746853
965.801311	966.581119
967.979676	998.460140
970.159447	1001.811189
972.332870	1025.062238
974.509639	1032.212587
976.682002	1024.421678
978.855771	1029.654545
981.025138	1051.824476
983.197848	1058.555944
985.368092	1081.521678
987.537808	1062.802098
989.706995	1078.730769
991.871785	1060.193706
994.039917	1062.239161
996.203653	1042.462238
998.368797	1027.553846
1000.531481	965.704196
1002.693640	909.686014
1004.853341	843.109091
1007.012519	815.336364
1009.173103	741.104196
1011.331232	651.916783
1013.488837	534.298601
1015.645919	430.504895
1017.802478	297.673427
1019.954657	208.628671
1022.108243	123.837063
1024.261306	50.239860
1026.411922	-5.642657
1028.563943	-33.331469
1030.711591	-35.883916
1032.862571	5.583916
1035.009181	4.716084
1037.155271	5.583916
1039.300843	4.716084
1041.447819	5.583916
1043.588508	4.716084
1045.732525	5.583916
1047.874103	4.716084
1050.015163	5.583916
1052.157628	4.716084
1054.293814	5.583916
1056.433326	4.716084
1058.568482	5.583916
1060.706963	4.716084
1062.841091	5.583916
1064.974705	4.716084
1067.109723	5.583916
1069.240392	4.716084
1071.372467	5.583916
1073.502111	4.716084
1075.631244	5.583916
1077.759866	4.716084
1079.887976	5.583916
1082.013660	-4.530070
1084.138834	-39.762238
1086.265411	-26.049650
1088.387652	21.349650
1090.511297	71.225874
1092.630607	145.925874
1094.755146	249.667133
1096.873441	330.710490
1098.993139	425.367832
1101.110419	509.539161
1103.227193	573.176224
1105.343460	648.003497
1107.457312	676.866434
1109.572567	724.623077
1111.683500	833.660839
1113.797744	884.214685
1115.907669	933.267133
1118.018996	993.093007
1120.129820	1037.417483
1122.236327	1041.386713
1124.346143	1041.660140
1126.451645	1021.718182
1128.558551	1008.230769
1130.659240	1001.998601
1132.765142	988.187413
1134.866735	1004.151748
1136.969731	1012.731469
1139.072226	959.560839
1141.168515	966.663636
1143.270010	970.093007
1145.367203	952.286014
1147.463897	926.769930
1149.560094	928.255944
1151.655792	932.953147
1153.750993	947.850350
1155.843797	940.329371
1157.938003	943.169231
1160.026018	943.084615
1162.119231	942.281119
1164.206256	953.858741
1166.296581	965.918182
1168.382617	962.000699
1170.471951	936.460140
1172.555104	915.283916
1174.639660	939.888112
1176.725616	930.325874
1178.807291	937.005594
1180.890368	905.213287
1182.971059	902.611888
1185.051259	905.594406
1187.130967	907.334965
1189.210183	918.143357
1191.287018	903.078322
1193.361472	899.054545
1195.439218	900.914685
1197.512693	895.174825
1199.587570	900.483916
1201.658179	887.799301
1203.730189	885.282517
1205.799823	861.189510
1207.870858	866.465734
1209.941405	862.565035
1212.007691	843.463636
1214.075378	823.244056
1216.140693	808.876224
1218.207408	799.500000
1220.269867	799.225175
1222.335612	793.314685
1224.397102	782.480420
1226.459992	779.820280
1228.520515	780.037762
1230.580555	763.608392
1232.640111	750.561538
1234.697303	741.057343
1236.754012	732.912587
1238.808359	725.241259
1240.865986	714.752448
1242.921251	715.443357
1244.972275	712.865035
1247.024699	721.525175
1249.076644	733.230070
1251.126230	766.111189
1253.175337	781.583217
1255.223965	785.097902
1257.272115	786.364336
1259.319787	791.613287
1261.363228	788.676923
1263.409944	774.651748
1265.454308	759.369231
1267.498194	749.891608
1269.539730	727.311189
1271.578916	724.603497
1273.621374	734.315385
1275.659611	752.700000
1277.699245	766.195105
1279.738405	789.956643
1281.773347	788.997203
1283.809687	776.643357
1285.843682	771.665035
1287.879076	764.379720
1289.910256	771.909790
1291.942835	774.740559
1293.974941	776.160839
1296.004707	783.092308
1298.035871	780.173427
1300.062827	783.701399
1302.091181	793.148951
1304.115331	790.080420
1306.142746	783.000699
1308.165958	764.674825
1310.190568	762.876923
1312.212843	758.301399
1314.236516	766.921678
1316.257856	762.148951
1318.278729	743.336364
1320.299134	739.348252
1322.315345	721.778322
1324.332955	707.913986
1326.348236	706.033566
1328.366776	701.599301
1330.381126	718.711888
1332.393151	709.851049
1334.408434	698.665734
1336.419531	717.886713
1338.432024	726.030769
1340.440335	732.865035
1342.451902	731.148252
1344.457430	742.376923
1346.466212	726.613986
1348.470818	733.102797
1350.478677	727.153147
1352.486073	736.623776
1354.487439	728.000000
1356.490202	709.251748
1358.492505	693.356643
1360.494347	696.186713
1362.495731	695.888811
1364.494800	702.910490
1366.493411	714.241259
1368.491564	708.549650
1370.489259	711.255245
1372.482790	741.055944
1374.477718	737.230769
1376.472189	758.316783
1378.466203	763.219580
1380.457910	749.471329
1382.449161	739.416783
1384.438107	727.081818
1386.428448	727.183916
1388.418334	720.934965
1390.405917	714.413986
1392.393046	702.206294
1394.377873	694.888811
1396.364095	710.542657
1398.348016	702.269930
1400.331485	701.769930
1402.314502	691.374126
1404.295221	671.862238
1406.277334	677.695105
1408.257150	674.685315
1410.236516	675.188112
1412.211743	676.347552
1414.190208	666.138462
1416.166380	671.058042
1418.142102	666.607692
1420.117375	672.314685
1422.090357	679.768531
1424.062892	687.674126
1426.034978	713.461538
1428.006616	738.508392
1429.974127	743.903497
1431.946711	743.504196
1433.911489	749.527273
1435.881340	738.534266
1437.847066	721.912587
1439.814186	728.457343
1441.779022	708.909091
1443.739738	701.145455
1445.705522	700.923077
1447.665351	723.460839
1449.626573	743.984615
1451.589188	753.922378
1453.547688	742.988112
1455.505746	756.237063
1457.463361	761.814685
1459.420535	752.232168
1461.375433	742.214685
1463.331723	744.558042
1465.285739	752.648252
1467.239315	758.851049
1469.190618	761.824476
1471.143313	774.050350
1473.093737	770.112587
1475.043722	786.540559
1476.993267	797.579021
1478.940544	832.632168
1480.885554	841.567133
1482.831956	833.141259
1484.777920	815.697203
1486.723446	823.432867
1488.666708	838.011888
1490.609533	814.708392
1492.550095	788.519580
1494.492048	759.693007
1496.431740	741.093007
1498.370996	723.516783
1500.309818	739.954545
1502.246380	748.879021
1504.184332	748.056643
1506.120027	744.684615
1508.055288	757.658741
1509.988292	789.805594
1511.920864	788.551049
1513.853004	774.748951
1515.784712	773.491608
1517.714167	766.760839
1519.645011	751.498601
1521.575425	742.003497
1523.501766	761.122378
1525.429497	767.990210
1527.354978	778.626573
1529.280030	795.502098
1531.204653	816.472727
1533.128847	825.497902
1535.050794	806.301399
1536.974130	812.090909
1538.895221	813.325175
1540.814067	816.057343
1542.734303	825.534965
1544.652295	842.534266
1546.569861	862.017483
1548.485185	878.330070
1550.401899	891.563636
1552.314558	927.652448
1554.230421	929.667133
1556.144045	915.028671
1558.055430	895.553846
1559.968204	865.818182
1561.876929	859.133566
1563.787044	869.878322
1565.696735	863.974825
1567.606002	841.807692
1569.513036	808.784615
1571.417837	806.740559
1573.324027	786.789510
1575.227985	808.117483
1577.131523	791.767832
1579.034639	770.832168
1580.935527	765.662937
1582.837803	757.491608
1584.737850	784.181818
1586.639286	807.651049
1588.536687	784.839161
1590.433671	776.754545
1592.330236	778.095804
1594.228188	779.167832
1596.120306	759.652448
1598.015618	764.518182
1599.910511	745.986014
1601.803183	743.460140
1603.695439	759.579720
1605.585475	773.460140
1607.475095	788.497203
1609.364300	800.279720
1611.253089	802.884615
1613.139662	831.691608
1615.027621	838.824476
1616.911565	836.107692
1618.796895	841.883916
1620.681812	851.733566
1622.564515	835.519580
1624.448604	844.541958
1626.328683	849.248252
1628.210148	848.534965
1630.089403	836.436364
1631.970044	818.975524
1633.844881	810.606294
1635.724700	763.386014
1637.600513	760.774126
1639.475917	752.404196
1641.352706	757.951748
1643.223698	771.494406
1645.097872	770.410490
1646.968048	780.620979
1648.841404	807.374825
1650.712557	800.806294
1652.581508	796.187413
1654.451845	774.904895
1656.318188	765.299301
1658.185918	708.469231
1660.051448	705.525874
1661.918363	696.419580
1663.781290	682.472727
1665.645602	644.340559
1667.507719	615.175524
1669.369430	585.962238
1671.232526	575.541259
1673.093428	536.351049
1674.952136	511.906993
1676.810441	473.507692
1678.670131	465.906993
1680.524054	427.969930
1682.381149	426.464336
1684.237842	440.661538
1686.090559	439.420280
1687.946447	411.999301
1689.798361	377.926573
1691.649873	334.494406
1693.500986	274.068531
1695.351697	209.678322
1697.202008	143.567133
1699.050135	78.230769
1700.899645	34.850350
1702.743407	-5.606294
1704.592119	-23.012587
1706.435084	-16.523776
1708.281215	4.346853
1710.123385	5.583916
1711.968719	4.716084
1713.808313	5.583916
1715.649291	4.716084
1717.491652	5.583916
1719.330057	4.716084
1721.169845	5.583916
1723.007458	4.716084
1724.844675	5.583916
1726.679719	4.716084
1728.516146	5.583916
1730.350401	4.716084
1732.184262	5.583916
1734.017728	4.716084
1735.847248	5.583916
1737.679927	4.716084
1739.508662	5.583916
1741.340555	4.716084
1743.168505	5.583916
1744.996063	4.716084
1746.823230	5.583916
1748.650004	4.716084
1750.476388	5.583916
1752.298835	4.716084
1754.124436	5.583916
1755.946103	4.716084
1757.769152	5.583916
1759.590040	4.716084
1761.410538	5.583916
1763.232418	4.716084
1765.048598	5.583916
1766.867930	4.716084
1768.683335	5.583916
1770.501891	4.716084
1772.316521	5.583916
1774.130764	4.716084
1775.944621	5.583916
1777.758091	4.716084
1779.569407	5.583916
1781.382105	1.400699
1783.194416	-20.116084
1785.002810	-14.855944
1786.812585	3.787413
1788.618444	31.706294
1790.427450	86.791608
1792.232542	155.424476
1794.039014	215.999301
1795.845103	274.634965
1797.647282	334.609790
1799.452604	377.107692
1801.254018	402.755245
1803.056812	423.426573
1804.855701	411.227273
1806.655969	439.156643
1808.455857	443.367832
1810.253602	466.606294
1812.050967	505.101399
1813.847951	542.169231
1815.644555	568.268531
1817.439020	586.778322
1819.234865	601.896503
1821.025054	618.802098
1822.820140	632.312587
1824.609573	651.839860
1826.402144	665.171329
1828.192579	666.530070
1829.980879	663.851049
1831.772315	697.889510
1833.558105	750.355245
1835.345275	767.523776
1837.130313	809.481818
1838.918485	819.227273
1840.702771	838.838462
1842.484928	842.534266
1844.268463	850.844056
1846.049871	858.085315
1847.832656	834.823077
1849.611562	816.265035
1851.391846	855.155944
1853.170005	893.753147
1854.949541	958.755944
1856.726953	980.200699
1858.502241	1038.078322
1860.278908	1058.379021
1862.053452	1058.565035
1863.829373	1001.995804
1865.599675	973.601399
1867.373104	936.972028
1869.144413	907.047552
1870.915351	880.300699
1872.687666	878.886713
1874.454369	875.262238
1876.224196	900.248252
1877.990160	915.328671
1879.759248	945.920280
1881.524474	975.979021
1883.289332	974.144056
1885.055566	954.709091
1886.817942	957.867832
1888.579951	965.424476
1890.341593	968.788112
1892.102867	943.200699
1893.863775	923.274126
1895.624315	931.185315
1897.382746	919.079021
1899.140812	922.177622
1900.896770	926.525175
1902.654104	926.782517
1904.411072	931.598601
1906.165935	901.578322
1907.918692	888.398601
1909.671086	879.392308
1911.424856	861.604196
1913.176522	862.234965
1914.926085	848.940559
1916.677025	883.845455
1918.427601	905.635664
1920.174339	926.965035
1921.922452	937.608392
1923.668466	923.445455
1925.415856	945.793706
1927.161147	931.690909
1928.904341	938.125175
1930.648911	930.713986
1932.391384	924.211888
1934.133497	919.547552
1935.875251	907.959790
1937.616644	908.523776
1939.355944	915.026923
1941.094885	872.975524
1942.833467	852.509441
1944.569957	826.511189
1946.306090	850.547902
1948.043597	846.395804
1949.777283	845.999650
1951.512343	858.832867
1953.245314	879.736014
1954.977929	884.671329
1956.710187	893.335315
1958.442089	903.813986
1960.171905	903.865035
1961.899637	886.920979
1963.628742	894.098601
1965.357493	895.123776
1967.084160	912.218182
1968.810473	887.656643
1970.538159	871.430070
1972.260309	873.645455
1973.985561	878.797902
1975.707005	869.094406
1977.431549	877.272028
1979.154014	889.667133
1980.872675	897.129371
1982.594435	915.295105
1984.312393	911.488112
1986.031725	914.470629
1987.747256	923.485315
1989.467609	913.943357
1991.184162	907.675524
1992.896920	922.186014
1994.612773	936.149650
1996.326554	943.562937
1998.039984	970.757343
1999.751344	987.224476
2001.464077	993.930769
2003.173018	993.038462
2004.885053	995.125175
2006.591578	998.065035
2008.301196	1000.005594
2010.008746	984.938462
2011.715949	965.286713
2013.421086	962.481818
2015.125876	987.377622
2016.832038	971.013986
2018.534418	980.685315
2020.238170	967.868531
2021.939859	947.204196
2023.641202	939.669231
2025.342200	949.086713
2027.041138	948.212587
2028.741447	946.578322
2030.437980	943.100000
2032.135885	944.023077
2033.831732	960.941259
2035.530664	997.960140
2037.224110	974.048951
2038.918927	993.934266
2040.613401	985.574126
2042.304107	977.830769
2043.997897	974.207692
2045.687920	972.000699
2047.379314	972.353846
2049.068655	972.073427
2050.759366	965.118881
2052.446315	967.608392
2054.132923	971.239860
2055.820902	984.658042
2057.505121	947.758741
2059.190710	932.548252
2060.875960	921.788811
2062.559162	906.483916
2064.243734	892.660839
2065.922842	893.402797
2067.606736	907.805594
2069.285170	917.466434
2070.966681	932.195804
2072.644440	973.433566
2074.321863	994.935664
2076.000655	1011.376224
2077.677404	998.225874
2079.352112	1000.299301
2081.028189	1013.562238
2082.702226	991.613986
2084.375927	988.280420
2086.049293	986.379021
2087.720621	981.641958
2089.391614	964.647552
2091.062273	964.448252
2092.732598	959.358741
2094.402588	956.923077
2096.070543	960.779720
2097.738165	975.579021
2099.403753	984.785315
2101.070709	1003.644755
2102.735632	999.897902
2104.400222	1029.034266
2106.062781	1039.860140
2107.726709	1036.722378
2109.388605	1034.370629
2111.050170	1029.820979
2112.711405	1001.794406
2114.370610	992.953846
2116.029486	987.986014
2117.688031	981.990909
2119.346247	996.466434
2121.000739	1002.979021
2122.658297	1006.352448
2124.315524	1017.385315
2125.969031	1030.572727
2127.623905	1016.868531
2129.275060	1016.762937
2130.929278	1015.406294
2132.579778	989.393007
2134.231646	982.683916
2135.878105	992.560140
2137.529318	996.029371
2139.176818	1010.450350
2140.825686	1003.567133
2142.472534	1008.984615
2144.119056	991.222378
2145.765254	990.816084
2147.407742	957.799301
2149.053289	955.706993
2150.695129	962.625874
2152.340026	964.640559
2153.981218	979.440559
2155.622086	1017.729371
2157.262631	1013.221678
2158.901163	1016.807692
2160.541061	1025.686014
2162.177259	1027.722378
2163.814823	1011.799301
2165.452065	1019.413986
2167.087297	1000.452448
2168.722207	1003.366434
2170.356796	1021.365035
2171.991064	1026.314685
2173.621638	1040.017483
2175.255263	1057.135664
2176.885197	1048.072028
2178.516496	1052.398601
2180.145791	1042.597902
2181.774765	1051.104895
2183.403421	1050.941259
2185.031757	1066.481818
2186.658090	1074.465035
2188.284105	1093.039860
2189.908119	1103.752448
2191.533498	1106.381818
2193.156876	1115.148252
2194.781619	1124.438462
2196.402680	1107.509790
2198.023426	1074.709091
2199.645535	1059.465035
2201.265647	1074.104196
2202.883763	1050.334965
2204.501563	1067.715385
2206.119047	1066.024476
2207.736216	1066.024476
2209.353070	1060.827972
2210.969609	1041.704895
2212.584154	1028.668531
2214.196707	1037.111189
2215.810625	1019.510490
2217.422550	1012.255245
2219.035840	1036.835664
2220.647138	1076.759441
2222.256448	1092.247552
2223.867120	1124.252448
2225.475804	1133.020979
2227.084176	1148.153147
2228.690560	1129.349650
2230.298308	1099.319580
2231.904069	1103.187413
2233.509519	1125.422378
2235.112985	1101.105594
2236.717813	1081.531469
2238.320657	1069.938462
2239.921518	1071.759441
2241.523742	1060.747552
2243.123983	1055.965035
2244.725588	1055.223776
2246.323539	1071.144755
2247.922853	1080.630769
2249.520187	1114.529371
2251.117213	1144.456643
2252.715600	1158.348951
2254.310339	1145.477622
2255.903102	1146.265734
2257.497226	1122.330070
2259.092712	1102.970629
2260.684554	1095.171329
2262.276089	1106.021678
2263.868985	1104.889510
2265.456572	1129.361538
2267.048856	1129.181818
2268.635832	1137.169231
2270.225837	1131.811888
2271.810537	1120.181818
2273.399931	1138.567133
2274.984022	1140.326573
2276.569475	1142.370629
2278.152959	1138.281119
2279.739468	1159.041259
2281.322344	1171.100699
2282.904916	1144.224126
2284.487186	1115.306993
2286.065825	1081.787762
2287.647488	1086.449650
2289.225524	1054.084266
2290.806582	1042.706993
2292.384013	1044.773077
2293.959481	1022.045455
2295.537971	1010.650000
2297.112836	986.007692
2298.687401	1000.415734
2300.261666	986.236364
2301.835630	998.912937
2303.409294	994.186014
2304.982657	1024.569930
2306.552402	1050.742657
2308.121848	1034.001399
2309.694313	1036.942657
2311.261503	1033.644056
2312.831710	1012.465035
2314.398303	1000.727972
2315.966256	1010.462937
2317.532254	1034.349650
2319.097954	1054.159441
2320.663356	1111.574825
2322.226805	1155.965035
2323.791613	1216.691608
2325.352812	1236.009790
2326.917026	1231.111888
2328.475979	1213.469930
2330.037945	1170.801399
2331.597961	1124.270629
2333.157681	1067.806294
2334.715452	1023.469930
2336.272929	975.461538
2337.830110	921.031469
2339.385345	898.576224
2340.940285	881.299301
2342.494932	840.954545
2344.049285	821.176923
2345.603344	801.763636
2347.157110	798.479021
2348.708931	761.534266
2350.258809	758.214685
2351.811695	747.139860
2353.359339	749.301399
2354.909990	771.385315
2356.457051	770.306294
2358.005469	779.465734
2359.553595	761.896503
2361.098134	740.207692
2362.644030	737.318182
2364.187987	731.898601
2365.733302	700.802098
2367.275032	662.380420
2368.818120	662.334266
2370.359271	653.018182
2371.900133	663.755245
2373.440706	684.431469
2374.980990	685.801399
2376.520985	680.484615
2378.057401	664.305594
2379.596819	647.978322
2381.132660	618.184615
2382.669857	596.848951
2384.203480	579.425874
2385.740102	568.489510
2387.274793	574.161538
2388.807555	572.886014
2390.340031	583.850350
2391.870578	589.000000
2393.404123	580.704196
2394.932457	574.090909
2396.462147	576.797902
2397.991552	564.934266
2399.520672	552.974825
2401.049506	534.047552
2402.573136	542.016084
2404.101401	507.881119
2405.624463	495.671329
2407.152160	488.276923
2408.673016	484.904895
2410.198506	490.720280
2411.720436	485.717483
2413.243720	507.995804
2414.765084	537.090210
2416.284528	537.069930
2417.805327	553.553846
2419.324207	551.100000
2420.842805	558.803497
2422.359486	540.888811
2423.877522	518.955245
2425.395276	502.981818
2426.909478	503.942657
2428.423400	491.849650
2429.937043	486.245455
2431.452039	495.474126
2432.963487	516.345455
2434.476290	499.918881
2435.987180	520.062238
2437.497790	519.031469
2439.006489	520.627972
2440.518175	511.429371
2442.026317	505.773427
2443.534180	509.013287
2445.041766	529.546853
2446.545812	540.891608
2448.052842	545.708392
2449.557964	563.437063
2451.062809	590.591608
2452.565747	593.404895
2454.068408	622.098601
2455.570793	641.629371
2457.071273	653.519580
2458.573106	640.374825
2460.073035	653.361538
2461.572688	663.055944
2463.072066	666.611888
2464.569541	679.604895
2466.065114	664.602098
2467.563667	683.730070
2469.058691	686.343357
2470.555069	685.605594
2472.047920	700.584615
2473.542123	705.362238
2475.036053	709.554545
2476.526460	703.805594
2478.019844	741.713287
2479.511329	747.345455
2481.000918	758.532867
2482.490236	791.584615
2483.977657	806.083217
2485.468054	828.432867
2486.954932	821.283916
2488.443162	817.628671
2489.927876	827.240559
2491.412319	805.356643
2492.898114	822.167133
2494.382016	806.131469
2495.867270	795.087413
2497.347390	770.800699
2498.830482	766.234266
2500.311684	767.106294
2501.792617	785.344056
2503.271661	775.889510
2504.750437	780.467133
2506.228944	799.730070
2507.707182	814.529371
2509.185152	814.498601
2510.659618	828.398601
2512.137052	834.948252
2513.610983	850.441958
2515.086265	867.804895
2516.561279	880.937762
2518.032792	915.111888
2519.505656	938.813986
2520.976637	916.529371
2522.448967	938.434266
2523.916185	939.660839
2525.386369	945.036364
2526.854671	939.599301
2528.322709	941.739161
2529.790482	944.021678
2531.257990	965.435664
2532.725233	993.878322
2534.188985	1015.824476
2535.654086	1049.370629
2537.117310	1071.085315
2538.581883	1091.913986
2540.042967	1076.856643
2541.505402	1070.240559
2542.967573	1070.819580
2544.426257	1037.871329
2545.889514	1017.013287
2547.347674	988.363636
2548.807183	1017.273427
2550.261599	1031.691608
2551.720585	1046.837063
2553.177698	1056.217483
2554.632941	1066.610490
2556.087923	1081.678322
2557.541035	1063.856643
2558.995496	1078.649650
2560.448088	1083.759441
2561.900420	1080.983217
2563.350884	1108.426573
2564.804304	1140.500699
2566.252642	1189.946853
2567.703936	1206.509091
2569.153363	1205.665734
2570.599319	1177.758741
2572.048229	1160.572727
2573.493668	1175.093007
2574.940456	1167.311189
2576.385380	1135.883916
2577.830047	1138.602098
2579.276061	1138.990909
2580.718608	1172.018881
2582.162503	1201.595105
2583.602933	1232.239860
2585.044711	1256.086014
2586.484629	1247.328671
2587.925894	1311.076923
2589.363697	1348.201399
2590.804450	1367.238462
2592.240140	1348.728671
2593.678780	1330.728671
2595.115563	1324.334965
2596.550489	1293.783916
2597.988364	1272.170629
2599.421181	1244.320979
2600.855345	1225.499301
2602.287654	1187.945455
2603.721310	1178.701399
2605.153113	1236.250350
2606.584663	1280.297902
2608.015959	1292.848951
2609.445404	1286.674126
2610.874596	1288.558741
2612.301937	1264.748951
2613.730625	1246.688811
2615.159060	1241.342657
2616.584049	1250.091608
2618.010383	1243.286014
2619.434869	1229.586014
2620.860701	1252.119580
2622.283089	1291.657343
2623.706823	1360.752448
2625.128711	1371.438462
2626.550348	1371.683916
2627.970140	1377.400000
2629.391278	1328.234965
2630.812166	1317.869231
2632.229616	1316.164336
2633.650005	1327.171329
2635.066957	1302.425175
2636.483661	1299.402098
2637.900116	1288.107692
2639.316323	1314.994406
2640.732281	1319.753846
2642.146399	1339.096503
2643.560270	1347.339161
2644.972301	1349.316084
2646.385677	1312.631469
2647.795623	1321.982517
2649.208505	1306.510490
2650.617958	1323.239860
2652.027165	1304.395804
2653.434536	1290.047552
2654.844841	1293.690909
2656.253310	1312.567133
2657.659944	1298.148252
2659.066333	1315.206294
2660.470888	1338.641259
2661.876787	1357.867133
2663.280853	1371.740559
2664.684675	1390.528671
2666.088252	1378.309790
2667.489997	1404.120979
2668.893086	1395.144755
2670.292758	1399.186713
2671.693773	1430.423077
2673.091371	1413.333566
2674.491900	1409.252448
2675.889014	1409.701399
2677.287471	1415.007692
2678.684100	1393.231469
2680.080488	1387.222378
2681.476633	1369.900000
2682.870952	1353.203497
2684.266614	1369.032867
2685.658866	1383.306993
2687.052462	1389.072727
2688.444233	1397.679720
2689.837346	1375.186014
2691.228636	1370.839161
2692.618103	1348.852448
2694.007331	1342.855944
2695.396318	1322.728671
2696.786648	1308.102797
2698.171993	1304.537762
2699.560263	1323.941958
2700.946712	1347.625874
2702.332922	1381.710490
2703.718893	1413.251049
2705.101466	1445.493706
2706.485380	1442.027273
2707.869057	1476.311888
2709.252496	1468.427273
2710.632539	1474.155944
2712.013924	1448.501399
2713.393493	1420.888112
2714.774404	1400.710490
2716.153500	1391.528671
2717.530781	1383.433566
2718.909404	1403.539161
2720.286214	1427.216783
2721.662788	1442.662937
2723.039126	1460.261538
2724.413652	1509.510490
2725.789519	1496.102797
2727.161999	1517.279720
2728.537396	1505.440559
2729.907831	1501.872028
2731.279608	1508.051049
2732.651151	1481.301399
2734.020885	1459.909790
2735.391959	1435.954545
2736.761226	1408.503497
2738.130259	1394.768531
2739.497485	1431.016783
2740.864479	1450.737063
2742.231240	1456.117483
2743.597768	1484.588112
2744.962492	1484.846154
2746.326983	1511.133566
2747.691242	1496.474825
2749.055270	1462.172727
2750.419065	1458.308392
2751.779487	1398.036364
2753.142820	1356.141259
2754.501210	1350.337063
2755.862510	1352.268531
2757.220439	1356.714685
2758.581278	1346.076224
2759.940316	1362.338462
2761.295986	1364.220979
2762.654565	1385.646853
2764.009776	1407.004895
2765.364758	1464.223776
2766.717943	1484.773427
2768.074035	1477.555245
2769.426763	1462.184615
2770.779262	1474.805594
2772.131533	1460.819580
2773.485143	1495.916783
2774.835391	1488.546154
2776.183846	1513.602098
2777.535205	1535.463636
2778.883205	1559.716783
2780.232544	1559.940559
2781.580090	1566.990909
2782.927409	1566.953846
2784.274502	1539.832867
2785.619804	1488.767133
2786.964880	1503.490909
2788.309730	1532.593007
2789.654354	1558.854545
2790.995625	1575.879021
2792.338235	1560.938462
2793.680620	1559.176224
2795.022779	1537.293706
2796.361589	1522.924476
2797.703299	1511.132168
2799.041660	1497.690210
2800.381359	1474.703497
2801.719272	1459.886014
2803.055401	1501.614685
2804.391307	1543.255944
2805.728549	1552.500000
2807.064008	1561.386713
2808.399244	1544.834965
2809.732698	1592.270629
2811.067488	1585.465734
2812.398937	1605.546853
2813.733282	1592.075524
2815.062729	1593.644056
2816.393513	1609.330070
2817.724075	1598.538462
2819.052858	1624.267832
2820.382978	1632.516084
2821.711318	1618.608392
2823.039438	1603.686014
2824.365781	1578.105594
2825.693459	1540.423077
2827.017805	1471.539161
2828.343486	1447.643357
2829.667393	1390.696503
2830.991079	1340.386713
2832.316101	1327.366434
2833.637794	1346.690210
2834.959267	1392.434965
2836.280522	1434.702797
2837.601558	1468.826573
2838.920822	1483.133566
2840.241421	1520.393706
2841.560248	1536.665035
2842.878857	1531.547552
2844.195696	1520.100699
2845.512317	1496.756643
2846.828720	1489.123776
2848.143355	1489.335664
2849.459324	1498.260839
2850.771973	1538.858741
2852.085958	1550.164336
2853.399726	1552.691608
2854.713277	1541.296503
2856.025061	1571.720280
2857.335080	1588.271329
2858.646433	1587.525175
2859.954470	1578.614685
2861.263843	1595.139860
2862.573000	1590.661538
2863.881942	1570.718182
2865.189121	1561.144056
2866.494536	1564.537762
2867.801286	1539.605594
2869.106273	1505.142657
2870.411047	1473.172028
2871.714059	1502.597203
2873.019953	1555.232168
2874.320992	1573.318182
2875.623364	1552.830070
2876.923977	1565.075524
2878.225924	1547.844755
2879.527658	1550.409091
2880.826088	1534.558042
2882.125851	1508.170629
2883.423857	1503.873427
2884.721651	1478.448252
2886.017688	1486.511888
2887.315059	1513.355944
2888.610674	1560.429371
2889.906079	1565.331469
2891.201272	1557.682517
2892.493167	1566.780420
2893.787939	1569.600699
2895.079415	1575.908392
2896.372223	1554.237762
2897.664821	1538.972028
2898.954124	1541.716084
2900.244760	1550.846154
2901.533646	1545.203497
2902.823863	1527.098601
2904.110789	1542.900699
2905.399047	1538.134266
2906.685556	1549.261538
2907.971856	1574.391608
2909.257948	1576.151748
2910.542292	1587.430769
2911.829508	1600.628671
2913.111897	1618.258042
2914.395618	1625.588112
2915.677592	1636.560839
2916.959360	1627.619580
2918.239382	1599.072727
2919.522274	1602.325874
2920.803421	1634.530070
2922.081286	1646.090909
2923.362020	1682.246853
2924.639473	1677.020280
2925.916721	1692.595105
2927.192226	1686.110490
2928.470599	1681.834965
2929.744157	1671.360839
2931.020583	1658.248252
2932.295268	1628.809091
2933.568213	1593.267832
2934.842488	1602.781818
2936.115024	1633.679720
2937.387356	1639.262937
2938.656415	1652.553846
2939.928339	1632.072727
2941.198525	1605.036364
2942.468507	1598.499301
2943.738286	1636.733566
2945.006328	1667.990210
2946.272635	1687.638462
2947.538739	1670.781119
2948.806174	1674.482517
2950.071873	1655.897203
2951.337370	1651.635664
2952.602665	1623.489510
2953.864696	1621.256643
2955.128056	1610.446154
2956.391215	1621.214685
2957.652641	1656.104895
2958.915397	1684.783916
2960.176422	1702.636364
2961.435716	1716.260839
2962.694809	1705.682517
2963.953702	1713.705594
2965.212395	1696.963636
2966.470888	1683.190210
2967.727652	1670.385315
2968.984217	1701.597203
2970.239053	1705.795105
2971.495219	1720.722378
2972.748129	1701.211888
2974.002369	1699.438462
2975.256410	1705.493007
2976.508725	1701.868531
2977.760842	1692.999301
2979.011234	1700.188811
2980.264481	1719.530769
2981.512951	1739.861538
2982.764275	1741.909091
2984.012351	1768.943357
2985.260229	1761.977622
2986.507910	1758.011888
2987.755395	1733.574825
2989.001158	1752.074825
2990.246724	1737.504895
2991.493619	1708.810490
2992.737268	1700.170629
2993.982246	1725.243357
2995.223981	1749.315385
2996.468567	1761.338462
2997.711434	1750.647552
2998.951059	1777.138462
3000.193536	1781.450350
3001.432772	1786.429371
3002.673336	1784.888811
3003.912183	1778.771329
3005.150836	1778.941958
3006.387773	1800.410490
3007.626037	1810.914685
3008.862587	1846.049650
3010.098943	1857.472028
3011.335105	1860.355245
3012.569553	1865.786713
3013.803808	1894.044056
3015.037870	1896.458741
3016.270220	1893.802098
3017.500858	1899.134266
3018.734342	1886.329371
3019.966115	1910.163636
3021.196176	1905.269930
3022.426046	1921.614685
3023.654206	1947.212587
3024.883693	1971.688811
3026.111470	1953.747552
3027.339056	1971.465035
3028.567968	1981.047552
3029.792138	1955.265734
3031.019151	1932.741958
3032.242941	1918.690909
3033.468056	1924.738462
3034.691465	1912.198601
3035.914685	1874.124476
3037.136199	1887.943357
3038.360554	1870.790210
3039.580174	1885.648252
3040.801120	1884.860140
3042.021876	1919.603497
3043.240929	1905.107692
3044.461308	1929.153846
3045.678470	1952.081818
3046.896957	1955.793007
3048.113743	1933.948252
3049.330340	1882.141958
3050.546750	1836.076923
3051.759946	1810.167832
3052.975980	1820.751049
3054.188802	1846.174825
3055.404461	1881.824476
3056.615397	1901.675524
3057.827659	1928.250350
3059.039733	1982.037063
3060.251621	1996.955245
3061.461811	1964.682517
3062.671816	1922.589860
3063.881634	1899.904895
3065.089756	1896.612238
3066.297692	1899.057343
3067.503934	1915.666084
3068.711500	1902.008392
3069.917371	1912.200350
3071.123057	1906.037063
3072.328559	1906.484965
3073.532367	1863.569930
3074.737499	1828.932517
3075.940938	1805.901399
3077.142685	1816.445804
3078.344249	1820.988112
3079.545629	1851.017483
3080.746825	1866.611888
3081.946331	1860.326573
3083.145653	1863.543357
3084.346299	1859.993007
3085.545256	1886.074825
3086.741017	1902.146853
3087.939608	1887.017483
3089.135005	1874.733566
3090.331726	1905.553147
3091.525254	1925.690909
3092.721610	1911.048252
3093.916279	1930.662238
3095.107758	1929.044056
3096.303568	1902.996503
3097.494685	1882.175524
3098.687125	1864.601399
3099.876376	1904.653846
3101.068454	1923.295804
3102.258848	1917.394406
3103.446055	1934.396503
3104.634586	1950.216783
3105.824439	1994.777622
3107.011107	2012.970629
3108.197596	2022.704895
3109.383905	2034.596503
3110.571537	2042.270629
3111.755986	2030.712587
3112.938755	2019.073427
3114.124348	2041.379021
3115.308260	2026.534266
3116.490494	1999.587413
3117.672550	1992.827273
3118.854427	1978.856643
3120.036126	1993.565035
3121.216148	1976.429371
3122.394492	1947.386014
3123.575658	1955.651049
3124.753648	1955.700000
3125.931461	1945.483217
3127.109097	1947.127273
3128.285058	1947.171329
3129.460843	1951.464336
3130.637948	1958.534266
3131.813380	1945.446154
3132.987138	1943.867133
3134.159223	1944.123077
3135.332629	1919.717483
3136.505860	1888.223077
3137.677418	1884.345455
3138.850298	1888.569231
3140.020010	1893.425175
3141.191043	1911.119580
3142.360405	1904.177622
3143.528098	1968.830070
3144.698606	2013.781818
3145.864455	2029.714685
3147.034614	2062.176224
3148.200115	2094.575524
3149.365443	2102.745455
3150.530597	2129.951748
3151.695578	2132.930070
3152.861878	2146.718182
3154.023525	2143.290210
3155.186493	2151.002098
3156.349287	2148.267832
3157.511909	2171.304196
3158.672866	2175.989510
3159.833650	2166.172028
3160.994263	2149.472028
3162.153211	2135.700000
3163.311987	2122.697203
3164.470592	2130.432168
3165.629025	2130.440559
3166.787286	2149.298601
3167.943885	2149.895804
3169.098823	2161.154545
3170.255080	2169.756643
3171.409677	2196.932867
3172.564102	2208.104895
3173.716868	2227.224476
3174.869464	2221.828671
3176.021890	2205.532168
3177.174145	2206.384615
3178.326231	2232.711189
3179.475170	2239.810490
3180.626916	2218.986713
3181.777005	2220.027273
3182.925436	2223.229371
3184.073699	2219.294406
3185.221793	2224.954545
3186.369717	2223.262238
3187.515987	2224.813986
3188.662088	2228.337063
3189.806535	2209.571329
3190.950813	2218.630769
3192.094924	2219.339860
3193.240353	2206.937063
3194.382643	2171.308392
3195.524765	2186.124476
3196.666721	2187.161538
3197.808509	2188.700699
3198.950130	2181.860839
3200.088615	2198.490909
3201.228419	2214.081818
3202.369539	2213.932867
3203.507525	2202.777622
3204.643862	2189.101399
3205.780033	2176.852448
3206.917522	2182.627273
3208.053362	2150.228671
3209.190518	2155.232867
3210.323063	2159.495105
3211.459888	2174.472727
3212.592102	2196.027273
3213.725634	2217.244755
3214.859000	2213.037762
3215.989239	2200.837063
3217.122277	2190.469930
3218.252187	2168.827972
3219.383415	2155.074825
3220.511517	2153.687413
3221.642417	2121.646853
3222.771672	2117.331469
3223.899283	2140.218881
3225.023773	2148.990210
3226.152538	2186.729371
3227.278181	2203.904895
3228.403661	2215.120280
3229.527500	2271.820280
3230.654134	2309.879021
3231.776169	2305.584615
3232.899521	2311.156643
3234.022711	2308.465035
3235.145739	2285.941958
3236.267127	2270.636364
3237.388354	2254.862937
3238.507942	2229.669231
3239.627369	2234.079720
3240.745159	2225.179720
3241.865740	2236.023776
3242.983208	2301.961538
3244.100515	2326.910490
3245.217661	2317.208392
3246.333172	2345.045455
3247.449998	2353.064336
3248.563713	2348.697902
3249.680219	2369.545455
3250.795089	2362.444056
3251.906851	2355.085315
3253.018454	2347.465734
3254.131372	2362.631469
3255.244130	2393.683217
3256.353782	2406.154545
3257.464749	2393.645455
3258.575557	2403.803497
3259.684733	2422.760140
3260.792278	2426.143357
3261.901138	2443.113986
3263.009839	2460.326573
3264.115438	2435.848951
3265.222352	2434.440559
3266.327636	2428.565734
3267.434234	2440.967832
3268.537732	2442.090210
3269.642544	2421.865035
3270.747199	2452.034965
3271.848756	2465.877622
3272.950156	2480.405594
3274.052870	2476.425175
3275.155427	2483.758741
3276.254889	2463.632867
3277.357133	2443.401399
3278.456283	2423.031469
3279.553807	2414.280420
3280.651176	2408.542657
3281.751328	2388.676923
3282.848386	2374.851049
3283.945290	2380.303497
3285.042038	2376.767133
3286.134227	2385.651748
3287.230666	2387.441259
3288.325482	2380.898601
3289.420143	2355.394406
3290.513183	2374.328671
3291.606069	2354.423077
3292.697334	2378.374126
3293.789912	2332.797902
3294.880870	2318.977622
3295.970208	2321.816084
3297.059393	2349.386713
3298.149890	2393.993706
3299.237303	2427.419580
3300.324564	2475.648951
3301.413137	2474.770629
3302.501557	2490.129371
3303.585430	2527.629371
3304.673545	2525.090210
3305.758579	2508.449650
3306.841997	2458.379720
3307.926727	2465.861538
3309.009841	2467.734266
3310.094267	2478.175524
3311.175615	2486.234965
3312.258275	2492.411189
3313.339321	2498.364336
3314.420216	2474.245455
3315.499498	2483.502797
3316.578629	2484.690210
3317.659072	2501.200000
3318.736440	2481.252448
3319.815120	2484.890210
3320.892188	2487.969231
3321.969106	2498.503497
3323.044414	2531.818881
3324.119572	2545.777622
3325.196041	2562.895804
3326.269439	2583.019580
3327.342689	2578.079720
3328.417250	2583.723077
3329.490201	2573.290909
3330.561545	2588.208392
3331.634199	2589.680420
3332.703786	2602.546853
3333.774684	2603.427972
3334.843975	2601.120979
3335.914577	2632.218182
3336.983572	2632.595105
3338.050961	2637.827273
3339.116745	2670.283916
3340.186755	2680.619580
3341.253702	2710.190210
3342.317587	2701.401399
3343.384240	2728.565734
3344.449289	2760.384615
3345.512734	2777.711888
3346.576032	2787.209790
3347.639185	2767.280420
3348.702191	2787.585315
3349.765050	2772.160839
3350.826308	2750.018182
3351.884509	2741.209790
3352.946931	2722.598601
3354.006296	2713.227273
3355.065517	2692.497203
3356.126046	2701.479021
3357.182066	2719.397203
3358.240851	2735.697203
3359.295128	2753.009790
3360.352169	2770.629371
3361.407611	2801.830769
3362.464362	2775.098601
3363.519516	2776.048252
3364.573072	2762.146853
3365.625031	2752.984615
3366.679752	2749.977622
3367.731425	2746.806993
3368.782953	2745.934965
3369.835791	2750.109790
3370.885581	2760.335664
3371.936680	2754.723776
3372.984732	2772.228671
3374.035545	2777.982517
3375.083312	2763.356643
3376.130937	2762.018182
3377.178420	2753.188811
3378.224309	2737.546154
3379.271508	2744.825175
3380.315663	2734.670629
3381.362577	2746.539161
3382.407899	2738.971329
3383.450181	2763.157343
3384.492321	2781.993706
3385.535770	2813.314685
3386.579077	2825.810490
3387.620794	2822.774126
3388.662370	2817.319580
3389.703806	2854.990210
3390.743653	2871.819580
3391.781911	2864.654545
3392.821477	2869.056643
3393.860903	2864.793706
3394.898741	2828.130070
3395.934992	2819.288811
3396.971103	2816.876224
3398.008522	2794.706294
3399.042908	2764.809091
3400.078602	2738.083916
3401.114156	2758.890210
3402.146678	2794.144755
3403.181954	2813.136364
3404.214199	2828.947552
3405.246306	2875.010490
3406.276829	2873.460839
3407.308660	2894.223776
3408.340352	2901.546853
3409.369016	2895.251748
3410.397542	2877.663636
3411.427376	2863.006294
3412.457072	2840.760839
3413.483741	2852.651049
3414.511718	2860.383217
3415.536670	2844.712587
3416.564372	2889.208392
3417.589051	2906.674126
3418.615036	2907.807692
3419.639442	2931.471329
3420.663710	2922.859441
3421.686400	2906.016783
3422.708955	2909.671329
3423.732814	2910.437063
3424.753654	2889.740559
3425.774359	2880.049251
3426.796369	2875.269855
3427.815361	2877.749750
3428.834218	2889.836314
3429.854381	2913.876923
3430.871526	2952.218956
