-118.385087	32.050824
-115.715486	22.329670
-113.048821	15.449301
-110.382909	10.992408
-107.719928	8.541683
-105.055517	7.679820
-102.394037	7.989510
-99.731128	8.480420
-97.073326	9.960140
-94.414093	12.006294
-91.755609	12.114685
-89.100050	14.025874
-86.443062	18.274126
-83.791171	20.156643
-81.137851	19.223776
-78.487451	22.367133
-75.835621	21.363636
-73.188882	23.830769
-70.540713	23.942657
-67.893288	23.058042
-65.248776	27.098601
-62.602835	28.533566
-59.961977	28.254545
-57.319688	29.183916
-54.680309	26.627273
-52.039501	24.390909
-49.399432	23.130769
-46.764437	24.527972
-44.128012	25.530070
-41.494491	32.751049
-38.859540	39.230769
-36.229656	43.584615
-33.596178	51.516783
-30.967763	55.850350
-28.340082	59.372727
-25.710973	42.857343
-23.086920	-56.115385
-20.459278	-472.665035
-17.836689	-1588.995804
-15.214831	-2756.918881
-12.593704	655.600699
-9.973308	7475.926573
-7.355799	13244.620280
-4.736862	17348.537762
-2.120811	19758.558741
0.494512	20465.520280
3.109108	19474.461538
5.720822	16796.895804
8.333963	12497.981818
10.942071	6821.937063
13.553761	714.279021
16.160420	-3350.711189
18.768507	-2322.547552
21.375870	-214.598601
23.978208	53.286014
26.584124	57.215385
29.185019	55.311189
31.787341	51.407692
34.384645	46.576923
36.985525	44.983217
39.581391	45.460140
42.178684	44.139161
44.775258	42.029371
47.366823	38.757343
49.959816	33.147552
52.549948	28.502098
55.141508	26.349650
57.730208	23.280420
60.320336	26.740559
62.905464	26.725874
65.492020	29.152448
68.077861	32.706294
70.660849	34.159441
73.245264	35.644056
75.822549	34.617483
78.403401	33.550350
80.981404	33.911888
83.558697	31.143357
86.137416	26.638462
88.711154	24.730070
91.286318	24.168531
93.858639	22.722378
96.430253	21.186713
98.999026	20.744056
101.569226	23.672727
104.136587	25.095804
106.705375	23.600000
109.271325	26.183217
111.834441	29.165734
114.401114	32.352448
116.958564	35.312587
119.521700	43.061538
122.079877	52.365734
124.641607	70.490210
127.198382	101.808392
129.756582	148.744755
132.309830	211.316783
134.862379	282.953147
137.418480	361.575524
139.969632	446.644755
142.520086	527.525874
145.069844	607.116084
147.616782	669.995804
150.163024	720.019580
152.710693	748.960140
155.257665	763.821678
157.799701	768.491608
160.341044	762.162238
162.881695	754.067133
165.423770	743.180420
167.963035	726.048951
170.499490	716.679720
173.035255	709.520979
175.572445	708.309790
178.108943	709.300000
180.642636	713.120280
183.173526	718.276923
185.703727	727.855944
188.235353	736.997203
190.764179	744.765734
193.290205	754.166434
195.815545	763.778322
198.342310	766.115385
200.866279	767.569930
203.389562	768.243357
205.912161	767.012587
208.431967	764.828671
210.951090	764.782517
213.469530	766.799301
215.989394	770.508392
218.502257	770.718182
221.018651	767.458042
223.534364	760.700699
226.045186	757.325874
228.557433	749.267832
231.066897	743.311189
233.575683	743.775524
236.083791	742.666434
238.593323	742.795105
241.097974	746.698601
243.601949	748.823776
246.107348	754.837063
248.607872	764.317483
251.111919	824.227273
253.608996	983.986014
256.109595	1229.297203
258.607423	1490.086014
261.104578	1705.769930
263.601060	1848.634965
266.092680	1905.190909
268.587818	1871.674825
271.080191	1751.890909
273.571893	1559.027972
276.060832	1331.544056
278.551194	1107.059441
281.038795	959.888811
283.523636	903.409790
286.011991	897.540559
288.493408	889.540559
290.978338	866.286713
293.458422	831.797203
295.942019	791.275524
298.420774	749.785315
300.900951	715.525874
303.378377	688.189510
305.855139	681.462238
308.331237	694.681818
310.804587	728.179720
313.277276	762.082517
315.749303	794.137762
318.220668	819.042657
320.689290	837.988811
323.157252	839.514685
325.626637	833.551049
328.091199	819.546154
330.559264	797.537762
333.022510	770.224476
335.485099	745.462238
337.947030	734.443357
340.408305	735.201399
342.866846	736.321678
345.326809	735.030769
347.784040	731.506993
350.240616	729.326573
352.696537	725.592308
355.149730	721.634965
357.604345	714.886014
360.054158	711.232168
362.507467	707.913986
364.955977	702.096503
367.403837	698.688811
369.853118	694.365035
372.297606	687.570629
374.743516	683.488112
377.188777	679.044056
379.631319	674.458042
382.073213	666.997902
384.514459	657.548951
386.952990	651.339161
389.392943	652.843357
391.830182	650.853846
394.264709	647.497203
396.702724	650.100000
399.135962	652.437762
401.570622	656.133566
404.000509	660.365734
406.433881	665.209091
408.862482	662.890210
411.290443	660.011189
413.719824	661.269231
416.144441	661.709790
418.570478	664.894406
420.995876	665.046853
423.420633	664.860839
425.840631	668.006993
428.262051	670.677622
430.680774	670.957343
433.100918	673.683217
435.518367	677.298601
437.937236	677.236364
440.353412	675.138462
442.764841	675.537762
445.179746	675.843357
447.591961	679.034965
450.003542	679.199301
452.414489	677.007692
454.822750	672.995804
457.230379	669.558042
459.637375	663.621678
462.043739	657.332867
464.447422	649.251049
466.850474	643.107692
469.252896	636.850350
471.654688	634.421678
474.053802	635.469930
476.454336	641.187413
478.854241	645.367133
481.249423	651.744056
483.648072	654.588811
486.042001	655.611888
488.435304	653.216783
490.827981	649.438462
493.220033	642.886014
495.613504	631.998601
498.002262	619.853147
500.388354	602.925874
502.775866	584.545455
505.162754	569.504196
507.546979	553.009790
509.932623	538.137762
512.315604	519.170629
514.695925	504.896503
517.077665	495.130769
519.456746	487.476224
521.837246	480.650350
524.215088	474.646154
526.590275	466.225175
528.964844	460.949650
531.340832	452.325874
533.714166	444.755245
536.088919	435.159441
538.458985	427.916084
540.828436	413.478322
543.199306	405.702797
545.565494	400.468531
547.933101	395.531469
550.298062	393.553147
552.662410	391.540559
555.026146	388.174825
557.391299	389.046853
559.751780	386.745455
562.113678	386.953147
564.472937	382.564336
566.829557	378.067133
569.189623	372.641958
571.542997	371.427273
573.899816	368.618182
576.254000	365.323776
578.607575	357.442657
580.960542	354.709091
583.310878	351.770629
585.662630	348.913287
588.007706	347.818182
590.358246	346.372028
592.702113	346.267133
595.051441	345.720979
597.396120	350.412587
599.738175	353.718881
602.081647	355.318881
604.422496	353.946154
606.762742	351.784615
609.100368	351.969231
611.441429	349.235664
613.777853	348.101399
616.115693	344.669930
618.450915	339.518881
620.783522	338.311189
623.117546	331.055944
625.448955	330.827972
627.779766	328.028671
630.109979	324.532867
632.439595	324.600000
634.764587	324.691608
637.095021	322.646853
639.420833	322.836364
641.744039	323.215385
644.068661	320.513287
646.390677	319.567133
648.712099	319.044755
651.030918	316.581818
653.351153	316.900000
655.670795	314.423077
657.987836	311.967832
660.304286	311.572028
662.618137	312.766434
664.933403	311.955944
667.246073	312.131469
669.560158	313.988112
671.869644	313.732867
674.180544	312.945455
676.488852	308.107692
678.796572	306.177622
681.105707	303.205594
683.410249	303.888112
685.714205	298.346853
688.017574	296.253846
690.322358	295.556643
692.622556	293.533566
694.924169	293.483217
697.225196	292.318182
699.521642	289.534266
701.819502	283.234965
704.116780	279.348252
706.413473	278.950350
708.705591	277.323077
711.001120	277.125175
713.292076	274.905594
715.584446	275.807692
717.874240	276.637762
720.163455	278.125175
722.452089	277.399301
724.738152	280.296503
727.025628	284.399301
729.310534	280.497902
731.594861	279.062937
733.876621	275.739860
736.159794	270.878322
738.442390	268.295804
740.720430	268.239161
742.999884	268.181119
745.278763	268.753846
747.557066	265.484615
749.830820	265.162937
752.105988	268.796503
754.380582	268.002098
756.652617	267.023077
758.926065	265.416783
761.196955	262.656643
763.465288	262.344056
765.735036	263.691608
768.002228	269.046853
770.268850	274.860140
772.534903	278.741259
774.798404	279.759441
777.063317	278.573427
779.327662	276.073427
781.587476	276.125874
783.848704	273.968531
786.109364	268.427972
788.367477	266.743357
790.623046	264.584615
792.882006	263.354545
795.134467	269.381119
797.392295	274.108392
799.645604	273.569231
801.896372	271.554545
804.148553	263.400000
806.398196	260.324476
808.649250	259.456643
810.895793	251.760839
813.143749	251.030070
815.389169	256.193706
817.636002	253.516084
819.882272	254.616783
822.124039	257.574126
824.369188	255.716783
826.607865	251.137063
828.849925	246.265035
831.087486	243.690909
833.326458	242.820280
835.562904	235.327972
837.800762	229.063636
840.036094	230.091608
842.268902	224.680420
844.503122	215.075524
846.734820	211.266434
848.965963	215.845455
851.196551	216.218182
853.426585	220.844056
855.656064	226.721678
857.881063	232.732867
860.109435	237.117483
862.333329	233.479021
864.558633	233.123077
866.779462	231.088112
869.003663	227.441259
871.223391	221.289510
873.444530	221.325175
875.665118	228.206993
877.883197	235.558042
880.102685	235.322378
882.317707	239.462238
884.532181	236.853147
886.746108	236.395105
888.959487	230.804196
891.172320	230.404196
893.384605	226.958741
895.594389	232.179021
897.803627	228.341259
900.012319	234.646154
902.218513	242.239161
904.426116	240.053846
906.631222	233.577622
908.835784	229.876224
911.037851	226.813287
913.241327	221.565035
915.442309	217.934266
917.642749	222.897902
919.844598	215.448951
922.040056	223.747552
924.238872	221.613287
926.433251	224.523077
928.630987	217.756643
930.824287	207.651049
933.018995	195.279720
935.211218	191.937063
937.402903	198.154545
939.594050	202.902098
941.782714	206.316084
943.970841	214.040559
946.156488	231.976224
948.345487	250.154545
950.530063	256.752448
952.714104	253.919580
954.901495	261.450350
957.080583	274.230070
959.263020	277.759441
961.444924	281.225175
963.624354	280.238462
965.801311	275.298601
967.979676	266.872727
970.159447	268.354545
972.332870	273.965734
974.509639	270.574825
976.682002	266.985315
978.855771	264.426573
981.025138	291.158042
983.197848	307.851748
985.368092	300.650350
987.537808	300.851748
989.706995	312.737063
991.871785	320.322378
994.039917	318.162238
996.203653	315.877622
998.368797	329.987413
1000.531481	344.413287
1002.693640	362.200699
1004.853341	356.631469
1007.012519	349.599301
1009.173103	341.324476
1011.331232	339.434965
1013.488837	349.620280
1015.645919	355.012587
1017.802478	339.318881
1019.954657	347.279720
1022.108243	363.030769
1024.261306	390.636364
1026.411922	394.817483
1028.563943	391.088112
1030.711591	375.541958
1032.862571	362.904895
1035.009181	356.362238
1037.155271	371.788811
1039.300843	378.562937
1041.447819	402.465734
1043.588508	420.755944
1045.732525	442.255245
1047.874103	461.403497
1050.015163	459.769231
1052.157628	446.866434
1054.293814	448.369231
1056.433326	444.351748
1058.568482	424.437063
1060.706963	405.239161
1062.841091	445.566434
1064.974705	455.055944
1067.109723	474.708392
1069.240392	455.997203
1071.372467	435.657343
1073.502111	417.905594
1075.631244	381.222378
1077.759866	376.083217
1079.887976	359.093007
1082.013660	334.837762
1084.138834	318.772727
1086.265411	327.502797
1088.387652	377.069930
1090.511297	394.820280
1092.630607	395.514685
1094.755146	391.120979
1096.873441	390.153147
1098.993139	372.440559
1101.110419	377.865035
1103.227193	383.913986
1105.343460	355.134266
1107.457312	345.609790
1109.572567	326.295804
1111.683500	326.376923
1113.797744	328.108392
1115.907669	309.826573
1118.018996	278.015385
1120.129820	264.212587
1122.236327	258.374825
1124.346143	250.912587
1126.451645	261.741259
1128.558551	265.257343
1130.659240	262.728671
1132.765142	276.441958
1134.866735	283.121678
1136.969731	299.303497
1139.072226	303.525175
1141.168515	301.888811
1143.270010	299.637762
1145.367203	285.827972
1147.463897	286.388811
1149.560094	274.910490
1151.655792	270.593007
1153.750993	263.628671
1155.843797	259.948252
1157.938003	264.579720
1160.026018	264.410490
1162.119231	270.435664
1164.206256	280.645455
1166.296581	296.463636
1168.382617	291.278322
1170.471951	287.116783
1172.555104	285.118881
1174.639660	291.197203
1176.725616	289.493007
1178.807291	287.093706
1180.890368	290.381818
1182.971059	280.114685
1185.051259	271.979720
1187.130967	262.437063
1189.210183	270.029371
1191.287018	269.038462
1193.361472	258.420280
1195.439218	251.184615
1197.512693	244.697902
1199.587570	247.420280
1201.658179	241.946853
1203.730189	238.389510
1205.799823	249.043357
1207.870858	249.923776
1209.941405	243.548252
1212.007691	234.861538
1214.075378	233.168531
1216.140693	231.587413
1218.207408	225.223077
1220.269867	231.548252
1222.335612	233.358042
1224.397102	227.979021
1226.459992	220.616783
1228.520515	228.500000
1230.580555	234.076224
1232.640111	239.115385
1234.697303	238.527273
1236.754012	242.383217
1238.808359	239.026573
1240.865986	241.552448
1242.921251	236.606294
1244.972275	241.155245
1247.024699	223.516084
1249.076644	209.073427
1251.126230	201.200699
1253.175337	195.520979
1255.223965	197.737762
1257.272115	208.653147
1259.319787	212.713287
1261.363228	213.053147
1263.409944	213.611888
1265.454308	223.905594
1267.498194	221.255944
1269.539730	217.817483
1271.578916	215.837762
1273.621374	211.940559
1275.659611	202.631469
1277.699245	200.776923
1279.738405	220.941958
1281.773347	222.830070
1283.809687	220.627273
1285.843682	229.215385
1287.879076	226.476224
1289.910256	228.654545
1291.942835	218.009790
1293.974941	224.749650
1296.004707	222.862238
1298.035871	218.197902
1300.062827	218.090909
1302.091181	235.179720
1304.115331	251.985315
1306.142746	246.058042
1308.165958	247.691608
1310.190568	247.287413
1312.212843	230.727273
1314.236516	234.195804
1316.257856	225.456643
1318.278729	222.034266
1320.299134	212.521678
1322.315345	212.687413
1324.332955	209.977622
1326.348236	217.000000
1328.366776	211.795804
1330.381126	205.686014
1332.393151	204.165035
1334.408434	208.681818
1336.419531	203.011189
1338.432024	210.986713
1340.440335	203.162937
1342.451902	200.302797
1344.457430	199.222378
1346.466212	197.243357
1348.470818	193.426573
1350.478677	192.077622
1352.486073	193.801399
1354.487439	202.103497
1356.490202	210.713986
1358.492505	217.839860
1360.494347	213.145455
1362.495731	216.884615
1364.494800	209.506294
1366.493411	205.426573
1368.491564	203.164336
1370.489259	200.411189
1372.482790	198.757343
1374.477718	193.909790
1376.472189	198.379021
1378.466203	200.372727
1380.457910	204.325175
1382.449161	201.332168
1384.438107	208.376224
1386.428448	206.985315
1388.418334	199.595105
1390.405917	200.519580
1392.393046	197.046853
1394.377873	200.358741
1396.364095	203.558042
1398.348016	197.714685
1400.331485	198.015385
1402.314502	194.458042
1404.295221	198.731469
1406.277334	200.234965
1408.257150	206.193706
1410.236516	206.930070
1412.211743	201.486713
1414.190208	209.692308
1416.166380	209.621678
1418.142102	215.132867
1420.117375	212.780420
1422.090357	211.233566
1424.062892	215.338462
1426.034978	214.266434
1428.006616	222.530769
1429.974127	216.660140
1431.946711	218.830769
1433.911489	220.334965
1435.881340	217.534266
1437.847066	231.397203
1439.814186	227.365734
1441.779022	234.291608
1443.739738	232.435664
1445.705522	234.782517
1447.665351	240.369231
1449.626573	237.823776
1451.589188	241.110490
1453.547688	233.823776
1455.505746	239.398601
1457.463361	235.913986
1459.420535	234.049650
1461.375433	242.934266
1463.331723	242.128671
1465.285739	242.376923
1467.239315	227.510490
1469.190618	223.768531
1471.143313	215.034266
1473.093737	211.303497
1475.043722	212.585315
1476.993267	219.643357
1478.940544	221.956643
1480.885554	220.008392
1482.831956	225.579021
1484.777920	239.417483
1486.723446	236.697203
1488.666708	238.102098
1490.609533	233.754545
1492.550095	232.042657
1494.492048	226.388112
1496.431740	227.657343
1498.370996	223.503497
1500.309818	221.004895
1502.246380	214.900000
1504.184332	218.155245
1506.120027	218.189510
1508.055288	226.429371
1509.988292	223.493706
1511.920864	241.383916
1513.853004	249.039161
1515.784712	255.078322
1517.714167	256.279720
1519.645011	251.802098
1521.575425	244.991608
1523.501766	241.183916
1525.429497	248.937063
1527.354978	249.490210
1529.280030	236.662238
1531.204653	235.365035
1533.128847	230.776224
1535.050794	228.215385
1536.974130	225.865035
1538.895221	213.884615
1540.814067	214.465035
1542.734303	210.415385
1544.652295	218.736364
1546.569861	232.106294
1548.485185	246.197203
1550.401899	250.164336
1552.314558	250.212587
1554.230421	249.816783
1556.144045	246.339860
1558.055430	237.588811
1559.968204	237.512587
1561.876929	239.828671
1563.787044	245.517483
1565.696735	243.000699
1567.606002	253.399301
1569.513036	261.711189
1571.417837	260.220979
1573.324027	267.237762
1575.227985	262.985315
1577.131523	253.277622
1579.034639	251.446853
1580.935527	254.430070
1582.837803	252.764336
1584.737850	263.444056
1586.639286	261.832168
1588.536687	259.625874
1590.433671	253.714685
1592.330236	251.391608
1594.228188	244.288112
1596.120306	249.039161
1598.015618	236.353147
1599.910511	233.990210
1601.803183	239.048252
1603.695439	240.118182
1605.585475	220.650350
1607.475095	235.721678
1609.364300	240.345455
1611.253089	242.501399
1613.139662	244.286014
1615.027621	247.600699
1616.911565	252.139860
1618.796895	264.227273
1620.681812	264.816084
1622.564515	267.034965
1624.448604	270.198601
1626.328683	259.107692
1628.210148	246.790909
1630.089403	254.460140
1631.970044	257.723776
1633.844881	253.365035
1635.724700	250.039860
1637.600513	253.725874
1639.475917	266.936364
1641.352706	278.124476
1643.223698	273.372727
1645.097872	278.665734
1646.968048	291.643357
1648.841404	291.785315
1650.712557	305.778322
1652.581508	312.118182
1654.451845	313.730769
1656.318188	301.072028
1658.185918	297.277622
1660.051448	297.001399
1661.918363	299.777622
1663.781290	285.096503
1665.645602	253.925175
1667.507719	243.300000
1669.369430	245.518182
1671.232526	250.262937
1673.093428	272.659441
1674.952136	273.779720
1676.810441	273.702797
1678.670131	273.014685
1680.524054	276.897203
1682.381149	281.548951
1684.237842	292.932168
1686.090559	286.604895
1687.946447	273.767832
1689.798361	260.930070
1691.649873	271.576923
1693.500986	273.129371
1695.351697	255.584615
1697.202008	248.086713
1699.050135	244.818182
1700.899645	220.206294
1702.743407	220.996503
1704.592119	227.086014
1706.435084	236.677622
1708.281215	236.962937
1710.123385	239.986713
1711.968719	257.548951
1713.808313	276.965035
1715.649291	290.296503
1717.491652	285.056643
1719.330057	325.079720
1721.169845	328.668531
1723.007458	326.481119
1724.844675	325.062937
1726.679719	297.380420
1728.516146	281.825874
1730.350401	270.374126
1732.184262	287.395804
1734.017728	312.713986
1735.847248	286.181818
1737.679927	315.859441
1739.508662	322.764336
1741.340555	338.021678
1743.168505	331.761538
1744.996063	324.364336
1746.823230	300.290909
1748.650004	267.923077
1750.476388	251.897902
1752.298835	238.927273
1754.124436	234.789510
1755.946103	227.295804
1757.769152	203.544056
1759.590040	228.737063
1761.410538	234.756643
1763.232418	229.557343
1765.048598	230.439161
1766.867930	241.402797
1768.683335	264.024476
1770.501891	266.458042
1772.316521	274.061538
1774.130764	266.432168
1775.944621	271.185315
1777.758091	269.782517
1779.569407	253.165035
1781.382105	255.851049
1783.194416	280.848951
1785.002810	270.818182
1786.812585	260.221678
1788.618444	276.011888
1790.427450	291.248252
1792.232542	288.972028
1794.039014	294.188112
1795.845103	280.002098
1797.647282	288.279720
1799.452604	293.266434
1801.254018	284.486014
1803.056812	285.708392
1804.855701	304.843357
1806.655969	290.793007
1808.455857	281.401399
1810.253602	277.972727
1812.050967	268.523077
1813.847951	263.003497
1815.644555	271.261538
1817.439020	264.470629
1819.234865	276.072727
1821.025054	275.467133
1822.820140	262.585315
1824.609573	248.422378
1826.402144	259.801399
1828.192579	254.711189
1829.980879	260.562937
1831.772315	263.611888
1833.558105	272.895105
1835.345275	286.068531
1837.130313	293.289510
1838.918485	289.622378
1840.702771	283.197203
1842.484928	265.680420
1844.268463	265.686014
1846.049871	247.480420
1847.832656	235.432867
1849.611562	235.340559
1851.391846	244.622378
1853.170005	252.732168
1854.949541	259.333566
1856.726953	275.134965
1858.502241	277.140559
1860.278908	289.566434
1862.053452	280.212587
1863.829373	297.209790
1865.599675	312.664336
1867.373104	288.829371
1869.144413	271.575524
1870.915351	283.309790
1872.687666	280.624476
1874.454369	281.810490
1876.224196	285.597902
1877.990160	293.693706
1879.759248	294.839161
1881.524474	310.568531
1883.289332	297.558741
1885.055566	315.003497
1886.817942	317.426573
1888.579951	296.800000
1890.341593	287.527972
1892.102867	285.779021
1893.863775	268.177622
1895.624315	265.575524
1897.382746	266.472727
1899.140812	265.698601
1900.896770	268.473427
1902.654104	273.227273
1904.411072	261.060140
1906.165935	265.850350
1907.918692	268.663636
1909.671086	273.820280
1911.424856	279.353147
1913.176522	278.765035
1914.926085	277.798601
1916.677025	293.534965
1918.427601	300.139161
1920.174339	298.995804
1921.922452	291.543357
1923.668466	278.072028
1925.415856	267.101399
1927.161147	256.011888
1928.904341	253.909091
1930.648911	259.697902
1932.391384	253.548252
1934.133497	248.860140
1935.875251	256.005944
1937.616644	269.189510
1939.355944	273.398951
1941.094885	274.532168
1942.833467	266.564685
1944.569957	265.772727
1946.306090	275.485664
1948.043597	277.432867
1949.777283	286.868182
1951.512343	282.234266
1953.245314	266.468182
1954.977929	266.927273
1956.710187	261.223427
1958.442089	258.679720
1960.171905	249.548252
1961.899637	248.061538
1963.628742	234.116783
1965.357493	247.107692
1967.084160	253.214685
1968.810473	262.158741
1970.538159	271.719580
1972.260309	271.279720
1973.985561	267.054545
1975.707005	272.523776
1977.431549	275.215385
1979.154014	287.660839
1980.872675	291.275524
1982.594435	296.962937
1984.312393	290.797902
1986.031725	301.232168
1987.747256	292.005594
1989.467609	279.961538
1991.184162	268.244755
1992.896920	250.428671
1994.612773	241.601399
1996.326554	242.936364
1998.039984	251.053147
1999.751344	268.393706
2001.464077	270.245455
2003.173018	281.668531
2004.885053	287.420280
2006.591578	291.020979
2008.301196	295.736364
2010.008746	294.567133
2011.715949	292.379720
2013.421086	280.320280
2015.125876	288.527273
2016.832038	290.137762
2018.534418	292.894406
2020.238170	297.217483
2021.939859	286.632168
2023.641202	286.496503
2025.342200	281.898601
2027.041138	289.904895
2028.741447	299.731469
2030.437980	301.979720
2032.135885	284.000699
2033.831732	270.397902
2035.530664	266.460839
2037.224110	263.063636
2038.918927	264.430769
2040.613401	260.528671
2042.304107	263.893706
2043.997897	271.516783
2045.687920	264.778322
2047.379314	270.760839
2049.068655	276.407692
2050.759366	268.221678
2052.446315	259.414685
2054.132923	261.408392
2055.820902	266.041259
2057.505121	260.084615
2059.190710	263.311189
2060.875960	262.193706
2062.559162	273.595804
2064.243734	269.472727
2065.922842	259.510490
2067.606736	261.144056
2069.285170	261.582517
2070.966681	255.950350
2072.644440	266.655944
2074.321863	273.243357
2076.000655	282.277622
2077.677404	276.458042
2079.352112	281.769930
2081.028189	283.772727
2082.702226	297.000699
2084.375927	295.623776
2086.049293	306.381818
2087.720621	296.334266
2089.391614	285.837063
2091.062273	278.430070
2092.732598	279.134266
2094.402588	282.826573
2096.070543	289.203497
2097.738165	287.960839
2099.403753	294.526573
2101.070709	296.783916
2102.735632	293.802098
2104.400222	288.552448
2106.062781	291.305594
2107.726709	287.100000
2109.388605	282.669930
2111.050170	282.592308
2112.711405	288.867133
2114.370610	297.869231
2116.029486	305.936364
2117.688031	309.899301
2119.346247	318.483916
2121.000739	315.634266
2122.658297	303.027273
2124.315524	298.298601
2125.969031	301.755944
2127.623905	304.300000
2129.275060	297.330070
2130.929278	290.340559
2132.579778	284.815385
2134.231646	278.794406
2135.878105	273.334965
2137.529318	271.732867
2139.176818	282.730769
2140.825686	283.083217
2142.472534	280.504895
2144.119056	292.676923
2145.765254	310.478322
2147.407742	308.672727
2149.053289	321.109790
2150.695129	321.505594
2152.340026	318.000000
2153.981218	314.377622
2155.622086	310.106993
2157.262631	308.131469
2158.901163	311.895804
2160.541061	298.687413
2162.177259	298.939860
2163.814823	299.495105
2165.452065	300.869231
2167.087297	290.909091
2168.722207	302.757343
2170.356796	302.138462
2171.991064	306.587413
2173.621638	306.454545
2175.255263	305.649650
2176.885197	303.627972
2178.516496	310.241958
2180.145791	321.176923
2181.774765	315.350350
2183.403421	319.972028
2185.031757	329.032867
2186.658090	326.810490
2188.284105	329.402797
2189.908119	323.129371
2191.533498	330.181818
2193.156876	321.302098
2194.781619	318.154545
2196.402680	302.158042
2198.023426	306.977622
2199.645535	301.550350
2201.265647	284.067133
2202.883763	283.895105
2204.501563	279.076224
2206.119047	272.339161
2207.736216	274.885315
2209.353070	288.466434
2210.969609	309.951748
2212.584154	312.276923
2214.196707	324.955245
2215.810625	336.177622
2217.422550	343.557343
2219.035840	344.096503
2220.647138	338.163636
2222.256448	322.553846
2223.867120	312.879720
2225.475804	304.755245
2227.084176	304.409091
2228.690560	301.286713
2230.298308	298.034965
2231.904069	303.158042
2233.509519	315.040559
2235.112985	320.549650
2236.717813	310.041958
2238.320657	323.530070
2239.921518	314.848951
2241.523742	311.386713
2243.123983	303.215385
2244.725588	283.703497
2246.323539	281.867133
2247.922853	275.588811
2249.520187	287.620280
2251.117213	302.547552
2252.715600	314.558741
2254.310339	307.566434
2255.903102	325.039161
2257.497226	344.266434
2259.092712	344.788811
2260.684554	341.576224
2262.276089	331.273427
2263.868985	318.272727
2265.456572	322.476923
2267.048856	315.217483
2268.635832	314.356643
2270.225837	312.293706
2271.810537	309.328671
2273.399931	306.904895
2274.984022	319.583217
2276.569475	305.666434
2278.152959	301.325874
2279.739468	294.372028
2281.322344	286.104196
2282.904916	294.935315
2284.487186	318.449650
2286.065825	335.366783
2287.647488	335.430070
2289.225524	343.628322
2290.806582	358.988112
2292.384013	375.808042
2293.959481	370.973427
2295.537971	369.340909
2297.112836	359.271329
2298.687401	336.201049
2300.261666	319.370629
2301.835630	336.539510
2303.409294	344.911888
2304.982657	335.886713
2306.552402	321.473427
2308.121848	338.283916
2309.694313	337.044755
2311.261503	331.343357
2312.831710	332.211189
2314.398303	339.925874
2315.966256	318.118881
2317.532254	296.320280
2319.097954	284.390909
2320.663356	302.276923
2322.226805	300.093007
2323.791613	301.137063
2325.352812	304.282517
2326.917026	311.651049
2328.475979	304.037063
2330.037945	310.223077
2331.597961	339.524476
2333.157681	340.128671
2334.715452	335.046154
2336.272929	335.204196
2337.830110	334.450350
2339.385345	339.162238
2340.940285	320.888811
2342.494932	308.496503
2344.049285	290.138462
2345.603344	286.401399
2347.157110	279.412587
2348.708931	285.068531
2350.258809	290.125175
2351.811695	276.923077
2353.359339	290.979720
2354.909990	291.166434
2356.457051	295.786713
2358.005469	305.434266
2359.553595	315.186014
2361.098134	329.495105
2362.644030	354.599301
2364.187987	378.702797
2365.733302	378.646853
2367.275032	371.146154
2368.818120	370.045455
2370.359271	357.251748
2371.900133	362.149650
2373.440706	363.405594
2374.980990	358.876224
2376.520985	377.103497
2378.057401	390.569231
2379.596819	400.719580
2381.132660	414.033566
2382.669857	404.146853
2384.203480	390.844056
2385.740102	386.005594
2387.274793	383.958741
2388.807555	379.369930
2390.340031	367.055245
2391.870578	358.222378
2393.404123	349.840559
2394.932457	370.715385
2396.462147	383.406993
2397.991552	377.389510
2399.520672	364.726573
2401.049506	369.595804
2402.573136	373.383217
2404.101401	384.718182
2405.624463	374.411888
2407.152160	374.687413
2408.673016	345.402098
2410.198506	347.444755
2411.720436	351.325874
2413.243720	351.439161
2414.765084	359.044755
2416.284528	346.348252
2417.805327	339.855944
2419.324207	364.984615
2420.842805	372.460839
2422.359486	376.643357
2423.877522	374.978322
2425.395276	375.644056
2426.909478	370.397902
2428.423400	376.717483
2429.937043	375.358042
2431.452039	372.344755
2432.963487	378.569231
2434.476290	369.454545
2435.987180	370.757343
2437.497790	376.344056
2439.006489	382.224476
2440.518175	378.939161
2442.026317	384.331469
2443.534180	398.586713
2445.041766	390.635664
2446.545812	401.051049
2448.052842	400.794406
2449.557964	409.388811
2451.062809	418.302098
2452.565747	410.913287
2454.068408	403.546154
2455.570793	394.248951
2457.071273	387.915385
2458.573106	378.072727
2460.073035	374.603497
2461.572688	380.669231
2463.072066	377.362937
2464.569541	387.121678
2466.065114	386.820979
2467.563667	409.278322
2469.058691	425.697902
2470.555069	412.243357
2472.047920	401.793706
2473.542123	402.717483
2475.036053	383.391608
2476.526460	371.861538
2478.019844	365.078322
2479.511329	372.416084
2481.000918	385.474825
2482.490236	367.130769
2483.977657	367.786713
2485.468054	381.594406
2486.954932	374.730769
2488.443162	364.881119
2489.927876	351.730769
2491.412319	349.309790
2492.898114	327.761538
2494.382016	318.783217
2495.867270	323.511189
2497.347390	329.129371
2498.830482	308.890210
2500.311684	296.748951
2501.792617	307.874126
2503.271661	322.085315
2504.750437	328.876224
2506.228944	352.974825
2507.707182	356.479720
2509.185152	364.686014
2510.659618	352.998601
2512.137052	351.362937
2513.610983	368.992308
2515.086265	348.658042
2516.561279	337.794406
2518.032792	341.357343
2519.505656	347.574825
2520.976637	348.953147
2522.448967	368.083217
2523.916185	381.472727
2525.386369	384.474825
2526.854671	380.315385
2528.322709	360.155245
2529.790482	349.839161
2531.257990	342.389510
2532.725233	324.546853
2534.188985	333.030070
2535.654086	324.512587
2537.117310	347.306294
2538.581883	344.044755
2540.042967	357.851748
2541.505402	373.696503
2542.967573	378.109091
2544.426257	378.151748
2545.889514	372.653147
2547.347674	366.232867
2548.807183	356.365734
2550.261599	352.400000
2551.720585	359.098601
2553.177698	374.811888
2554.632941	389.938462
2556.087923	382.096503
2557.541035	369.752448
2558.995496	369.345455
2560.448088	348.332867
2561.900420	330.526573
2563.350884	343.234965
2564.804304	349.227972
2566.252642	354.883217
2567.703936	366.167832
2569.153363	391.643357
2570.599319	431.814685
2572.048229	442.224476
2573.493668	439.072727
2574.940456	415.030769
2576.385380	409.251049
2577.830047	394.665734
2579.276061	392.234266
2580.718608	397.574825
2582.162503	388.001399
2583.602933	375.434965
2585.044711	393.286713
2586.484629	394.567832
2587.925894	413.631469
2589.363697	415.702797
2590.804450	408.320280
2592.240140	400.895105
2593.678780	408.200699
2595.115563	398.509091
2596.550489	404.753846
2597.988364	402.254545
2599.421181	397.772028
2600.855345	390.377622
2602.287654	390.974825
2603.721310	385.996503
2605.153113	399.895105
2606.584663	401.127972
2608.015959	391.075524
2609.445404	389.183217
2610.874596	380.416084
2612.301937	371.686014
2613.730625	390.454545
2615.159060	401.797902
2616.584049	409.597203
2618.010383	407.464336
2619.434869	408.551748
2620.860701	409.937762
2622.283089	399.867133
2623.706823	393.385315
2625.128711	390.218182
2626.550348	386.958042
2627.970140	377.036364
2629.391278	386.909790
2630.812166	392.569231
2632.229616	398.016783
2633.650005	402.690909
2635.066957	393.904196
2636.483661	391.152448
2637.900116	362.564336
2639.316323	364.548951
2640.732281	382.272727
2642.146399	386.917483
2643.560270	381.583916
2644.972301	392.524476
2646.385677	407.356643
2647.795623	404.182517
2649.208505	404.932867
2650.617958	402.469930
2652.027165	398.555944
2653.434536	399.987413
2654.844841	399.114685
2656.253310	413.893007
2657.659944	421.335664
2659.066333	415.290210
2660.470888	417.887413
2661.876787	412.909091
2663.280853	422.212587
2664.684675	421.785315
2666.088252	423.437063
2667.489997	417.843357
2668.893086	429.827273
2670.292758	439.629371
2671.693773	442.006993
2673.091371	431.347552
2674.491900	444.671329
2675.889014	429.572028
2677.287471	430.151049
2678.684100	414.283916
2680.080488	426.415385
2681.476633	430.269930
2682.870952	422.850350
2684.266614	418.671329
2685.658866	439.725874
2687.052462	436.577622
2688.444233	439.462937
2689.837346	435.891608
2691.228636	444.907692
2692.618103	422.120280
2694.007331	427.067832
2695.396318	406.800000
2696.786648	401.031469
2698.171993	404.100699
2699.560263	385.776224
2700.946712	394.283217
2702.332922	401.841958
2703.718893	404.730070
2705.101466	409.092308
2706.485380	407.657343
2707.869057	418.603497
2709.252496	428.169231
2710.632539	435.211189
2712.013924	427.174825
2713.393493	449.626573
2714.774404	459.268531
2716.153500	460.009790
2717.530781	466.117483
2718.909404	458.369231
2720.286214	455.470629
2721.662788	428.640559
2723.039126	403.502098
2724.413652	396.043357
2725.789519	395.864336
2727.161999	385.604895
2728.537396	387.017483
2729.907831	401.511888
2731.279608	415.959441
2732.651151	440.444755
2734.020885	455.854545
2735.391959	474.527972
2736.761226	485.587413
2738.130259	476.908392
2739.497485	475.159441
2740.864479	476.946853
2742.231240	478.906993
2743.597768	466.138462
2744.962492	449.086713
2746.326983	447.763636
2747.691242	450.841958
2749.055270	451.071329
2750.419065	448.101399
2751.779487	445.643357
2753.142820	449.102098
2754.501210	440.571329
2755.862510	443.808392
2757.220439	437.740559
2758.581278	432.755944
2759.940316	426.965035
2761.295986	419.686014
2762.654565	425.448252
2764.009776	425.988811
2765.364758	432.052448
2766.717943	434.755245
2768.074035	441.813287
2769.426763	463.526573
2770.779262	451.958042
2772.131533	459.116084
2773.485143	462.117483
2774.835391	463.395804
2776.183846	457.234266
2777.535205	440.102098
2778.883205	424.883916
2780.232544	427.530769
2781.580090	416.723077
2782.927409	420.816783
2784.274502	407.646154
2785.619804	397.711888
2786.964880	395.755944
2788.309730	392.871329
2789.654354	391.655944
2790.995625	413.330070
2792.338235	430.597203
2793.680620	438.998601
2795.022779	449.839161
2796.361589	464.246853
2797.703299	474.778322
2799.041660	484.650350
2800.381359	473.033566
2801.719272	466.630070
2803.055401	466.196503
2804.391307	447.703497
2805.728549	433.641259
2807.064008	447.496503
2808.399244	461.097902
2809.732698	458.702098
2811.067488	458.945455
2812.398937	458.114685
2813.733282	482.452448
2815.062729	479.668531
2816.393513	494.838462
2817.724075	476.209790
2819.052858	464.401399
2820.382978	451.862238
2821.711318	439.946853
2823.039438	456.651748
2824.365781	454.198601
2825.693459	462.739161
2827.017805	472.995105
2828.343486	481.046154
2829.667393	498.365734
2830.991079	485.700699
2832.316101	493.641259
2833.637794	464.146853
2834.959267	456.374825
2836.280522	444.209091
2837.601558	441.962238
2838.920822	450.662238
2840.241421	433.269930
2841.560248	451.886713
2842.878857	456.776923
2844.195696	462.829371
2845.512317	468.227273
2846.828720	468.996503
2848.143355	467.328671
2849.459324	476.945455
2850.771973	480.739860
2852.085958	469.268531
2853.399726	472.027273
2854.713277	463.494406
2856.025061	446.101399
2857.335080	451.685315
2858.646433	441.516084
2859.954470	438.266434
2861.263843	444.245455
2862.573000	450.967133
2863.881942	437.612587
2865.189121	454.386014
2866.494536	463.667133
2867.801286	475.576923
2869.106273	476.741958
2870.411047	463.927273
2871.714059	488.643357
2873.019953	488.648951
2874.320992	490.231469
2875.623364	492.587413
2876.923977	503.745455
2878.225924	491.404895
2879.527658	478.652448
2880.826088	470.956643
2882.125851	476.649650
2883.423857	472.274825
2884.721651	466.449650
2886.017688	458.925175
2887.315059	469.083217
2888.610674	440.675524
2889.906079	436.930769
2891.201272	431.579720
2892.493167	447.341958
2893.787939	443.400699
2895.079415	454.000699
2896.372223	455.522378
2897.664821	476.353147
2898.954124	493.622378
2900.244760	501.856643
2901.533646	482.341958
2902.823863	476.508392
2904.110789	468.625175
2905.399047	478.909091
2906.685556	493.187413
2907.971856	518.982517
2909.257948	519.580420
2910.542292	511.899301
2911.829508	514.123077
2913.111897	517.611888
2914.395618	507.152448
2915.677592	494.714685
2916.959360	498.414685
2918.239382	498.779021
2919.522274	502.016783
2920.803421	515.249650
2922.081286	522.960839
2923.362020	520.544056
2924.639473	508.441958
2925.916721	497.993007
2927.192226	501.101399
2928.470599	475.911888
2929.744157	474.700699
2931.020583	483.241259
2932.295268	497.969930
2933.568213	496.336364
2934.842488	505.944755
2936.115024	531.164336
2937.387356	546.669930
2938.656415	545.630769
2939.928339	555.016084
2941.198525	545.346154
2942.468507	536.714685
2943.738286	500.151049
2945.006328	507.427972
2946.272635	497.170629
2947.538739	492.700699
2948.806174	490.871329
2950.071873	494.818182
2951.337370	521.036364
2952.602665	525.126573
2953.864696	513.667133
2955.128056	526.100000
2956.391215	524.699301
2957.652641	525.123077
2958.915397	520.381818
2960.176422	533.623077
2961.435716	531.186713
2962.694809	539.829371
2963.953702	526.166434
2965.212395	529.093007
2966.470888	527.213287
2967.727652	503.349650
2968.984217	478.997902
2970.239053	488.660140
2971.495219	496.185315
2972.748129	495.445455
2974.002369	497.290909
2975.256410	511.949650
2976.508725	533.783217
2977.760842	543.443357
2979.011234	540.808392
2980.264481	553.446853
2981.512951	538.776224
2982.764275	522.887413
2984.012351	514.797902
2985.260229	518.723077
2986.507910	514.355944
2987.755395	507.256643
2989.001158	509.260839
2990.246724	518.627972
2991.493619	520.395105
2992.737268	522.639161
2993.982246	534.239860
2995.223981	535.025175
2996.468567	532.502098
2997.711434	534.923776
2998.951059	533.624476
3000.193536	529.770629
3001.432772	522.669930
3002.673336	538.799301
3003.912183	537.323776
3005.150836	527.903497
3006.387773	520.439161
3007.626037	534.255245
3008.862587	544.264336
3010.098943	552.235664
3011.335105	554.555245
3012.569553	567.654545
3013.803808	576.349650
3015.037870	564.903497
3016.270220	565.527972
3017.500858	577.035664
3018.734342	562.620979
3019.966115	551.725175
3021.196176	543.207692
3022.426046	544.113986
3023.654206	551.523077
3024.883693	539.805594
3026.111470	533.688811
3027.339056	542.979021
3028.567968	555.322378
3029.792138	541.497902
3031.019151	559.828671
3032.242941	568.766434
3033.468056	574.242657
3034.691465	576.791608
3035.914685	570.384615
3037.136199	568.279021
3038.360554	565.143357
3039.580174	546.914685
3040.801120	559.666434
3042.021876	562.302098
3043.240929	572.621678
3044.461308	566.065035
3045.678470	564.395804
3046.896957	557.219580
3048.113743	549.759441
3049.330340	552.986713
3050.546750	532.155944
3051.759946	533.389510
3052.975980	535.591608
3054.188802	541.443357
3055.404461	553.258042
3056.615397	547.494406
3057.827659	548.139161
3059.039733	549.790909
3060.251621	540.480420
3061.461811	532.718182
3062.671816	532.644406
3063.881634	549.725874
3065.089756	543.257692
3066.297692	556.309091
3067.503934	561.620629
3068.711500	559.613287
3069.917371	556.387762
3071.123057	554.177622
3072.328559	555.128322
3073.532367	552.523776
3074.737499	541.007343
3075.940938	529.969930
3077.142685	536.498252
3078.344249	539.589510
3079.545629	527.396503
3080.746825	516.858042
3081.946331	503.976224
3083.145653	501.901399
3084.346299	510.207692
3085.545256	517.093706
3086.741017	526.830769
3087.939608	529.702098
3089.135005	531.700000
3090.331726	523.287413
3091.525254	531.053147
3092.721610	529.345455
3093.916279	535.574825
3095.107758	532.629371
3096.303568	535.230070
3097.494685	554.841958
3098.687125	566.534965
3099.876376	577.327273
3101.068454	589.452448
3102.258848	589.922378
3103.446055	586.497902
3104.634586	571.586014
3105.824439	569.551049
3107.011107	579.690909
3108.197596	594.628671
3109.383905	595.177622
3110.571537	602.741259
3111.755986	611.254545
3112.938755	615.371329
3114.124348	617.403497
3115.308260	617.893007
3116.490494	604.972727
3117.672550	590.826573
3118.854427	571.031469
3120.036126	562.937762
3121.216148	574.176224
3122.394492	567.378322
3123.575658	574.924476
3124.753648	580.353147
3125.931461	598.332168
3127.109097	606.839860
3128.285058	613.495105
3129.460843	621.774825
3130.637948	604.964336
3131.813380	593.901399
3132.987138	574.669930
3134.159223	563.376923
3135.332629	547.745455
3136.505860	524.372028
3137.677418	525.052448
3138.850298	531.291608
3140.020010	548.360140
3141.191043	550.244056
3142.360405	561.363636
3143.528098	585.088811
3144.698606	595.479720
3145.864455	613.388811
3147.034614	606.247552
3148.200115	597.359441
3149.365443	597.244056
3150.530597	593.704196
3151.695578	605.579021
3152.861878	618.161538
3154.023525	619.518182
3155.186493	608.055245
3156.349287	609.516084
3157.511909	611.069231
3158.672866	609.544056
3159.833650	612.545455
3160.994263	590.018881
3162.153211	574.012587
3163.311987	577.317483
3164.470592	573.134965
3165.629025	573.830070
3166.787286	577.946853
3167.943885	588.734965
3169.098823	601.065734
3170.255080	615.305594
3171.409677	628.818182
3172.564102	639.583916
3173.716868	653.960839
3174.869464	655.294406
3176.021890	656.469231
3177.174145	648.377622
3178.326231	647.195804
3179.475170	635.934266
3180.626916	630.386713
3181.777005	632.417483
3182.925436	641.202797
3184.073699	651.044056
3185.221793	675.966434
3186.369717	672.299301
3187.515987	679.290909
3188.662088	676.020979
3189.806535	666.714685
3190.950813	644.834266
3192.094924	643.082517
3193.240353	632.616783
3194.382643	614.127972
3195.524765	594.936364
3196.666721	596.113986
3197.808509	603.330769
3198.950130	615.137762
3200.088615	612.719580
3201.228419	623.283916
3202.369539	622.453147
3203.507525	635.572727
3204.643862	638.502797
3205.780033	650.937762
3206.917522	667.207692
3208.053362	670.622378
3209.190518	660.349650
3210.323063	666.252448
3211.459888	669.060140
3212.592102	663.540559
3213.725634	659.132867
3214.859000	645.244755
3215.989239	626.839860
3217.122277	626.241958
3218.252187	612.848951
3219.383415	613.993007
3220.511517	610.948951
3221.642417	603.428671
3222.771672	594.172028
3223.899283	595.998601
3225.023773	605.872727
3226.152538	608.807692
3227.278181	623.115385
3228.403661	629.369231
3229.527500	632.590909
3230.654134	648.747552
3231.776169	666.813986
3232.899521	675.941958
3234.022711	670.308392
3235.145739	666.313287
3236.267127	656.626573
3237.388354	658.409091
3238.507942	662.010490
3239.627369	655.970629
3240.745159	656.735664
3241.865740	645.067133
3242.983208	630.148252
3244.100515	648.123776
3245.217661	659.894406
3246.333172	666.894406
3247.449998	679.502098
3248.563713	686.753147
3249.680219	688.441259
3250.795089	704.748951
3251.906851	714.827273
3253.018454	726.395804
3254.131372	725.560839
3255.244130	713.942657
3256.353782	710.939860
3257.464749	721.454545
3258.575557	723.965035
3259.684733	722.626573
3260.792278	724.705594
3261.901138	709.668531
3263.009839	698.927972
3264.115438	700.373427
3265.222352	699.288811
3266.327636	690.886014
3267.434234	676.860140
3268.537732	677.799301
3269.642544	674.609091
3270.747199	694.776923
3271.848756	711.088811
3272.950156	726.151049
3274.052870	728.405594
3275.155427	725.792308
3276.254889	734.248951
3277.357133	741.399301
3278.456283	732.603497
3279.553807	730.782517
3280.651176	723.777622
3281.751328	710.514685
3282.848386	701.159441
3283.945290	707.079720
3285.042038	695.316783
3286.134227	685.124476
3287.230666	666.768531
3288.325482	673.848252
3289.420143	663.909790
3290.513183	653.995804
3291.606069	655.344056
3292.697334	660.032168
3293.789912	653.095105
3294.880870	652.867832
3295.970208	666.236364
3297.059393	681.560140
3298.149890	694.143357
3299.237303	705.475524
3300.324564	714.436364
3301.413137	738.737762
3302.501557	738.622378
3303.585430	743.532168
3304.673545	747.230070
3305.758579	755.769930
3306.841997	744.964336
3307.926727	735.899301
3309.009841	727.367133
3310.094267	725.871329
3311.175615	719.918182
3312.258275	716.634965
3313.339321	709.246853
3314.420216	721.725175
3315.499498	738.378322
3316.578629	750.762937
3317.659072	741.791608
3318.736440	751.341958
3319.815120	744.945455
3320.892188	744.972727
3321.969106	739.468531
3323.044414	737.934266
3324.119572	745.652448
3325.196041	743.499301
3326.269439	742.208392
3327.342689	737.990909
3328.417250	752.576224
3329.490201	758.242657
3330.561545	750.132867
3331.634199	754.712587
3332.703786	762.618182
3333.774684	779.673427
3334.843975	787.488811
3335.914577	794.371329
3336.983572	801.525175
3338.050961	785.580420
3339.116745	784.113986
3340.186755	770.502098
3341.253702	761.578322
3342.317587	768.829371
3343.384240	753.406294
3344.449289	741.112587
3345.512734	745.776923
3346.576032	754.559441
3347.639185	769.770629
3348.702191	766.886713
3349.765050	771.697902
3350.826308	772.111888
3351.884509	780.820979
3352.946931	778.975524
3354.006296	778.032867
3355.065517	792.804895
3356.126046	773.880420
3357.182066	762.665035
3358.240851	758.451748
3359.295128	755.406294
3360.352169	760.358042
3361.407611	762.453846
3362.464362	777.297902
3363.519516	781.604895
3364.573072	785.118182
3365.625031	792.063636
3366.679752	786.841259
3367.731425	789.384615
3368.782953	782.251049
3369.835791	770.056643
3370.885581	765.590909
3371.936680	770.410490
3372.984732	772.706294
3374.035545	792.991608
3375.083312	798.190210
3376.130937	791.439860
3377.178420	793.694406
3378.224309	792.821678
3379.271508	789.384615
3380.315663	786.218182
3381.362577	781.028671
3382.407899	779.202797
3383.450181	781.389510
3384.492321	792.694406
3385.535770	805.021678
3386.579077	814.225874
3387.620794	815.313287
3388.662370	818.248252
3389.703806	827.667133
3390.743653	821.094406
3391.781911	814.415385
3392.821477	805.432168
3393.860903	807.976923
3394.898741	812.132867
3395.934992	803.948951
3396.971103	815.305594
3398.008522	809.167133
3399.042908	809.157343
3400.078602	809.867832
3401.114156	815.304196
3402.146678	827.693007
3403.181954	820.937762
3404.214199	823.243357
3405.246306	829.180420
3406.276829	834.825874
3407.308660	833.149650
3408.340352	823.520979
3409.369016	816.655944
3410.397542	800.039860
3411.427376	799.896503
3412.457072	801.053846
3413.483741	798.741958
3414.511718	803.444056
3415.536670	798.054545
3416.564372	811.327273
3417.589051	814.158042
3418.615036	820.058042
3419.639442	832.935664
3420.663710	832.554545
3421.686400	821.795804
3422.708955	812.479720
3423.732814	809.946853
3424.753654	808.142657
3425.774359	794.609590
3426.796369	784.338786
3427.815361	780.444755
3428.834218	786.042008
3429.854381	804.245055
3430.871526	838.168407
