-118.385087	18.933242
-115.715486	20.971429
-113.048821	22.767183
-110.382909	24.242358
-107.719928	25.318806
-105.055517	25.918382
-102.394037	25.962937
-99.731128	24.744755
-97.073326	22.115385
-94.414093	20.018881
-91.755609	19.043357
-89.100050	20.443357
-86.443062	17.180420
-83.791171	15.984615
-81.137851	15.304196
-78.487451	16.330070
-75.835621	16.271329
-73.188882	19.307692
-70.540713	19.741958
-67.893288	20.123077
-65.248776	19.683217
-62.602835	24.664336
-59.961977	25.630769
-57.319688	28.283217
-54.680309	27.358042
-52.039501	28.583916
-49.399432	26.976923
-46.764437	29.317483
-44.128012	30.909091
-41.494491	34.225874
-38.859540	35.461538
-36.229656	37.958042
-33.596178	38.976923
-30.967763	44.383916
-28.340082	44.548951
-25.710973	30.103497
-23.086920	-88.568531
-20.459278	-458.897902
-17.836689	-1285.082517
-15.214831	-1656.583916
-12.593704	1130.225874
-9.973308	6304.365035
-7.355799	10783.839860
-4.736862	13938.084615
-2.120811	15735.731469
0.494512	16180.525874
3.109108	15269.725874
5.720822	13029.232867
8.333963	9517.924476
10.942071	5039.840559
13.553761	440.351748
16.160420	-2334.897902
18.768507	-1719.247552
21.375870	-227.917483
23.978208	54.376224
26.584124	58.277622
29.185019	51.610490
31.787341	46.379720
34.384645	37.597203
36.985525	33.101399
39.581391	26.665734
42.178684	26.739860
44.775258	28.333566
47.366823	29.707692
49.959816	28.974825
52.549948	29.531469
55.141508	30.911888
57.730208	31.101399
60.320336	31.953147
62.905464	34.446853
65.492020	30.837762
68.077861	32.401399
70.660849	30.530070
73.245264	30.496503
75.822549	27.297902
78.403401	24.673427
80.981404	24.953846
83.558697	25.069231
86.137416	23.961538
88.711154	28.411888
91.286318	30.610490
93.858639	34.448951
96.430253	33.946154
98.999026	36.661538
101.569226	36.440559
104.136587	35.453147
106.705375	34.304895
109.271325	33.108392
111.834441	33.193007
114.401114	35.143357
116.958564	38.155944
119.521700	46.827273
122.079877	58.137762
124.641607	81.904196
127.198382	120.409091
129.756582	178.474126
132.309830	251.627972
134.862379	341.498601
137.418480	444.194406
139.969632	545.045455
142.520086	644.062937
145.069844	743.911189
147.616782	821.123077
150.163024	884.877622
152.710693	924.082517
155.257665	950.055245
157.799701	962.685315
160.341044	966.431469
162.881695	960.348252
165.423770	951.739161
167.963035	936.902098
170.499490	919.799301
173.035255	908.355245
175.572445	904.830070
178.108943	900.451748
180.642636	908.362238
183.173526	913.619580
185.703727	924.701399
188.235353	936.367133
190.764179	953.857343
193.290205	967.813986
195.815545	980.255245
198.342310	986.684615
200.866279	992.059441
203.389562	991.969930
205.912161	991.543357
208.431967	990.059441
210.951090	991.697203
213.469530	990.404895
215.989394	988.192308
218.502257	986.865035
221.018651	984.547552
223.534364	978.704196
226.045186	975.990909
228.557433	972.807692
231.066897	968.376923
233.575683	964.151748
236.083791	965.644755
238.593323	967.715385
241.097974	973.872028
243.601949	976.849650
246.107348	979.788811
248.607872	990.856643
251.111919	1052.040559
253.608996	1209.013287
256.109595	1454.916783
258.607423	1708.829371
261.104578	1918.710490
263.601060	2057.668531
266.092680	2110.716084
268.587818	2070.240559
271.080191	1944.608392
273.571893	1751.437762
276.060832	1518.496503
278.551194	1298.948252
281.038795	1153.236364
283.523636	1093.446154
286.011991	1092.472727
288.493408	1084.355245
290.978338	1068.550350
293.458422	1037.009790
295.942019	1000.710490
298.420774	960.995105
300.900951	926.705594
303.378377	901.986014
305.855139	896.743357
308.331237	915.336364
310.804587	945.650350
313.277276	974.275524
315.749303	1004.937762
318.220668	1030.379720
320.689290	1048.702098
323.157252	1055.506294
325.626637	1058.741259
328.091199	1044.984615
330.559264	1024.644755
333.022510	1000.292308
335.485099	982.153846
337.947030	969.446154
340.408305	962.737063
342.866846	962.427972
345.326809	961.312587
347.784040	959.243357
350.240616	956.825175
352.696537	956.439161
355.149730	951.983916
357.604345	943.244755
360.054158	939.201399
362.507467	933.144056
364.955977	927.500699
367.403837	922.244056
369.853118	916.206993
372.297606	911.929371
374.743516	905.725874
377.188777	900.711189
379.631319	898.694406
382.073213	893.640559
384.514459	888.579021
386.952990	885.307692
389.392943	885.489510
391.830182	884.053147
394.264709	889.201399
396.702724	895.123077
399.135962	895.670629
401.570622	898.727273
404.000509	902.791608
406.433881	905.666434
408.862482	906.916783
411.290443	906.271329
413.719824	908.667133
416.144441	903.839860
418.570478	904.938462
420.995876	905.494406
423.420633	905.802797
425.840631	905.774126
428.262051	901.592308
430.680774	902.399301
433.100918	902.840559
435.518367	901.938462
437.937236	907.055245
440.353412	908.332168
442.764841	912.579021
445.179746	914.446154
447.591961	918.128671
450.003542	920.679720
452.414489	918.425874
454.822750	918.335664
457.230379	916.165035
459.637375	914.204196
462.043739	909.375524
464.447422	903.408392
466.850474	900.211888
469.252896	894.865734
471.654688	897.020979
474.053802	897.869231
476.454336	900.505594
478.854241	905.014685
481.249423	907.523077
483.648072	911.785315
486.042001	916.726573
488.435304	914.495804
490.827981	909.818182
493.220033	900.979720
495.613504	891.820979
498.002262	880.879021
500.388354	871.568531
502.775866	854.546853
505.162754	835.418881
507.546979	815.655944
509.932623	800.113287
512.315604	783.585315
514.695925	769.516783
517.077665	756.570629
519.456746	748.574126
521.837246	744.623077
524.215088	743.811189
526.590275	742.352448
528.964844	745.185315
531.340832	737.726573
533.714166	730.796503
536.088919	725.313287
538.458985	718.678322
540.828436	705.176923
543.199306	693.298601
545.565494	687.520280
547.933101	682.256643
550.298062	680.778322
552.662410	678.858741
555.026146	677.111888
557.391299	680.518881
559.751780	676.911189
562.113678	675.886713
564.472937	676.303497
566.829557	673.523776
569.189623	670.711888
571.542997	666.756643
573.899816	668.009790
576.254000	665.493706
578.607575	664.232867
580.960542	660.823776
583.310878	656.941958
585.662630	656.491608
588.007706	651.449650
590.358246	653.080420
592.702113	656.952448
595.051441	657.136364
597.396120	658.627972
599.738175	657.577622
602.081647	660.000000
604.422496	660.560839
606.762742	663.200699
609.100368	662.427273
611.441429	660.614685
613.777853	657.709091
616.115693	653.966434
618.450915	652.990210
620.783522	648.237762
623.117546	644.767832
625.448955	638.225874
627.779766	636.397203
630.109979	634.851049
632.439595	634.991608
634.764587	639.632867
637.095021	641.446154
639.420833	641.480420
641.744039	643.774825
644.068661	646.305594
646.390677	644.956643
648.712099	642.912587
651.030918	646.728671
653.351153	643.095804
655.670795	646.216783
657.987836	645.511189
660.304286	642.988112
662.618137	642.340559
664.933403	638.679021
667.246073	636.463636
669.560158	638.978322
671.869644	638.467133
674.180544	638.292308
676.488852	640.532168
678.796572	644.759441
681.105707	642.809091
683.410249	642.687413
685.714205	640.755944
688.017574	636.702797
690.322358	628.381119
692.622556	621.972727
694.924169	617.466434
697.225196	614.596503
699.521642	609.953147
701.819502	607.555944
704.116780	610.297203
706.413473	612.136364
708.705591	613.065035
711.001120	615.402797
713.292076	617.206294
715.584446	618.002797
717.874240	615.632168
720.163455	614.840559
722.452089	614.400699
724.738152	610.004895
727.025628	608.983217
729.310534	606.069930
731.594861	605.962937
733.876621	605.057343
736.159794	606.481818
738.442390	606.539860
740.720430	602.914685
742.999884	604.658741
745.278763	605.193007
747.557066	605.418182
749.830820	608.850350
752.105988	606.159441
754.380582	609.626573
756.652617	608.323077
758.926065	606.194406
761.196955	605.920979
763.465288	606.833566
765.735036	604.849650
768.002228	604.158042
770.268850	607.396503
772.534903	608.411888
774.798404	614.809091
777.063317	616.609790
779.327662	616.686014
781.587476	621.272727
783.848704	621.177622
786.109364	620.141958
788.367477	622.865035
790.623046	624.962238
792.882006	622.933566
795.134467	620.632168
797.392295	619.703497
799.645604	618.622378
801.896372	617.981818
804.148553	614.258741
806.398196	614.772028
808.649250	611.960839
810.895793	603.915385
813.143749	599.534266
815.389169	599.504196
817.636002	592.486014
819.882272	588.965734
822.124039	583.566434
824.369188	579.767133
826.607865	580.905594
828.849925	577.048951
831.087486	578.168531
833.326458	580.190210
835.562904	578.689510
837.800762	576.102797
840.036094	574.741259
842.268902	576.250350
844.503122	577.365734
846.734820	579.830769
848.965963	578.610490
851.196551	578.323077
853.426585	574.987413
855.656064	564.469930
857.881063	561.759441
860.109435	560.887413
862.333329	561.081119
864.558633	562.867832
866.779462	564.993007
869.003663	567.775524
871.223391	571.860839
873.444530	574.267133
875.665118	580.106294
877.883197	583.405594
880.102685	583.283916
882.317707	581.490210
884.532181	585.555245
886.746108	589.282517
888.959487	591.507692
891.172320	592.959441
893.384605	596.643357
895.594389	594.455944
897.803627	593.711189
900.012319	593.627273
902.218513	588.636364
904.426116	590.972727
906.631222	593.942657
908.835784	585.955944
911.037851	589.188811
913.241327	584.846853
915.442309	583.712587
917.642749	587.790909
919.844598	589.669930
922.040056	588.233566
924.238872	590.976923
926.433251	591.930769
928.630987	596.769231
930.824287	605.518182
933.018995	610.815385
935.211218	607.520280
937.402903	614.319580
939.594050	608.825175
941.782714	614.267133
943.970841	612.255944
946.156488	605.319580
948.345487	606.890210
950.530063	615.016783
952.714104	616.209790
954.901495	618.894406
957.080583	615.030070
959.263020	613.308392
961.444924	619.673427
963.624354	622.899301
965.801311	623.760140
967.979676	636.709790
970.159447	641.432867
972.332870	646.068531
974.509639	664.971329
976.682002	666.854545
978.855771	666.072727
981.025138	672.052448
983.197848	661.806993
985.368092	654.900699
987.537808	667.274126
989.706995	670.906294
991.871785	688.329371
994.039917	701.305594
996.203653	715.701399
998.368797	718.388811
1000.531481	724.673427
1002.693640	727.296503
1004.853341	739.011888
1007.012519	735.806294
1009.173103	716.005594
1011.331232	706.067832
1013.488837	712.138462
1015.645919	724.060140
1017.802478	737.539161
1019.954657	732.547552
1022.108243	750.380420
1024.261306	747.634266
1026.411922	754.247552
1028.563943	764.671329
1030.711591	766.900699
1032.862571	756.987413
1035.009181	747.844056
1037.155271	748.889510
1039.300843	744.895804
1041.447819	750.694406
1043.588508	753.495804
1045.732525	755.221678
1047.874103	766.269930
1050.015163	782.084615
1052.157628	782.481818
1054.293814	777.516084
1056.433326	765.688112
1058.568482	770.513287
1060.706963	787.546154
1062.841091	803.892308
1064.974705	801.577622
1067.109723	802.902797
1069.240392	796.208392
1071.372467	792.572028
1073.502111	770.641259
1075.631244	790.499301
1077.759866	765.093007
1079.887976	740.187413
1082.013660	728.087413
1084.138834	739.545455
1086.265411	769.286014
1088.387652	768.390210
1090.511297	765.778322
1092.630607	756.504895
1094.755146	738.091608
1096.873441	731.037762
1098.993139	719.517483
1101.110419	738.690909
1103.227193	728.705594
1105.343460	724.523776
1107.457312	719.564336
1109.572567	728.518881
1111.683500	741.212587
1113.797744	729.022378
1115.907669	729.864336
1118.018996	719.419580
1120.129820	697.443357
1122.236327	689.862937
1124.346143	689.874825
1126.451645	693.395105
1128.558551	691.397902
1130.659240	693.968531
1132.765142	688.385315
1134.866735	695.776923
1136.969731	700.802098
1139.072226	699.223077
1141.168515	700.695804
1143.270010	690.386713
1145.367203	675.523077
1147.463897	672.150350
1149.560094	677.684615
1151.655792	676.462238
1153.750993	663.211888
1155.843797	655.084615
1157.938003	648.165734
1160.026018	649.498601
1162.119231	650.507692
1164.206256	636.977622
1166.296581	641.289510
1168.382617	642.265734
1170.471951	648.663636
1172.555104	663.513986
1174.639660	668.402098
1176.725616	665.860140
1178.807291	668.190210
1180.890368	661.292308
1182.971059	665.193007
1185.051259	659.930070
1187.130967	649.497902
1189.210183	636.318881
1191.287018	636.554545
1193.361472	632.598601
1195.439218	643.748252
1197.512693	643.287413
1199.587570	645.728671
1201.658179	654.932867
1203.730189	663.595804
1205.799823	655.040559
1207.870858	656.088811
1209.941405	642.214685
1212.007691	636.063636
1214.075378	619.883916
1216.140693	613.755944
1218.207408	608.392308
1220.269867	604.410490
1222.335612	598.388112
1224.397102	606.168531
1226.459992	601.272028
1228.520515	607.528671
1230.580555	609.265734
1232.640111	613.174825
1234.697303	613.135664
1236.754012	620.150350
1238.808359	618.481119
1240.865986	623.302098
1242.921251	623.769231
1244.972275	618.577622
1247.024699	621.695105
1249.076644	619.796503
1251.126230	622.116084
1253.175337	630.465035
1255.223965	621.119580
1257.272115	625.341958
1259.319787	619.192308
1261.363228	608.490909
1263.409944	602.162238
1265.454308	593.287413
1267.498194	596.201399
1269.539730	598.191608
1271.578916	602.960839
1273.621374	614.277622
1275.659611	617.916783
1277.699245	625.803497
1279.738405	628.566434
1281.773347	637.350350
1283.809687	629.313287
1285.843682	630.197203
1287.879076	643.451049
1289.910256	650.753846
1291.942835	652.812587
1293.974941	651.855245
1296.004707	641.903497
1298.035871	642.851049
1300.062827	635.303497
1302.091181	631.926573
1304.115331	625.072727
1306.142746	615.294406
1308.165958	606.582517
1310.190568	617.851748
1312.212843	624.441958
1314.236516	628.265734
1316.257856	621.708392
1318.278729	624.437063
1320.299134	621.361538
1322.315345	627.988112
1324.332955	634.439860
1326.348236	626.023776
1328.366776	630.195105
1330.381126	618.446154
1332.393151	613.839161
1334.408434	613.316084
1336.419531	603.966434
1338.432024	600.346853
1340.440335	598.602797
1342.451902	593.548951
1344.457430	590.274825
1346.466212	589.042657
1348.470818	590.835664
1350.478677	587.364336
1352.486073	592.945455
1354.487439	588.739860
1356.490202	592.908392
1358.492505	588.946154
1360.494347	589.906993
1362.495731	591.694406
1364.494800	589.596503
1366.493411	590.457343
1368.491564	595.482517
1370.489259	596.996503
1372.482790	591.039161
1374.477718	594.010490
1376.472189	594.946853
1378.466203	596.508392
1380.457910	596.286713
1382.449161	590.323077
1384.438107	585.959441
1386.428448	585.983916
1388.418334	581.144755
1390.405917	591.206294
1392.393046	592.402797
1394.377873	590.046154
1396.364095	586.818881
1398.348016	588.486014
1400.331485	588.076923
1402.314502	596.739161
1404.295221	599.258042
1406.277334	593.683916
1408.257150	593.311888
1410.236516	596.614685
1412.211743	598.150350
1414.190208	611.597203
1416.166380	613.462937
1418.142102	619.934965
1420.117375	618.723776
1422.090357	614.670629
1424.062892	618.318182
1426.034978	621.120280
1428.006616	610.162937
1429.974127	602.297203
1431.946711	598.862238
1433.911489	598.231469
1435.881340	601.506993
1437.847066	607.023077
1439.814186	608.109091
1441.779022	604.098601
1443.739738	596.925874
1445.705522	600.197203
1447.665351	603.879720
1449.626573	606.032168
1451.589188	606.337762
1453.547688	613.005594
1455.505746	614.893007
1457.463361	627.402797
1459.420535	627.372727
1461.375433	628.482517
1463.331723	620.511189
1465.285739	610.845455
1467.239315	610.534266
1469.190618	614.130769
1471.143313	609.812587
1473.093737	611.874126
1475.043722	612.659441
1476.993267	617.669930
1478.940544	619.597203
1480.885554	633.780420
1482.831956	639.088811
1484.777920	648.641958
1486.723446	651.844056
1488.666708	657.388811
1490.609533	660.284615
1492.550095	656.990210
1494.492048	655.467832
1496.431740	652.250350
1498.370996	654.985315
1500.309818	653.490210
1502.246380	644.109790
1504.184332	649.284615
1506.120027	644.311189
1508.055288	639.317483
1509.988292	632.453147
1511.920864	623.923077
1513.853004	614.171329
1515.784712	618.460140
1517.714167	621.801399
1519.645011	621.679720
1521.575425	629.739860
1523.501766	626.915385
1525.429497	629.684615
1527.354978	639.939860
1529.280030	637.185315
1531.204653	640.705594
1533.128847	637.667832
1535.050794	640.729371
1536.974130	640.252448
1538.895221	653.174126
1540.814067	649.772727
1542.734303	654.559441
1544.652295	653.583916
1546.569861	656.909091
1548.485185	665.997203
1550.401899	667.713986
1552.314558	660.196503
1554.230421	656.858042
1556.144045	648.348951
1558.055430	645.377622
1559.968204	631.752448
1561.876929	639.912587
1563.787044	641.132867
1565.696735	645.595105
1567.606002	648.087413
1569.513036	656.338462
1571.417837	668.697902
1573.324027	680.261538
1575.227985	675.484615
1577.131523	668.292308
1579.034639	663.991608
1580.935527	662.490909
1582.837803	645.981818
1584.737850	646.120979
1586.639286	630.959441
1588.536687	622.869231
1590.433671	618.609790
1592.330236	627.018182
1594.228188	639.059441
1596.120306	643.916783
1598.015618	647.135664
1599.910511	656.084615
1601.803183	674.576923
1603.695439	686.604196
1605.585475	686.893706
1607.475095	683.985315
1609.364300	678.681119
1611.253089	669.772028
1613.139662	666.449650
1615.027621	661.586713
1616.911565	649.926573
1618.796895	642.653147
1620.681812	641.604196
1622.564515	640.617483
1624.448604	650.248951
1626.328683	656.653846
1628.210148	663.584615
1630.089403	668.406294
1631.970044	670.245455
1633.844881	678.144056
1635.724700	685.099301
1637.600513	684.357343
1639.475917	684.359441
1641.352706	685.117483
1643.223698	681.349650
1645.097872	681.413986
1646.968048	688.353147
1648.841404	686.219580
1650.712557	690.539860
1652.581508	697.334266
1654.451845	693.865734
1656.318188	710.716783
1658.185918	706.038462
1660.051448	689.238462
1661.918363	669.217483
1663.781290	669.738462
1665.645602	679.358042
1667.507719	688.881818
1669.369430	691.351748
1671.232526	700.753147
1673.093428	717.082517
1674.952136	726.981818
1676.810441	732.909790
1678.670131	747.443357
1680.524054	726.816783
1682.381149	690.085315
1684.237842	670.348951
1686.090559	670.151049
1687.946447	678.551748
1689.798361	661.328671
1691.649873	638.177622
1693.500986	640.067832
1695.351697	640.022378
1697.202008	653.280420
1699.050135	665.968531
1700.899645	683.483217
1702.743407	696.483916
1704.592119	699.890210
1706.435084	715.469231
1708.281215	736.613986
1710.123385	740.897203
1711.968719	726.642657
1713.808313	709.967133
1715.649291	697.355944
1717.491652	674.320280
1719.330057	676.193007
1721.169845	667.627972
1723.007458	682.859441
1724.844675	700.665035
1726.679719	710.973427
1728.516146	727.021678
1730.350401	736.143357
1732.184262	726.047552
1734.017728	736.895105
1735.847248	736.283916
1737.679927	720.694406
1739.508662	706.668531
1741.340555	712.958741
1743.168505	701.466434
1744.996063	714.942657
1746.823230	710.005594
1748.650004	709.537063
1750.476388	697.074126
1752.298835	698.198601
1754.124436	695.990909
1755.946103	720.636364
1757.769152	733.122378
1759.590040	725.295804
1761.410538	722.529371
1763.232418	733.713986
1765.048598	721.853846
1766.867930	725.895105
1768.683335	721.163636
1770.501891	718.181818
1772.316521	714.374825
1774.130764	723.480420
1775.944621	712.992308
1777.758091	714.073427
1779.569407	705.151049
1781.382105	699.197902
1783.194416	695.331469
1785.002810	691.809790
1786.812585	701.158741
1788.618444	718.841259
1790.427450	730.053147
1792.232542	723.222378
1794.039014	714.532168
1795.845103	701.583217
1797.647282	693.743357
1799.452604	692.924476
1801.254018	690.635664
1803.056812	717.681119
1804.855701	719.892308
1806.655969	716.389510
1808.455857	725.769930
1810.253602	711.711189
1812.050967	699.986014
1813.847951	675.207692
1815.644555	663.919580
1817.439020	671.189510
1819.234865	690.663636
1821.025054	699.253147
1822.820140	704.306993
1824.609573	728.531469
1826.402144	709.690909
1828.192579	696.648252
1829.980879	679.809790
1831.772315	671.625874
1833.558105	664.934266
1835.345275	660.668531
1837.130313	674.700000
1838.918485	693.884615
1840.702771	694.667832
1842.484928	698.372727
1844.268463	693.148252
1846.049871	686.696503
1847.832656	669.302797
1849.611562	677.497203
1851.391846	675.018881
1853.170005	684.710490
1854.949541	677.295105
1856.726953	688.100000
1858.502241	702.268531
1860.278908	696.803497
1862.053452	699.553846
1863.829373	705.493007
1865.599675	709.672727
1867.373104	710.405594
1869.144413	709.548252
1870.915351	716.723776
1872.687666	708.216084
1874.454369	702.619580
1876.224196	694.972028
1877.990160	710.062238
1879.759248	701.646853
1881.524474	691.549650
1883.289332	697.785315
1885.055566	696.077622
1886.817942	696.895105
1888.579951	690.617483
1890.341593	687.534965
1892.102867	683.968531
1893.863775	686.169930
1895.624315	677.650350
1897.382746	681.871329
1899.140812	688.571329
1900.896770	670.883217
1902.654104	671.477622
1904.411072	672.361538
1906.165935	684.871329
1907.918692	675.469231
1909.671086	668.683217
1911.424856	673.705594
1913.176522	667.383217
1914.926085	674.726573
1916.677025	670.829371
1918.427601	662.740559
1920.174339	653.987413
1921.922452	644.023776
1923.668466	638.446154
1925.415856	641.155245
1927.161147	655.724476
1928.904341	644.918881
1930.648911	648.712587
1932.391384	654.220979
1934.133497	657.004895
1935.875251	663.652098
1937.616644	661.825175
1939.355944	652.692657
1941.094885	645.186713
1942.833467	645.935315
1944.569957	642.723776
1946.306090	642.568881
1948.043597	638.167832
1949.777283	632.186364
1951.512343	632.901399
1953.245314	631.910140
1954.977929	636.918182
1956.710187	633.751399
1958.442089	623.799301
1960.171905	627.372028
1961.899637	629.936364
1963.628742	636.840559
1965.357493	645.972028
1967.084160	648.674126
1968.810473	644.733566
1970.538159	645.478322
1972.260309	651.501399
1973.985561	661.065734
1975.707005	663.387413
1977.431549	659.841958
1979.154014	657.629371
1980.872675	663.457343
1982.594435	659.262937
1984.312393	659.674825
1986.031725	678.674126
1987.747256	682.043357
1989.467609	683.933566
1991.184162	677.977622
1992.896920	680.591608
1994.612773	682.979021
1996.326554	681.416084
1998.039984	675.886014
1999.751344	682.260140
2001.464077	684.281818
2003.173018	684.714685
2004.885053	692.554545
2006.591578	705.374126
2008.301196	701.521678
2010.008746	697.674825
2011.715949	687.505594
2013.421086	679.408392
2015.125876	669.533566
2016.832038	656.605594
2018.534418	643.639161
2020.238170	646.317483
2021.939859	653.211888
2023.641202	658.813986
2025.342200	664.930070
2027.041138	673.404196
2028.741447	684.797203
2030.437980	688.788811
2032.135885	691.771329
2033.831732	683.951748
2035.530664	672.444056
2037.224110	665.363636
2038.918927	664.703497
2040.613401	673.150350
2042.304107	675.592308
2043.997897	672.446154
2045.687920	669.283916
2047.379314	674.825175
2049.068655	676.804196
2050.759366	666.293706
2052.446315	659.732867
2054.132923	650.035664
2055.820902	648.437762
2057.505121	655.462238
2059.190710	659.898601
2060.875960	668.518881
2062.559162	667.528671
2064.243734	662.242657
2065.922842	658.048951
2067.606736	661.858741
2069.285170	656.397902
2070.966681	648.509790
2072.644440	643.220280
2074.321863	641.532168
2076.000655	640.923776
2077.677404	645.520280
2079.352112	646.804895
2081.028189	654.383217
2082.702226	653.792308
2084.375927	652.827273
2086.049293	653.211189
2087.720621	660.667133
2089.391614	663.409790
2091.062273	667.891608
2092.732598	668.651748
2094.402588	662.679021
2096.070543	661.131469
2097.738165	669.819580
2099.403753	672.870629
2101.070709	673.107692
2102.735632	666.220979
2104.400222	659.097902
2106.062781	652.867133
2107.726709	654.323776
2109.388605	657.806294
2111.050170	660.830769
2112.711405	666.613986
2114.370610	668.589510
2116.029486	668.902098
2117.688031	679.576923
2119.346247	683.948951
2121.000739	688.482517
2122.658297	687.296503
2124.315524	678.024476
2125.969031	676.402098
2127.623905	672.427273
2129.275060	666.204196
2130.929278	659.509790
2132.579778	665.712587
2134.231646	651.573427
2135.878105	638.721678
2137.529318	630.675524
2139.176818	620.478322
2140.825686	626.281818
2142.472534	627.752448
2144.119056	627.519580
2145.765254	631.982517
2147.407742	638.297902
2149.053289	642.274825
2150.695129	652.462937
2152.340026	664.861538
2153.981218	664.983916
2155.622086	661.888112
2157.262631	659.686713
2158.901163	662.325175
2160.541061	676.138462
2162.177259	679.424476
2163.814823	683.076224
2165.452065	679.146154
2167.087297	685.829371
2168.722207	689.650350
2170.356796	698.330070
2171.991064	702.397902
2173.621638	704.883217
2175.255263	695.944056
2176.885197	709.102797
2178.516496	708.271329
2180.145791	705.080420
2181.774765	692.751049
2183.403421	688.913287
2185.031757	677.034965
2186.658090	676.272028
2188.284105	673.619580
2189.908119	668.425175
2191.533498	668.932867
2193.156876	667.938462
2194.781619	671.346853
2196.402680	685.232168
2198.023426	683.725175
2199.645535	684.595804
2201.265647	687.911189
2202.883763	687.655245
2204.501563	685.221678
2206.119047	685.300000
2207.736216	683.039860
2209.353070	688.883217
2210.969609	697.594406
2212.584154	692.580420
2214.196707	700.670629
2215.810625	705.667832
2217.422550	703.541958
2219.035840	702.770629
2220.647138	691.906993
2222.256448	674.228671
2223.867120	670.840559
2225.475804	666.027972
2227.084176	661.115385
2228.690560	679.402797
2230.298308	691.244755
2231.904069	700.662937
2233.509519	708.428671
2235.112985	718.902098
2236.717813	720.200699
2238.320657	719.784615
2239.921518	709.715385
2241.523742	705.365035
2243.123983	698.923077
2244.725588	684.324476
2246.323539	686.028671
2247.922853	694.350350
2249.520187	700.685315
2251.117213	707.569930
2252.715600	715.087413
2254.310339	738.032867
2255.903102	743.955245
2257.497226	749.946853
2259.092712	745.538462
2260.684554	740.004895
2262.276089	732.394406
2263.868985	721.988811
2265.456572	719.858741
2267.048856	711.727972
2268.635832	713.880420
2270.225837	721.600000
2271.810537	726.934965
2273.399931	739.018881
2274.984022	730.693007
2276.569475	730.775524
2278.152959	726.587413
2279.739468	729.964336
2281.322344	726.693007
2282.904916	726.735664
2284.487186	732.844755
2286.065825	731.039860
2287.647488	731.069930
2289.225524	724.841958
2290.806582	725.782517
2292.384013	736.738462
2293.959481	720.755944
2295.537971	718.667133
2297.112836	708.823776
2298.687401	716.074825
2300.261666	711.246853
2301.835630	716.643357
2303.409294	713.323776
2304.982657	714.271329
2306.552402	718.988811
2308.121848	725.808392
2309.694313	743.632867
2311.261503	747.367832
2312.831710	733.337762
2314.398303	725.222378
2315.966256	724.026573
2317.532254	723.926573
2319.097954	724.568531
2320.663356	728.045455
2322.226805	740.930769
2323.791613	755.782517
2325.352812	759.920979
2326.917026	773.960140
2328.475979	771.292308
2330.037945	776.869930
2331.597961	768.388112
2333.157681	760.976923
2334.715452	748.240559
2336.272929	726.228671
2337.830110	728.823077
2339.385345	729.423077
2340.940285	726.272028
2342.494932	727.355944
2344.049285	728.113986
2345.603344	735.250350
2347.157110	730.451049
2348.708931	737.558741
2350.258809	732.455944
2351.811695	736.018182
2353.359339	723.315385
2354.909990	716.470629
2356.457051	723.513287
2358.005469	723.769231
2359.553595	733.998601
2361.098134	755.774825
2362.644030	751.079021
2364.187987	750.690210
2365.733302	759.955245
2367.275032	755.255245
2368.818120	764.813986
2370.359271	753.675524
2371.900133	738.295105
2373.440706	734.018881
2374.980990	731.248951
2376.520985	734.493706
2378.057401	741.040559
2379.596819	740.104196
2381.132660	728.311888
2382.669857	733.904895
2384.203480	747.299301
2385.740102	748.814685
2387.274793	757.531469
2388.807555	746.750350
2390.340031	758.005594
2391.870578	768.318182
2393.404123	763.025874
2394.932457	773.069930
2396.462147	770.129371
2397.991552	783.659441
2399.520672	769.597203
2401.049506	758.664336
2402.573136	764.637063
2404.101401	777.346853
2405.624463	766.389510
2407.152160	773.722378
2408.673016	767.349650
2410.198506	776.886713
2411.720436	768.589510
2413.243720	767.604895
2414.765084	774.534266
2416.284528	775.338462
2417.805327	760.792308
2419.324207	759.967133
2420.842805	784.156643
2422.359486	803.887413
2423.877522	803.118182
2425.395276	807.172727
2426.909478	805.415385
2428.423400	825.009790
2429.937043	822.893706
2431.452039	810.188811
2432.963487	814.921678
2434.476290	799.772727
2435.987180	802.419580
2437.497790	804.896503
2439.006489	817.052448
2440.518175	823.019580
2442.026317	811.344056
2443.534180	811.602098
2445.041766	823.135664
2446.545812	832.547552
2448.052842	844.377622
2449.557964	840.284615
2451.062809	843.791608
2452.565747	821.831469
2454.068408	815.493706
2455.570793	807.005594
2457.071273	792.953846
2458.573106	775.525175
2460.073035	779.025874
2461.572688	775.273427
2463.072066	779.981119
2464.569541	777.318881
2466.065114	789.118881
2467.563667	787.127972
2469.058691	783.946853
2470.555069	766.502098
2472.047920	773.427972
2473.542123	770.183217
2475.036053	771.560839
2476.526460	762.939860
2478.019844	765.689510
2479.511329	755.235664
2481.000918	749.189510
2482.490236	744.729371
2483.977657	752.799301
2485.468054	753.755944
2486.954932	771.049650
2488.443162	777.980420
2489.927876	796.378322
2491.412319	795.397902
2492.898114	799.778322
2494.382016	784.069231
2495.867270	775.711888
2497.347390	779.630070
2498.830482	773.340559
2500.311684	780.420979
2501.792617	774.555245
2503.271661	785.332867
2504.750437	795.831469
2506.228944	805.401399
2507.707182	814.682517
2509.185152	812.911888
2510.659618	813.062937
2512.137052	803.334965
2513.610983	788.795105
2515.086265	797.220280
2516.561279	786.062937
2518.032792	778.951049
2519.505656	768.057343
2520.976637	768.757343
2522.448967	749.969231
2523.916185	760.067133
2525.386369	768.312587
2526.854671	765.180420
2528.322709	757.086014
2529.790482	754.888112
2531.257990	743.314685
2532.725233	742.864336
2534.188985	724.369930
2535.654086	728.350350
2537.117310	726.513986
2538.581883	729.966434
2540.042967	719.862937
2541.505402	732.308392
2542.967573	738.897902
2544.426257	736.930769
2545.889514	736.158741
2547.347674	742.417483
2548.807183	734.960140
2550.261599	723.576923
2551.720585	729.526573
2553.177698	740.751748
2554.632941	741.293706
2556.087923	751.311888
2557.541035	751.813986
2558.995496	751.483916
2560.448088	763.500000
2561.900420	764.665035
2563.350884	767.279720
2564.804304	775.375524
2566.252642	774.677622
2567.703936	773.358741
2569.153363	768.211888
2570.599319	751.181119
2572.048229	737.509790
2573.493668	742.081119
2574.940456	735.619580
2576.385380	733.827273
2577.830047	735.179021
2579.276061	739.266434
2580.718608	752.300699
2582.162503	748.639161
2583.602933	744.486713
2585.044711	729.721678
2586.484629	715.083217
2587.925894	708.211888
2589.363697	713.104196
2590.804450	708.044755
2592.240140	705.694406
2593.678780	719.651049
2595.115563	712.472727
2596.550489	743.345455
2597.988364	755.958042
2599.421181	760.618881
2600.855345	763.352448
2602.287654	770.253147
2603.721310	774.132867
2605.153113	776.336364
2606.584663	768.195105
2608.015959	762.198601
2609.445404	750.083916
2610.874596	744.112587
2612.301937	728.094406
2613.730625	740.060140
2615.159060	731.981119
2616.584049	737.097902
2618.010383	742.098601
2619.434869	749.561538
2620.860701	746.465035
2622.283089	754.852448
2623.706823	744.320280
2625.128711	752.188811
2626.550348	738.735664
2627.970140	730.316783
2629.391278	718.315385
2630.812166	701.785315
2632.229616	693.071329
2633.650005	686.528671
2635.066957	681.195105
2636.483661	685.301399
2637.900116	706.048252
2639.316323	728.725874
2640.732281	735.519580
2642.146399	747.524476
2643.560270	749.341958
2644.972301	751.986014
2646.385677	746.583217
2647.795623	749.558741
2649.208505	752.276224
2650.617958	743.634965
2652.027165	734.960140
2653.434536	746.780420
2654.844841	752.052448
2656.253310	754.718182
2657.659944	743.392308
2659.066333	743.210490
2660.470888	737.311189
2661.876787	739.000699
2663.280853	740.028671
2664.684675	742.779720
2666.088252	753.019580
2667.489997	748.797902
2668.893086	745.516783
2670.292758	752.818881
2671.693773	764.497902
2673.091371	765.218881
2674.491900	757.487413
2675.889014	768.495804
2677.287471	761.941259
2678.684100	766.318881
2680.080488	774.962937
2681.476633	768.734266
2682.870952	769.527273
2684.266614	752.637063
2685.658866	751.592308
2687.052462	748.981818
2688.444233	752.670629
2689.837346	743.022378
2691.228636	745.330070
2692.618103	762.193007
2694.007331	762.917483
2695.396318	773.134266
2696.786648	772.360140
2698.171993	764.453147
2699.560263	764.948252
2700.946712	758.663636
2702.332922	762.513986
2703.718893	754.460140
2705.101466	749.002797
2706.485380	747.333566
2707.869057	743.606294
2709.252496	747.439860
2710.632539	734.868531
2712.013924	723.316084
2713.393493	711.460140
2714.774404	707.257343
2716.153500	724.955944
2717.530781	734.352448
2718.909404	751.616783
2720.286214	752.979720
2721.662788	751.574825
2723.039126	756.058042
2724.413652	756.804196
2725.789519	761.103497
2727.161999	752.904196
2728.537396	751.895105
2729.907831	739.116084
2731.279608	732.048951
2732.651151	750.148951
2734.020885	760.742657
2735.391959	762.077622
2736.761226	768.892308
2738.130259	774.642657
2739.497485	783.806294
2740.864479	792.417483
2742.231240	786.681818
2743.597768	784.926573
2744.962492	784.303497
2746.326983	764.667832
2747.691242	749.567832
2749.055270	756.601399
2750.419065	758.511888
2751.779487	747.586014
2753.142820	744.176923
2754.501210	752.459441
2755.862510	751.158042
2757.220439	753.188811
2758.581278	740.688112
2759.940316	742.440559
2761.295986	745.834266
2762.654565	740.723776
2764.009776	733.830769
2765.364758	752.825874
2766.717943	754.653846
2768.074035	745.157343
2769.426763	738.125874
2770.779262	741.483217
2772.131533	731.039161
2773.485143	721.128671
2774.835391	720.311189
2776.183846	726.152448
2777.535205	729.985315
2778.883205	727.265734
2780.232544	731.334965
2781.580090	749.430769
2782.927409	750.505594
2784.274502	756.042657
2785.619804	757.229371
2786.964880	744.775524
2788.309730	737.986713
2789.654354	740.471329
2790.995625	740.672028
2792.338235	734.955944
2793.680620	731.377622
2795.022779	725.342657
2796.361589	734.324476
2797.703299	737.511189
2799.041660	741.883217
2800.381359	745.903497
2801.719272	744.438462
2803.055401	747.847552
2804.391307	753.832168
2805.728549	763.990210
2807.064008	761.751748
2808.399244	773.344755
2809.732698	781.214685
2811.067488	775.943357
2812.398937	784.565734
2813.733282	782.830769
2815.062729	784.304895
2816.393513	778.755245
2817.724075	768.201399
2819.052858	765.509091
2820.382978	744.563636
2821.711318	740.773427
2823.039438	738.493706
2824.365781	736.376923
2825.693459	739.771329
2827.017805	748.260839
2828.343486	763.298601
2829.667393	778.123077
2830.991079	782.460140
2832.316101	780.430070
2833.637794	757.379021
2834.959267	733.263636
2836.280522	720.221678
2837.601558	719.213287
2838.920822	712.217483
2840.241421	716.601399
2841.560248	735.039161
2842.878857	740.437063
2844.195696	746.235664
2845.512317	753.108392
2846.828720	762.858741
2848.143355	760.215385
2849.459324	762.422378
2850.771973	763.443357
2852.085958	773.247552
2853.399726	778.804895
2854.713277	778.609091
2856.025061	793.944755
2857.335080	800.051748
2858.646433	792.975524
2859.954470	793.757343
2861.263843	779.372028
2862.573000	773.618182
2863.881942	766.651049
2865.189121	776.401399
2866.494536	773.079021
2867.801286	766.846154
2869.106273	769.792308
2870.411047	762.315385
2871.714059	780.107692
2873.019953	778.757343
2874.320992	775.941958
2875.623364	770.965734
2876.923977	765.137762
2878.225924	767.393706
2879.527658	776.179021
2880.826088	785.088112
2882.125851	792.004895
2883.423857	790.746154
2884.721651	790.072028
2886.017688	783.176923
2887.315059	790.583217
2888.610674	776.095105
2889.906079	763.011189
2891.201272	766.656643
2892.493167	771.338462
2893.787939	770.222378
2895.079415	777.393706
2896.372223	761.255245
2897.664821	748.870629
2898.954124	733.916084
2900.244760	737.657343
2901.533646	739.953846
2902.823863	741.572028
2904.110789	731.172727
2905.399047	729.987413
2906.685556	748.434965
2907.971856	767.407692
2909.257948	775.411888
2910.542292	785.766434
2911.829508	774.488811
2913.111897	772.939161
2914.395618	779.226573
2915.677592	798.562937
2916.959360	790.088811
2918.239382	790.188112
2919.522274	790.705594
2920.803421	786.766434
2922.081286	790.158042
2923.362020	797.612587
2924.639473	788.886014
2925.916721	773.609091
2927.192226	762.458042
2928.470599	757.737762
2929.744157	752.361538
2931.020583	751.934266
2932.295268	748.388112
2933.568213	766.563636
2934.842488	765.655944
2936.115024	764.104895
2937.387356	773.266434
2938.656415	795.602797
2939.928339	783.425175
2941.198525	776.664336
2942.468507	770.202797
2943.738286	771.941259
2945.006328	768.819580
2946.272635	769.849650
2947.538739	766.432168
2948.806174	770.052448
2950.071873	760.614685
2951.337370	773.213287
2952.602665	786.603497
2953.864696	804.053846
2955.128056	794.246853
2956.391215	787.391608
2957.652641	771.355245
2958.915397	765.579720
2960.176422	766.172028
2961.435716	759.375524
2962.694809	759.353846
2963.953702	766.757343
2965.212395	771.045455
2966.470888	769.172028
2967.727652	773.304895
2968.984217	785.726573
2970.239053	777.832168
2971.495219	765.734266
2972.748129	755.195804
2974.002369	751.806294
2975.256410	757.013986
2976.508725	761.306993
2977.760842	775.791608
2979.011234	783.017483
2980.264481	786.193007
2981.512951	785.225175
2982.764275	808.644755
2984.012351	817.718182
2985.260229	816.213287
2986.507910	816.527273
2987.755395	801.629371
2989.001158	799.525175
2990.246724	789.460839
2991.493619	785.992308
2992.737268	794.190210
2993.982246	791.400000
2995.223981	794.701399
2996.468567	797.753846
2997.711434	800.334266
2998.951059	800.208392
3000.193536	803.790909
3001.432772	800.986713
3002.673336	788.577622
3003.912183	778.402098
3005.150836	777.270629
3006.387773	789.813287
3007.626037	798.281818
3008.862587	796.170629
3010.098943	791.750350
3011.335105	773.676224
3012.569553	770.466434
3013.803808	774.453147
3015.037870	770.506993
3016.270220	777.623776
3017.500858	773.466434
3018.734342	775.424476
3019.966115	795.704196
3021.196176	791.459441
3022.426046	790.057343
3023.654206	800.868531
3024.883693	786.994406
3026.111470	779.322378
3027.339056	789.302797
3028.567968	796.841259
3029.792138	803.337063
3031.019151	811.172028
3032.242941	825.676923
3033.468056	817.382517
3034.691465	817.482517
3035.914685	798.234266
3037.136199	810.909091
3038.360554	809.654545
3039.580174	799.101399
3040.801120	793.990909
3042.021876	797.974825
3043.240929	803.786713
3044.461308	804.386713
3045.678470	808.897902
3046.896957	807.297203
3048.113743	780.685315
3049.330340	786.979720
3050.546750	773.076224
3051.759946	784.011888
3052.975980	772.144755
3054.188802	777.293007
3055.404461	777.157343
3056.615397	782.470629
3057.827659	787.132168
3059.039733	790.161538
3060.251621	793.762937
3061.461811	780.159441
3062.671816	772.764336
3063.881634	774.880420
3065.089756	757.004196
3066.297692	751.945455
3067.503934	751.667832
3068.711500	752.029371
3069.917371	754.118881
3071.123057	756.001399
3072.328559	764.302098
3073.532367	765.451748
3074.737499	772.044056
3075.940938	772.723776
3077.142685	764.862937
3078.344249	758.975524
3079.545629	747.840559
3080.746825	745.191608
3081.946331	754.651748
3083.145653	754.490909
3084.346299	764.601399
3085.545256	772.626573
3086.741017	775.601399
3087.939608	773.439860
3089.135005	771.976224
3090.331726	771.218182
3091.525254	767.380420
3092.721610	772.045455
3093.916279	779.408392
3095.107758	783.502098
3096.303568	783.731469
3097.494685	781.206294
3098.687125	776.278322
3099.876376	769.422378
3101.068454	757.831469
3102.258848	744.192308
3103.446055	743.258741
3104.634586	754.889510
3105.824439	766.252448
3107.011107	766.278322
3108.197596	770.042657
3109.383905	776.362238
3110.571537	775.377622
3111.755986	783.103497
3112.938755	785.812587
3114.124348	796.308392
3115.308260	793.155245
3116.490494	786.135664
3117.672550	789.532168
3118.854427	796.758741
3120.036126	791.490909
3121.216148	787.000000
3122.394492	784.642657
3123.575658	783.350350
3124.753648	774.198601
3125.931461	780.553846
3127.109097	777.373427
3128.285058	787.146154
3129.460843	783.641958
3130.637948	785.392308
3131.813380	773.159441
3132.987138	779.088112
3134.159223	768.799301
3135.332629	761.806294
3136.505860	743.980420
3137.677418	732.602098
3138.850298	715.756643
3140.020010	713.711189
3141.191043	718.376224
3142.360405	735.594406
3143.528098	747.188811
3144.698606	758.704196
3145.864455	755.746853
3147.034614	775.336364
3148.200115	784.703497
3149.365443	783.058042
3150.530597	786.678322
3151.695578	790.020280
3152.861878	782.214685
3154.023525	780.821678
3155.186493	786.686713
3156.349287	780.126573
3157.511909	779.379720
3158.672866	775.867133
3159.833650	782.787413
3160.994263	792.379720
3162.153211	790.966434
3163.311987	798.853147
3164.470592	812.190909
3165.629025	815.374126
3166.787286	819.424476
3167.943885	816.303497
3169.098823	818.792308
3170.255080	803.960140
3171.409677	797.360839
3172.564102	789.825874
3173.716868	785.866434
3174.869464	775.147552
3176.021890	772.961538
3177.174145	791.234266
3178.326231	791.408392
3179.475170	801.866434
3180.626916	810.603497
3181.777005	822.053147
3182.925436	833.001399
3184.073699	835.779021
3185.221793	839.993706
3186.369717	844.776224
3187.515987	842.032168
3188.662088	840.931469
3189.806535	848.875524
3190.950813	842.607692
3192.094924	827.459441
3193.240353	832.906993
3194.382643	826.000000
3195.524765	828.057343
3196.666721	831.409790
3197.808509	838.976224
3198.950130	839.577622
3200.088615	842.105594
3201.228419	842.109091
3202.369539	848.074126
3203.507525	848.259441
3204.643862	834.671329
3205.780033	824.455944
3206.917522	825.065734
3208.053362	818.722378
3209.190518	811.105594
3210.323063	814.220280
3211.459888	813.539860
3212.592102	813.858741
3213.725634	817.767133
3214.859000	815.692308
3215.989239	829.663636
3217.122277	826.374126
3218.252187	825.136364
3219.383415	820.814685
3220.511517	817.607692
3221.642417	814.129371
3222.771672	802.509091
3223.899283	793.213986
3225.023773	778.097203
3226.152538	776.071329
3227.278181	764.714685
3228.403661	761.051748
3229.527500	774.211189
3230.654134	780.044755
3231.776169	780.729371
3232.899521	784.799301
3234.022711	786.174126
3235.145739	798.396503
3236.267127	804.129371
3237.388354	806.803497
3238.507942	800.004196
3239.627369	806.454545
3240.745159	805.256643
3241.865740	810.351049
3242.983208	816.041259
3244.100515	818.076923
3245.217661	811.629371
3246.333172	808.608392
3247.449998	813.300000
3248.563713	827.410490
3249.680219	830.380420
3250.795089	835.797203
3251.906851	830.895105
3253.018454	845.958741
3254.131372	845.641958
3255.244130	842.549650
3256.353782	836.915385
3257.464749	831.990909
3258.575557	823.225874
3259.684733	818.897902
3260.792278	833.415385
3261.901138	835.788811
3263.009839	834.260839
3264.115438	832.279021
3265.222352	832.296503
3266.327636	851.770629
3267.434234	855.232867
3268.537732	860.895804
3269.642544	866.412587
3270.747199	872.456643
3271.848756	875.294406
3272.950156	888.297203
3274.052870	897.172028
3275.155427	895.406294
3276.254889	889.680420
3277.357133	884.849650
3278.456283	891.079720
3279.553807	899.697902
3280.651176	888.791608
3281.751328	887.459441
3282.848386	881.305594
3283.945290	873.202098
3285.042038	867.961538
3286.134227	867.670629
3287.230666	856.297203
3288.325482	852.786713
3289.420143	840.646154
3290.513183	849.334965
3291.606069	840.102098
3292.697334	842.411888
3293.789912	844.047552
3294.880870	853.520280
3295.970208	851.739860
3297.059393	851.853846
3298.149890	856.919580
3299.237303	861.219580
3300.324564	859.776224
3301.413137	858.567133
3302.501557	846.862238
3303.585430	857.420280
3304.673545	843.232867
3305.758579	852.006294
3306.841997	859.606294
3307.926727	866.442657
3309.009841	865.190210
3310.094267	868.250350
3311.175615	876.653147
3312.258275	875.537063
3313.339321	870.550350
3314.420216	870.395804
3315.499498	868.197902
3316.578629	872.002098
3317.659072	871.276224
3318.736440	874.200000
3319.815120	877.428671
3320.892188	882.451049
3321.969106	886.410490
3323.044414	880.748252
3324.119572	873.146154
3325.196041	860.346853
3326.269439	853.231469
3327.342689	849.666434
3328.417250	843.306294
3329.490201	843.251748
3330.561545	849.969231
3331.634199	850.524476
3332.703786	853.894406
3333.774684	857.216084
3334.843975	864.195105
3335.914577	860.186014
3336.983572	856.561538
3338.050961	870.988811
3339.116745	883.876224
3340.186755	888.739860
3341.253702	890.827273
3342.317587	894.958741
3343.384240	905.418182
3344.449289	900.023776
3345.512734	902.713986
3346.576032	897.348951
3347.639185	902.358042
3348.702191	897.439860
3349.765050	898.028671
3350.826308	899.791608
3351.884509	904.186014
3352.946931	905.456643
3354.006296	908.241259
3355.065517	903.580420
3356.126046	899.891608
3357.182066	898.326573
3358.240851	903.108392
3359.295128	899.238462
3360.352169	900.709091
3361.407611	895.004895
3362.464362	903.368531
3363.519516	890.677622
3364.573072	897.207692
3365.625031	899.402797
3366.679752	905.225175
3367.731425	895.846853
3368.782953	904.706294
3369.835791	921.122378
3370.885581	918.216783
3371.936680	920.510490
3372.984732	928.223776
3374.035545	937.213986
3375.083312	936.781119
3376.130937	921.485315
3377.178420	927.947552
3378.224309	919.334266
3379.271508	904.832168
3380.315663	902.841958
3381.362577	905.842657
3382.407899	908.559441
3383.450181	899.934965
3384.492321	897.648951
3385.535770	895.875524
3386.579077	895.323776
3387.620794	895.769231
3388.662370	896.319580
3389.703806	915.448252
3390.743653	906.243357
3391.781911	899.990210
3392.821477	907.294406
3393.860903	911.526573
3394.898741	917.229371
3395.934992	919.704196
3396.971103	914.925874
3398.008522	911.011888
3399.042908	919.492308
3400.078602	927.705594
3401.114156	928.297203
3402.146678	934.268531
3403.181954	928.632867
3404.214199	924.318182
3405.246306	922.169231
3406.276829	927.319580
3407.308660	918.982517
3408.340352	923.953846
3409.369016	913.104895
3410.397542	906.395804
3411.427376	908.758741
3412.457072	914.002797
3413.483741	928.844755
3414.511718	936.279021
3415.536670	951.321678
3416.564372	957.802098
3417.589051	970.379021
3418.615036	986.138462
3419.639442	983.951748
3420.663710	991.898601
3421.686400	991.799301
3422.708955	991.983916
3423.732814	990.879720
3424.753654	995.805594
3425.774359	995.435864
3426.796369	994.458492
3427.815361	993.247952
3428.834218	992.178721
3429.854381	991.625275
3430.871526	991.962088
