-118.385087	65.439011
-115.715486	68.923077
-113.048821	70.636464
-110.382909	71.082318
-107.719928	70.763786
-105.055517	70.184016
-102.394037	69.846154
-99.731128	72.818182
-97.073326	74.474126
-94.414093	81.235664
-91.755609	82.058042
-89.100050	85.949650
-86.443062	84.646853
-83.791171	83.420979
-81.137851	81.787413
-78.487451	81.494406
-75.835621	77.604196
-73.188882	75.546154
-70.540713	78.943357
-67.893288	81.800000
-65.248776	88.054545
-62.602835	93.636364
-59.961977	97.083217
-57.319688	104.031469
-54.680309	104.981119
-52.039501	110.009091
-49.399432	113.327972
-46.764437	118.976224
-44.128012	125.772028
-41.494491	136.189510
-38.859540	156.332168
-36.229656	173.885315
-33.596178	194.937063
-30.967763	210.837063
-28.340082	219.290210
-25.710973	164.802797
-23.086920	-288.713986
-20.459278	-2214.946154
-17.836689	-3425.532867
-15.214831	-444.924476
-12.593704	5830.497203
-9.973308	16924.113986
-7.355799	29535.293706
-4.736862	38438.574825
-2.120811	43531.393007
0.494512	44792.611189
3.109108	42231.664336
5.720822	35902.880420
8.333963	26055.130769
10.942071	13815.167832
13.553761	3483.549650
16.160420	-2209.246853
18.768507	-4372.571329
21.375870	-2104.263636
23.978208	228.489510
26.584124	238.505594
29.185019	219.367832
31.787341	201.751748
34.384645	179.933566
36.985525	159.797902
39.581391	152.117483
42.178684	145.401399
44.775258	136.589510
47.366823	131.781119
49.959816	122.649650
52.549948	120.862937
55.141508	114.495105
57.730208	112.249650
60.320336	106.639860
62.905464	105.469930
65.492020	102.793007
68.077861	104.909790
70.660849	104.930070
73.245264	108.185315
75.822549	105.199301
78.403401	107.734266
80.981404	106.899301
83.558697	109.939860
86.137416	105.179021
88.711154	105.300699
91.286318	104.160140
93.858639	104.006993
96.430253	105.520280
98.999026	107.945455
101.569226	107.879021
104.136587	111.924476
106.705375	111.141259
109.271325	116.911888
111.834441	119.048951
114.401114	127.009091
116.958564	135.472727
119.521700	155.139161
122.079877	186.492308
124.641607	250.669231
127.198382	360.372727
129.756582	527.883916
132.309830	747.603497
134.862379	1018.783916
137.418480	1325.412587
139.969632	1649.116084
142.520086	1969.856643
145.069844	2273.017483
147.616782	2521.504895
150.163024	2716.074825
152.710693	2843.357343
155.257665	2912.851748
157.799701	2929.314685
160.341044	2921.118182
162.881695	2881.112587
165.423770	2829.104895
167.963035	2777.737762
170.499490	2728.082517
173.035255	2698.790909
175.572445	2693.248951
178.108943	2703.111888
180.642636	2746.812587
183.173526	2803.126573
185.703727	2868.014685
188.235353	2942.154545
190.764179	3024.700000
193.290205	3088.308392
195.815545	3131.910490
198.342310	3167.044056
200.866279	3182.655944
203.389562	3183.599301
205.912161	3174.849650
208.431967	3163.451049
210.951090	3162.017483
213.469530	3163.341259
215.989394	3168.681818
218.502257	3171.169231
221.018651	3167.621678
223.534364	3149.859441
226.045186	3128.262937
228.557433	3116.283916
231.066897	3099.337063
233.575683	3075.803497
236.083791	3063.808392
238.593323	3058.718881
241.097974	3065.648951
243.601949	3058.495105
246.107348	3048.613287
248.607872	3056.978322
251.111919	3263.566434
253.608996	3831.983916
256.109595	4717.222378
258.607423	5647.177622
261.104578	6412.449650
263.601060	6899.939860
266.092680	7084.995105
268.587818	6938.218182
271.080191	6485.453846
273.571893	5761.118881
276.060832	4908.194406
278.551194	4091.887413
281.038795	3549.841259
283.523636	3340.353846
286.011991	3323.818182
288.493408	3292.597203
290.978338	3211.579720
293.458422	3077.746154
295.942019	2932.174825
298.420774	2776.908392
300.900951	2639.295105
303.378377	2535.548252
305.855139	2520.446853
308.331237	2579.660839
310.804587	2687.679720
313.277276	2798.190909
315.749303	2902.167133
318.220668	2993.523776
320.689290	3056.951049
323.157252	3075.597203
325.626637	3059.604196
328.091199	3005.563636
330.559264	2924.228671
333.022510	2830.127972
335.485099	2765.598601
337.947030	2725.649650
340.408305	2710.411189
342.866846	2701.282517
345.326809	2696.818182
347.784040	2694.362238
350.240616	2687.869231
352.696537	2678.706993
355.149730	2657.716084
357.604345	2642.674825
360.054158	2628.919580
362.507467	2613.362238
364.955977	2601.369930
367.403837	2580.872028
369.853118	2560.748951
372.297606	2542.646154
374.743516	2529.549650
377.188777	2505.885315
379.631319	2488.288112
382.073213	2469.333566
384.514459	2446.997203
386.952990	2433.107692
389.392943	2424.368531
391.830182	2420.113986
394.264709	2419.655944
396.702724	2421.350350
399.135962	2423.194406
401.570622	2424.867832
404.000509	2427.938462
406.433881	2424.690909
408.862482	2433.003497
411.290443	2438.158741
413.719824	2444.891608
416.144441	2449.821678
418.570478	2459.091608
420.995876	2471.183916
423.420633	2481.702098
425.840631	2486.406993
428.262051	2493.808392
430.680774	2500.169231
433.100918	2505.484615
435.518367	2508.827972
437.937236	2513.690210
440.353412	2512.637063
442.764841	2516.811888
445.179746	2511.560839
447.591961	2510.860839
450.003542	2506.544755
452.414489	2503.128671
454.822750	2490.341259
457.230379	2489.330070
459.637375	2470.365734
462.043739	2452.273427
464.447422	2429.145455
466.850474	2410.363636
469.252896	2392.021678
471.654688	2379.155944
474.053802	2373.515385
476.454336	2377.688112
478.854241	2384.783217
481.249423	2402.139860
483.648072	2414.484615
486.042001	2425.471329
488.435304	2425.048252
490.827981	2421.569231
493.220033	2406.265035
495.613504	2383.167832
498.002262	2341.546853
500.388354	2288.178322
502.775866	2229.232867
505.162754	2165.502797
507.546979	2097.363636
509.932623	2043.011189
512.315604	1984.786014
514.695925	1939.651748
517.077665	1904.666434
519.456746	1884.411189
521.837246	1874.656643
524.215088	1868.483916
526.590275	1856.110490
528.964844	1840.860140
531.340832	1818.890909
533.714166	1796.801399
536.088919	1763.479720
538.458985	1735.558741
540.828436	1691.994406
543.199306	1662.924476
545.565494	1632.097902
547.933101	1617.538462
550.298062	1603.670629
552.662410	1595.479021
555.026146	1589.544056
557.391299	1590.216783
559.751780	1584.160839
562.113678	1578.765035
564.472937	1573.167832
566.829557	1568.010490
569.189623	1553.697902
571.542997	1549.554545
573.899816	1534.745455
576.254000	1524.050350
578.607575	1511.486014
580.960542	1505.365035
583.310878	1499.143357
585.662630	1495.844056
588.007706	1489.809091
590.358246	1489.058741
592.702113	1495.865035
595.051441	1502.719580
597.396120	1505.430769
599.738175	1507.627273
602.081647	1501.952448
604.422496	1498.851748
606.762742	1488.137762
609.100368	1479.939860
611.441429	1467.016783
613.777853	1457.381119
616.115693	1450.996503
618.450915	1445.310490
620.783522	1442.120979
623.117546	1439.714685
625.448955	1445.904895
627.779766	1445.778322
630.109979	1447.395105
632.439595	1446.337762
634.764587	1435.608392
637.095021	1430.999301
639.420833	1419.043357
641.744039	1414.344056
644.068661	1409.506993
646.390677	1403.160140
648.712099	1398.906993
651.030918	1401.165734
653.351153	1405.183217
655.670795	1403.586713
657.987836	1399.428671
660.304286	1392.616084
662.618137	1385.077622
664.933403	1380.151748
667.246073	1369.981818
669.560158	1366.179720
671.869644	1363.821678
674.180544	1367.648951
676.488852	1366.010490
678.796572	1364.030070
681.105707	1355.979021
683.410249	1354.446154
685.714205	1338.665734
688.017574	1330.445455
690.322358	1319.879720
692.622556	1310.125175
694.924169	1295.554545
697.225196	1284.292308
699.521642	1276.373427
701.819502	1267.900000
704.116780	1257.363636
706.413473	1250.610490
708.705591	1240.472028
711.001120	1238.965035
713.292076	1230.795105
715.584446	1230.884615
717.874240	1227.619580
720.163455	1232.726573
722.452089	1234.618881
724.738152	1239.059441
727.025628	1236.024476
729.310534	1238.144755
731.594861	1239.157343
733.876621	1239.081119
736.159794	1231.304895
738.442390	1234.658741
740.720430	1233.776923
742.999884	1234.324476
745.278763	1235.519580
747.557066	1237.803497
749.830820	1233.667133
752.105988	1235.027273
754.380582	1226.171329
756.652617	1228.104895
758.926065	1216.330769
761.196955	1214.374126
763.465288	1212.513986
765.735036	1217.890210
768.002228	1218.207692
770.268850	1222.858042
772.534903	1228.898601
774.798404	1242.730070
777.063317	1258.011888
779.327662	1272.258042
781.587476	1276.004895
783.848704	1279.219580
786.109364	1271.039161
788.367477	1278.468531
790.623046	1273.965035
792.882006	1269.767133
795.134467	1255.300699
797.392295	1247.509790
799.645604	1239.686014
801.896372	1233.052448
804.148553	1229.337762
806.398196	1224.547552
808.649250	1220.463636
810.895793	1207.613287
813.143749	1198.170629
815.389169	1200.188112
817.636002	1194.995105
819.882272	1201.951748
822.124039	1196.132168
824.369188	1194.815385
826.607865	1187.783916
828.849925	1181.272028
831.087486	1181.559441
833.326458	1181.092308
835.562904	1168.067133
837.800762	1149.198601
840.036094	1143.283217
842.268902	1138.373427
844.503122	1142.837063
846.734820	1149.114685
848.965963	1145.301399
851.196551	1144.741259
853.426585	1143.141958
855.656064	1138.961538
857.881063	1134.933566
860.109435	1138.739161
862.333329	1135.861538
864.558633	1133.900000
866.779462	1138.242657
869.003663	1131.560839
871.223391	1139.162937
873.444530	1150.960839
875.665118	1151.740559
877.883197	1158.498601
880.102685	1173.002098
882.317707	1170.910490
884.532181	1180.911888
886.746108	1186.793706
888.959487	1186.468531
891.172320	1187.881818
893.384605	1172.517483
895.594389	1160.843357
897.803627	1158.819580
900.012319	1166.027972
902.218513	1158.208392
904.426116	1164.753147
906.631222	1165.271329
908.835784	1159.828671
911.037851	1167.283916
913.241327	1168.718182
915.442309	1183.316783
917.642749	1183.755944
919.844598	1161.680420
922.040056	1177.151049
924.238872	1183.149650
926.433251	1192.417483
928.630987	1197.040559
930.824287	1205.584615
933.018995	1206.374825
935.211218	1212.404895
937.402903	1222.638462
939.594050	1246.527273
941.782714	1265.191608
943.970841	1266.451049
946.156488	1255.454545
948.345487	1275.518182
950.530063	1271.018881
952.714104	1274.475524
954.901495	1297.520979
957.080583	1302.492308
959.263020	1313.822378
961.444924	1322.798601
963.624354	1344.143357
965.801311	1376.630769
967.979676	1401.109790
970.159447	1422.858741
972.332870	1424.759441
974.509639	1456.095804
976.682002	1480.557343
978.855771	1525.023077
981.025138	1568.289510
983.197848	1581.276923
985.368092	1606.662937
987.537808	1616.665035
989.706995	1633.254545
991.871785	1623.355944
994.039917	1619.014685
996.203653	1605.867133
998.368797	1578.272028
1000.531481	1596.390909
1002.693640	1622.435664
1004.853341	1627.904895
1007.012519	1638.105594
1009.173103	1662.358042
1011.331232	1702.335664
1013.488837	1723.761538
1015.645919	1751.000000
1017.802478	1754.462937
1019.954657	1760.016084
1022.108243	1740.066434
1024.261306	1676.962238
1026.411922	1632.046154
1028.563943	1543.697902
1030.711591	1431.132867
1032.862571	1323.945455
1035.009181	1227.089510
1037.155271	1144.375524
1039.300843	1075.662937
1041.447819	1054.548252
1043.588508	993.848252
1045.732525	892.199301
1047.874103	765.544056
1050.015163	605.801399
1052.157628	459.748951
1054.293814	290.875524
1056.433326	157.903497
1058.568482	16.730070
1060.706963	-69.891608
1062.841091	-51.174825
1064.974705	40.175524
1067.109723	192.279720
1069.240392	312.883916
1071.372467	455.937762
1073.502111	601.187413
1075.631244	729.506993
1077.759866	838.537063
1079.887976	905.776224
1082.013660	965.798601
1084.138834	981.818182
1086.265411	1013.395105
1088.387652	1104.559441
1090.511297	1201.056643
1092.630607	1296.337063
1094.755146	1386.644056
1096.873441	1465.562238
1098.993139	1538.197203
1101.110419	1585.599301
1103.227193	1625.203497
1105.343460	1629.216783
1107.457312	1608.663636
1109.572567	1572.769231
1111.683500	1552.958741
1113.797744	1555.848252
1115.907669	1571.107692
1118.018996	1560.276224
1120.129820	1549.967832
1122.236327	1551.161538
1124.346143	1550.452448
1126.451645	1548.839161
1128.558551	1556.843357
1130.659240	1544.134266
1132.765142	1529.115385
1134.866735	1505.475524
1136.969731	1499.906294
1139.072226	1500.468531
1141.168515	1496.833566
1143.270010	1492.700699
1145.367203	1477.445455
1147.463897	1466.901399
1149.560094	1433.153846
1151.655792	1426.993706
1153.750993	1411.045455
1155.843797	1394.420979
1157.938003	1385.022378
1160.026018	1376.572727
1162.119231	1381.635664
1164.206256	1386.920979
1166.296581	1379.485315
1168.382617	1384.781818
1170.471951	1372.954545
1172.555104	1351.630070
1174.639660	1341.279720
1176.725616	1328.988811
1178.807291	1302.909091
1180.890368	1285.527972
1182.971059	1280.077622
1185.051259	1295.509091
1187.130967	1301.287413
1189.210183	1311.681818
1191.287018	1317.855944
1193.361472	1334.841958
1195.439218	1336.953147
1197.512693	1321.653846
1199.587570	1316.002098
1201.658179	1291.641259
1203.730189	1286.820979
1205.799823	1289.379720
1207.870858	1279.977622
1209.941405	1276.341259
1212.007691	1277.172028
1214.075378	1266.198601
1216.140693	1256.634266
1218.207408	1252.097902
1220.269867	1229.137762
1222.335612	1209.450350
1224.397102	1207.546853
1226.459992	1202.692308
1228.520515	1217.671329
1230.580555	1219.182517
1232.640111	1214.210490
1234.697303	1200.778322
1236.754012	1199.957343
1238.808359	1192.372028
1240.865986	1200.395105
1242.921251	1201.060140
1244.972275	1206.776224
1247.024699	1218.456643
1249.076644	1234.724476
1251.126230	1236.890210
1253.175337	1228.373427
1255.223965	1203.581119
1257.272115	1199.790210
1259.319787	1172.376923
1261.363228	1178.462937
1263.409944	1184.961538
1265.454308	1193.095105
1267.498194	1189.032168
1269.539730	1213.755944
1271.578916	1223.966434
1273.621374	1217.252448
1275.659611	1217.927273
1277.699245	1215.653147
1279.738405	1203.707692
1281.773347	1213.298601
1283.809687	1220.720280
1285.843682	1230.751748
1287.879076	1231.956643
1289.910256	1227.306993
1291.942835	1228.319580
1293.974941	1258.701399
1296.004707	1255.278322
1298.035871	1270.307692
1300.062827	1279.304895
1302.091181	1275.864336
1304.115331	1263.653147
1306.142746	1251.166434
1308.165958	1239.324476
1310.190568	1211.050350
1312.212843	1197.367133
1314.236516	1182.532168
1316.257856	1180.088811
1318.278729	1180.328671
1320.299134	1182.172028
1322.315345	1199.070629
1324.332955	1186.359441
1326.348236	1185.381818
1328.366776	1178.374126
1330.381126	1163.802797
1332.393151	1138.446154
1334.408434	1125.959441
1336.419531	1126.304196
1338.432024	1125.956643
1340.440335	1123.823776
1342.451902	1128.097902
1344.457430	1132.618182
1346.466212	1142.881818
1348.470818	1132.038462
1350.478677	1136.318182
1352.486073	1136.065035
1354.487439	1138.810490
1356.490202	1133.370629
1358.492505	1143.009790
1360.494347	1153.654545
1362.495731	1164.039161
1364.494800	1173.043357
1366.493411	1179.788112
1368.491564	1178.537762
1370.489259	1187.586713
1372.482790	1178.406294
1374.477718	1182.599301
1376.472189	1155.958741
1378.466203	1144.516084
1380.457910	1123.163636
1382.449161	1117.439860
1384.438107	1112.421678
1386.428448	1111.220979
1388.418334	1118.944755
1390.405917	1133.488112
1392.393046	1143.152448
1394.377873	1151.683916
1396.364095	1158.821678
1398.348016	1161.965734
1400.331485	1129.959441
1402.314502	1122.720280
1404.295221	1102.966434
1406.277334	1108.969930
1408.257150	1098.200699
1410.236516	1105.622378
1412.211743	1112.293706
1414.190208	1116.363636
1416.166380	1116.369930
1418.142102	1125.322378
1420.117375	1131.983916
1422.090357	1145.304895
1424.062892	1150.660140
1426.034978	1154.077622
1428.006616	1157.788811
1429.974127	1171.210490
1431.946711	1165.737762
1433.911489	1173.644755
1435.881340	1164.305594
1437.847066	1166.237762
1439.814186	1166.076923
1441.779022	1168.584615
1443.739738	1171.116783
1445.705522	1188.181818
1447.665351	1201.746853
1449.626573	1206.511888
1451.589188	1214.958042
1453.547688	1218.904196
1455.505746	1210.668531
1457.463361	1211.342657
1459.420535	1208.394406
1461.375433	1212.720280
1463.331723	1202.215385
1465.285739	1196.388811
1467.239315	1190.345455
1469.190618	1203.178322
1471.143313	1202.326573
1473.093737	1214.269930
1475.043722	1220.578322
1476.993267	1229.806294
1478.940544	1221.616084
1480.885554	1238.281119
1482.831956	1239.557343
1484.777920	1234.724476
1486.723446	1205.458741
1488.666708	1190.372727
1490.609533	1179.872028
1492.550095	1184.190210
1494.492048	1177.337762
1496.431740	1192.338462
1498.370996	1186.575524
1500.309818	1194.390909
1502.246380	1200.983217
1504.184332	1226.944755
1506.120027	1239.855245
1508.055288	1259.413287
1509.988292	1261.217483
1511.920864	1283.594406
1513.853004	1288.138462
1515.784712	1282.407692
1517.714167	1270.995105
1519.645011	1268.045455
1521.575425	1251.345455
1523.501766	1234.213986
1525.429497	1221.533566
1527.354978	1215.553846
1529.280030	1215.100000
1531.204653	1213.255245
1533.128847	1225.088112
1535.050794	1222.093007
1536.974130	1222.506993
1538.895221	1231.109091
1540.814067	1237.626573
1542.734303	1255.582517
1544.652295	1254.417483
1546.569861	1261.874825
1548.485185	1290.497203
1550.401899	1300.104895
1552.314558	1299.697203
1554.230421	1284.935664
1556.144045	1292.166434
1558.055430	1261.430070
1559.968204	1263.841958
1561.876929	1261.296503
1563.787044	1232.833566
1565.696735	1209.353846
1567.606002	1187.165734
1569.513036	1201.838462
1571.417837	1236.776224
1573.324027	1257.803497
1575.227985	1259.491608
1577.131523	1276.816084
1579.034639	1300.160140
1580.935527	1317.751748
1582.837803	1339.723077
1584.737850	1350.835664
1586.639286	1332.258741
1588.536687	1320.005594
1590.433671	1305.404895
1592.330236	1304.619580
1594.228188	1298.693007
1596.120306	1319.317483
1598.015618	1307.704196
1599.910511	1306.967133
1601.803183	1304.796503
1603.695439	1319.006294
1605.585475	1303.404196
1607.475095	1311.831469
1609.364300	1295.341259
1611.253089	1315.979021
1613.139662	1312.789510
1615.027621	1319.595105
1616.911565	1348.448252
1618.796895	1398.257343
1620.681812	1403.845455
1622.564515	1402.781119
1624.448604	1407.542657
1626.328683	1408.776923
1628.210148	1395.236364
1630.089403	1391.747552
1631.970044	1358.960140
1633.844881	1363.879021
1635.724700	1364.170629
1637.600513	1376.139860
1639.475917	1388.748252
1641.352706	1378.172727
1643.223698	1365.037762
1645.097872	1375.406294
1646.968048	1366.387413
1648.841404	1385.680420
1650.712557	1379.151049
1652.581508	1367.032867
1654.451845	1383.891608
1656.318188	1416.365035
1658.185918	1437.777622
1660.051448	1450.528671
1661.918363	1420.537762
1663.781290	1402.564336
1665.645602	1400.262238
1667.507719	1370.104196
1669.369430	1332.876923
1671.232526	1327.022378
1673.093428	1286.460839
1674.952136	1294.039161
1676.810441	1328.458741
1678.670131	1327.198601
1680.524054	1344.777622
1682.381149	1361.678322
1684.237842	1338.967133
1686.090559	1341.972028
1687.946447	1344.623776
1689.798361	1302.605594
1691.649873	1307.931469
1693.500986	1308.682517
1695.351697	1288.211888
1697.202008	1295.644056
1699.050135	1272.307692
1700.899645	1239.311888
1702.743407	1239.981818
1704.592119	1210.537063
1706.435084	1167.304895
1708.281215	1145.165734
1710.123385	1123.391608
1711.968719	1123.211189
1713.808313	1123.705594
1715.649291	1104.348951
1717.491652	1094.097203
1719.330057	1083.962238
1721.169845	1054.409091
1723.007458	1035.253846
1724.844675	1010.292308
1726.679719	975.333566
1728.516146	950.869231
1730.350401	950.746853
1732.184262	942.319580
1734.017728	924.750350
1735.847248	899.013986
1737.679927	883.962238
1739.508662	886.287413
1741.340555	880.053147
1743.168505	868.758042
1744.996063	859.630070
1746.823230	841.382517
1748.650004	846.647552
1750.476388	861.416084
1752.298835	875.937762
1754.124436	874.753147
1755.946103	870.641958
1757.769152	885.390210
1759.590040	887.369231
1761.410538	905.306993
1763.232418	917.413287
1765.048598	951.122378
1766.867930	963.713986
1768.683335	965.572727
1770.501891	982.486014
1772.316521	989.214685
1774.130764	998.190909
1775.944621	1000.132168
1777.758091	1012.009790
1779.569407	1024.456643
1781.382105	1019.939161
1783.194416	1039.821678
1785.002810	1059.705594
1786.812585	1130.597203
1788.618444	1140.165734
1790.427450	1170.473427
1792.232542	1206.452448
1794.039014	1231.427972
1795.845103	1235.404196
1797.647282	1231.479720
1799.452604	1259.559441
1801.254018	1273.061538
1803.056812	1261.286713
1804.855701	1251.323077
1806.655969	1235.090210
1808.455857	1265.466434
1810.253602	1239.427273
1812.050967	1281.818881
1813.847951	1313.540559
1815.644555	1350.551748
1817.439020	1360.928671
1819.234865	1365.540559
1821.025054	1402.490210
1822.820140	1419.022378
1824.609573	1424.362937
1826.402144	1402.579021
1828.192579	1367.501399
1829.980879	1351.783916
1831.772315	1311.187413
1833.558105	1334.418182
1835.345275	1332.201399
1837.130313	1337.889510
1838.918485	1339.918182
1840.702771	1333.357343
1842.484928	1376.986713
1844.268463	1402.158741
1846.049871	1425.128671
1847.832656	1418.763636
1849.611562	1395.104895
1851.391846	1378.754545
1853.170005	1380.683217
1854.949541	1384.624476
1856.726953	1378.409790
1858.502241	1371.502797
1860.278908	1376.582517
1862.053452	1387.411888
1863.829373	1390.334965
1865.599675	1378.510490
1867.373104	1391.727273
1869.144413	1366.297203
1870.915351	1376.651049
1872.687666	1385.577622
1874.454369	1397.388811
1876.224196	1398.062238
1877.990160	1405.292308
1879.759248	1410.293706
1881.524474	1440.058741
1883.289332	1466.567133
1885.055566	1464.345455
1886.817942	1475.681119
1888.579951	1471.979021
1890.341593	1437.246154
1892.102867	1443.278322
1893.863775	1414.486713
1895.624315	1392.616783
1897.382746	1365.340559
1899.140812	1345.011888
1900.896770	1346.679720
1902.654104	1354.172727
1904.411072	1359.104895
1906.165935	1375.648951
1907.918692	1378.393706
1909.671086	1364.162238
1911.424856	1354.744755
1913.176522	1354.135664
1914.926085	1338.239860
1916.677025	1357.913986
1918.427601	1355.399301
1920.174339	1349.900699
1921.922452	1348.779021
1923.668466	1331.758741
1925.415856	1328.386713
1927.161147	1336.930070
1928.904341	1331.523776
1930.648911	1333.081818
1932.391384	1339.865035
1934.133497	1352.460839
1935.875251	1378.019930
1937.616644	1428.116084
1939.355944	1440.248601
1941.094885	1448.642657
1942.833467	1450.487063
1944.569957	1438.086014
1946.306090	1425.989860
1948.043597	1414.396503
1949.777283	1391.948601
1951.512343	1372.145455
1953.245314	1365.422727
1954.977929	1362.884615
1956.710187	1363.506643
1958.442089	1366.612587
1960.171905	1378.546853
1961.899637	1386.767133
1963.628742	1385.289510
1965.357493	1377.525175
1967.084160	1384.614685
1968.810473	1378.246853
1970.538159	1367.542657
1972.260309	1350.402098
1973.985561	1353.865734
1975.707005	1358.229371
1977.431549	1368.508392
1979.154014	1387.067133
1980.872675	1391.258042
1982.594435	1380.371329
1984.312393	1344.355944
1986.031725	1335.218182
1987.747256	1330.858741
1989.467609	1318.441958
1991.184162	1312.195804
1992.896920	1306.809790
1994.612773	1325.161538
1996.326554	1326.673427
1998.039984	1338.100699
1999.751344	1349.601399
2001.464077	1331.802098
2003.173018	1343.570629
2004.885053	1339.358741
2006.591578	1341.869930
2008.301196	1337.881119
2010.008746	1346.116783
2011.715949	1342.170629
2013.421086	1335.611888
2015.125876	1329.505594
2016.832038	1315.895804
2018.534418	1317.503497
2020.238170	1323.923776
2021.939859	1344.367832
2023.641202	1378.577622
2025.342200	1393.875524
2027.041138	1388.244755
2028.741447	1400.534965
2030.437980	1398.119580
2032.135885	1387.225175
2033.831732	1368.769231
2035.530664	1353.964336
2037.224110	1352.448951
2038.918927	1326.743357
2040.613401	1315.508392
2042.304107	1322.732867
2043.997897	1336.579021
2045.687920	1339.055245
2047.379314	1356.500000
2049.068655	1368.978322
2050.759366	1374.606993
2052.446315	1388.410490
2054.132923	1400.181818
2055.820902	1412.443357
2057.505121	1411.718182
2059.190710	1387.965035
2060.875960	1385.527972
2062.559162	1375.170629
2064.243734	1368.259441
2065.922842	1344.829371
2067.606736	1354.412587
2069.285170	1345.702797
2070.966681	1353.352448
2072.644440	1354.509790
2074.321863	1367.848252
2076.000655	1355.941259
2077.677404	1350.807692
2079.352112	1349.118182
2081.028189	1364.514685
2082.702226	1357.467832
2084.375927	1358.896503
2086.049293	1381.795804
2087.720621	1381.398601
2089.391614	1362.368531
2091.062273	1351.587413
2092.732598	1344.028671
2094.402588	1332.512587
2096.070543	1316.904196
2097.738165	1328.773427
2099.403753	1336.717483
2101.070709	1377.784615
2102.735632	1396.286713
2104.400222	1413.032867
2106.062781	1437.817483
2107.726709	1419.736364
2109.388605	1402.114685
2111.050170	1400.176923
2112.711405	1396.115385
2114.370610	1392.035664
2116.029486	1398.493007
2117.688031	1400.927972
2119.346247	1404.574126
2121.000739	1412.693706
2122.658297	1405.439860
2124.315524	1393.169231
2125.969031	1395.707692
2127.623905	1371.744755
2129.275060	1371.423776
2130.929278	1381.690210
2132.579778	1373.439161
2134.231646	1392.671329
2135.878105	1408.016783
2137.529318	1413.959441
2139.176818	1439.816084
2140.825686	1441.318881
2142.472534	1440.688112
2144.119056	1433.288112
2145.765254	1430.702098
2147.407742	1396.017483
2149.053289	1398.434266
2150.695129	1385.018182
2152.340026	1366.624476
2153.981218	1360.500000
2155.622086	1350.272028
2157.262631	1337.220979
2158.901163	1350.719580
2160.541061	1357.355245
2162.177259	1365.343357
2163.814823	1375.609091
2165.452065	1381.733566
2167.087297	1381.386014
2168.722207	1411.654545
2170.356796	1414.905594
2171.991064	1411.065734
2173.621638	1417.147552
2175.255263	1409.367832
2176.885197	1408.193706
2178.516496	1405.487413
2180.145791	1405.551049
2181.774765	1403.939161
2183.403421	1419.874126
2185.031757	1425.493706
2186.658090	1450.841259
2188.284105	1453.583916
2189.908119	1448.795105
2191.533498	1447.023776
2193.156876	1465.418182
2194.781619	1469.827273
2196.402680	1449.544056
2198.023426	1412.784615
2199.645535	1396.520979
2201.265647	1369.096503
2202.883763	1365.937063
2204.501563	1347.190210
2206.119047	1346.905594
2207.736216	1341.925175
2209.353070	1368.331469
2210.969609	1378.191608
2212.584154	1414.583217
2214.196707	1433.522378
2215.810625	1440.642657
2217.422550	1435.197902
2219.035840	1430.351049
2220.647138	1419.845455
2222.256448	1429.472028
2223.867120	1419.142657
2225.475804	1413.314685
2227.084176	1412.563636
2228.690560	1421.728671
2230.298308	1417.390909
2231.904069	1441.865035
2233.509519	1444.635664
2235.112985	1441.955944
2236.717813	1431.084615
2238.320657	1428.900000
2239.921518	1433.593007
2241.523742	1442.093706
2243.123983	1443.072727
2244.725588	1454.886014
2246.323539	1480.903497
2247.922853	1500.427972
2249.520187	1512.433566
2251.117213	1534.067133
2252.715600	1534.695105
2254.310339	1533.131469
2255.903102	1535.276224
2257.497226	1527.926573
2259.092712	1524.476224
2260.684554	1529.837762
2262.276089	1547.739860
2263.868985	1566.284615
2265.456572	1570.800000
2267.048856	1570.437762
2268.635832	1563.398601
2270.225837	1555.376923
2271.810537	1546.755944
2273.399931	1530.251049
2274.984022	1503.829371
2276.569475	1497.475524
2278.152959	1496.683916
2279.739468	1493.095105
2281.322344	1507.961538
2282.904916	1496.896853
2284.487186	1478.562238
2286.065825	1485.050699
2287.647488	1477.783916
2289.225524	1469.173776
2290.806582	1457.668531
2292.384013	1443.901748
2293.959481	1446.292308
2295.537971	1454.903147
2297.112836	1463.365035
2298.687401	1457.348601
2300.261666	1462.158741
2301.835630	1433.902448
2303.409294	1415.721678
2304.982657	1433.636364
2306.552402	1429.370629
2308.121848	1424.644755
2309.694313	1419.972028
2311.261503	1433.991608
2312.831710	1448.558042
2314.398303	1453.676224
2315.966256	1439.841958
2317.532254	1426.997203
2319.097954	1453.779720
2320.663356	1458.123776
2322.226805	1495.329371
2323.791613	1539.581818
2325.352812	1565.079720
2326.917026	1575.958042
2328.475979	1565.346853
2330.037945	1530.206294
2331.597961	1510.588112
2333.157681	1474.247552
2334.715452	1435.103497
2336.272929	1386.401399
2337.830110	1371.064336
2339.385345	1357.721678
2340.940285	1351.514685
2342.494932	1380.783916
2344.049285	1365.027273
2345.603344	1351.741958
2347.157110	1335.147552
2348.708931	1301.048951
2350.258809	1321.582517
2351.811695	1345.905594
2353.359339	1356.979720
2354.909990	1373.485315
2356.457051	1420.111888
2358.005469	1450.355245
2359.553595	1467.689510
2361.098134	1487.358042
2362.644030	1466.995105
2364.187987	1472.365035
2365.733302	1458.925874
2367.275032	1446.108392
2368.818120	1467.819580
2370.359271	1487.181818
2371.900133	1465.825874
2373.440706	1484.623077
2374.980990	1465.221678
2376.520985	1430.009790
2378.057401	1389.193007
2379.596819	1385.572028
2381.132660	1383.351748
2382.669857	1342.206993
2384.203480	1356.540559
2385.740102	1345.230070
2387.274793	1345.485315
2388.807555	1327.353846
2390.340031	1292.724476
2391.870578	1280.580420
2393.404123	1269.305594
2394.932457	1259.326573
2396.462147	1285.588811
2397.991552	1337.470629
2399.520672	1361.174126
2401.049506	1366.757343
2402.573136	1402.929371
2404.101401	1399.322378
2405.624463	1413.126573
2407.152160	1410.801399
2408.673016	1406.767832
2410.198506	1400.486713
2411.720436	1381.634965
2413.243720	1364.577622
2414.765084	1383.682517
2416.284528	1367.519580
2417.805327	1382.388811
2419.324207	1374.347552
2420.842805	1354.687413
2422.359486	1359.815385
2423.877522	1377.025175
2425.395276	1397.929371
2426.909478	1413.622378
2428.423400	1419.495105
2429.937043	1435.183916
2431.452039	1458.649650
2432.963487	1471.603497
2434.476290	1481.725874
2435.987180	1499.662238
2437.497790	1472.646853
2439.006489	1439.873427
2440.518175	1447.344056
2442.026317	1468.427972
2443.534180	1458.955245
2445.041766	1433.493007
2446.545812	1434.667832
2448.052842	1457.185315
2449.557964	1465.106294
2451.062809	1469.597902
2452.565747	1470.272727
2454.068408	1468.702797
2455.570793	1471.327972
2457.071273	1486.574825
2458.573106	1520.203497
2460.073035	1514.127972
2461.572688	1516.203497
2463.072066	1510.720979
2464.569541	1519.437762
2466.065114	1528.903497
2467.563667	1515.071329
2469.058691	1495.404895
2470.555069	1492.133566
2472.047920	1492.427972
2473.542123	1498.702098
2475.036053	1508.683916
2476.526460	1511.794406
2478.019844	1477.676923
2479.511329	1503.703497
2481.000918	1512.120280
2482.490236	1494.032168
2483.977657	1482.487413
2485.468054	1431.404196
2486.954932	1436.983217
2488.443162	1429.144755
2489.927876	1423.537762
2491.412319	1450.927972
2492.898114	1469.887413
2494.382016	1472.848951
2495.867270	1435.120979
2497.347390	1451.437762
2498.830482	1478.488112
2500.311684	1489.460140
2501.792617	1465.883916
2503.271661	1450.818182
2504.750437	1461.951748
2506.228944	1431.000000
2507.707182	1447.008392
2509.185152	1458.137762
2510.659618	1464.372727
2512.137052	1451.052448
2513.610983	1444.153147
2515.086265	1462.203497
2516.561279	1495.584615
2518.032792	1502.027273
2519.505656	1478.129371
2520.976637	1498.771329
2522.448967	1485.560839
2523.916185	1457.201399
2525.386369	1472.383916
2526.854671	1480.328671
2528.322709	1486.755944
2529.790482	1491.851748
2531.257990	1501.430070
2532.725233	1494.896503
2534.188985	1517.506993
2535.654086	1557.575524
2537.117310	1582.560839
2538.581883	1570.134965
2540.042967	1557.918182
2541.505402	1549.632867
2542.967573	1557.921678
2544.426257	1541.262937
2545.889514	1529.130769
2547.347674	1533.909790
2548.807183	1512.405594
2550.261599	1532.976923
2551.720585	1584.126573
2553.177698	1622.395804
2554.632941	1633.159441
2556.087923	1624.689510
2557.541035	1629.448252
2558.995496	1634.644056
2560.448088	1617.387413
2561.900420	1605.102098
2563.350884	1601.583217
2564.804304	1605.523077
2566.252642	1588.598601
2567.703936	1623.511189
2569.153363	1632.810490
2570.599319	1614.832867
2572.048229	1629.537762
2573.493668	1624.662937
2574.940456	1624.429371
2576.385380	1636.359441
2577.830047	1608.758741
2579.276061	1622.784615
2580.718608	1617.746154
2582.162503	1620.698601
2583.602933	1620.077622
2585.044711	1659.905594
2586.484629	1660.993007
2587.925894	1675.346853
2589.363697	1679.018182
2590.804450	1683.429371
2592.240140	1689.125175
2593.678780	1675.485315
2595.115563	1671.808392
2596.550489	1690.418881
2597.988364	1691.479021
2599.421181	1676.710490
2600.855345	1668.855944
2602.287654	1659.232168
2603.721310	1637.912587
2605.153113	1645.106294
2606.584663	1612.537063
2608.015959	1605.395804
2609.445404	1578.170629
2610.874596	1557.989510
2612.301937	1571.942657
2613.730625	1569.025874
2615.159060	1566.523077
2616.584049	1570.403497
2618.010383	1562.353846
2619.434869	1566.453147
2620.860701	1580.102098
2622.283089	1596.673427
2623.706823	1589.853147
2625.128711	1592.947552
2626.550348	1573.481818
2627.970140	1569.816084
2629.391278	1572.251748
2630.812166	1558.146154
2632.229616	1557.591608
2633.650005	1579.285315
2635.066957	1594.805594
2636.483661	1588.674825
2637.900116	1586.498601
2639.316323	1573.626573
2640.732281	1559.355944
2642.146399	1565.667133
2643.560270	1556.990909
2644.972301	1564.544056
2646.385677	1552.267133
2647.795623	1562.194406
2649.208505	1579.851748
2650.617958	1620.273427
2652.027165	1659.227972
2653.434536	1657.079720
2654.844841	1684.961538
2656.253310	1685.934266
2657.659944	1690.818881
2659.066333	1695.930070
2660.470888	1679.209790
2661.876787	1674.009091
2663.280853	1645.359441
2664.684675	1636.463636
2666.088252	1631.450350
2667.489997	1649.590210
2668.893086	1665.081119
2670.292758	1672.140559
2671.693773	1689.410490
2673.091371	1670.902098
2674.491900	1663.678322
2675.889014	1656.006993
2677.287471	1665.146154
2678.684100	1684.314685
2680.080488	1651.753147
2681.476633	1651.026573
2682.870952	1664.852448
2684.266614	1673.301399
2685.658866	1693.122378
2687.052462	1677.525175
2688.444233	1706.165035
2689.837346	1705.531469
2691.228636	1693.753147
2692.618103	1685.448252
2694.007331	1688.206294
2695.396318	1683.966434
2696.786648	1648.060140
2698.171993	1658.465035
2699.560263	1656.251748
2700.946712	1646.369231
2702.332922	1643.206993
2703.718893	1652.504196
2705.101466	1698.539860
2706.485380	1707.499301
2707.869057	1708.655944
2709.252496	1712.734965
2710.632539	1706.539860
2712.013924	1697.048951
2713.393493	1684.158042
2714.774404	1667.867832
2716.153500	1661.065734
2717.530781	1638.592308
2718.909404	1620.076923
2720.286214	1621.356643
2721.662788	1622.132168
2723.039126	1628.215385
2724.413652	1669.534266
2725.789519	1671.765035
2727.161999	1665.679720
2728.537396	1690.669231
2729.907831	1707.932168
2731.279608	1734.807692
2732.651151	1756.930070
2734.020885	1756.693706
2735.391959	1731.848252
2736.761226	1724.957343
2738.130259	1720.253147
2739.497485	1707.699301
2740.864479	1701.788112
2742.231240	1680.625874
2743.597768	1679.444755
2744.962492	1692.800000
2746.326983	1678.792308
2747.691242	1701.665734
2749.055270	1682.267133
2750.419065	1692.726573
2751.779487	1709.288811
2753.142820	1711.009091
2754.501210	1705.593706
2755.862510	1685.783217
2757.220439	1673.425874
2758.581278	1660.699301
2759.940316	1670.612587
2761.295986	1658.813986
2762.654565	1651.205594
2764.009776	1643.986014
2765.364758	1622.046853
2766.717943	1623.295105
2768.074035	1634.347552
2769.426763	1616.897902
2770.779262	1641.729371
2772.131533	1647.903497
2773.485143	1661.537762
2774.835391	1686.012587
2776.183846	1740.943357
2777.535205	1768.195105
2778.883205	1784.769930
2780.232544	1795.851049
2781.580090	1803.328671
2782.927409	1764.601399
2784.274502	1748.190909
2785.619804	1729.903497
2786.964880	1730.597902
2788.309730	1707.240559
2789.654354	1691.897203
2790.995625	1698.702098
2792.338235	1725.262238
2793.680620	1740.357343
2795.022779	1726.229371
2796.361589	1770.669231
2797.703299	1756.942657
2799.041660	1745.788811
2800.381359	1764.225175
2801.719272	1791.711888
2803.055401	1805.478322
2804.391307	1806.530070
2805.728549	1805.538462
2807.064008	1821.846853
2808.399244	1829.620979
2809.732698	1821.216084
2811.067488	1798.674126
2812.398937	1796.188811
2813.733282	1749.958741
2815.062729	1753.691608
2816.393513	1762.158042
2817.724075	1772.461538
2819.052858	1781.208392
2820.382978	1788.591608
2821.711318	1809.331469
2823.039438	1816.325175
2824.365781	1827.458042
2825.693459	1835.541958
2827.017805	1812.667133
2828.343486	1798.224476
2829.667393	1770.569231
2830.991079	1766.120979
2832.316101	1770.946154
2833.637794	1753.543357
2834.959267	1742.818881
2836.280522	1717.251748
2837.601558	1729.672028
2838.920822	1727.931469
2840.241421	1759.718881
2841.560248	1752.848252
2842.878857	1751.056643
2844.195696	1769.730070
2845.512317	1761.249650
2846.828720	1798.544056
2848.143355	1839.405594
2849.459324	1841.624476
2850.771973	1831.995105
2852.085958	1813.527273
2853.399726	1831.261538
2854.713277	1844.255944
2856.025061	1826.001399
2857.335080	1797.646853
2858.646433	1782.139860
2859.954470	1752.025175
2861.263843	1752.743357
2862.573000	1772.805594
2863.881942	1788.379720
2865.189121	1803.496503
2866.494536	1797.367133
2867.801286	1802.075524
2869.106273	1820.658042
2870.411047	1845.326573
2871.714059	1813.020979
2873.019953	1833.751748
2874.320992	1862.155944
2875.623364	1838.537063
2876.923977	1851.955944
2878.225924	1851.923776
2879.527658	1839.097902
2880.826088	1826.424476
2882.125851	1792.265734
2883.423857	1780.664336
2884.721651	1767.883217
2886.017688	1748.857343
2887.315059	1746.546154
2888.610674	1764.274825
2889.906079	1773.893007
2891.201272	1761.116783
2892.493167	1774.717483
2893.787939	1793.728671
2895.079415	1786.076923
2896.372223	1792.616783
2897.664821	1787.711888
2898.954124	1782.179720
2900.244760	1784.534965
2901.533646	1785.460839
2902.823863	1796.807692
2904.110789	1789.379720
2905.399047	1803.480420
2906.685556	1837.197902
2907.971856	1827.095804
2909.257948	1870.437063
2910.542292	1889.262937
2911.829508	1911.760140
2913.111897	1915.340559
2914.395618	1901.199301
2915.677592	1900.876923
2916.959360	1892.322378
2918.239382	1868.327273
2919.522274	1871.525175
2920.803421	1847.166434
2922.081286	1829.311888
2923.362020	1802.041958
2924.639473	1819.746154
2925.916721	1827.711189
2927.192226	1844.137063
2928.470599	1840.920280
2929.744157	1842.800000
2931.020583	1842.751748
2932.295268	1859.900000
2933.568213	1873.962937
2934.842488	1905.920979
2936.115024	1926.536364
2937.387356	1936.417483
2938.656415	1948.751049
2939.928339	1953.386713
2941.198525	1985.764336
2942.468507	1985.695105
2943.738286	1976.816783
2945.006328	1979.053846
2946.272635	1956.844755
2947.538739	1946.114685
2948.806174	1927.632168
2950.071873	1922.190909
2951.337370	1911.774825
2952.602665	1902.797203
2953.864696	1904.899301
2955.128056	1907.687413
2956.391215	1909.172028
2957.652641	1905.260140
2958.915397	1912.820979
2960.176422	1914.702098
2961.435716	1891.625175
2962.694809	1886.712587
2963.953702	1886.897203
2965.212395	1905.999301
2966.470888	1920.069930
2967.727652	1950.133566
2968.984217	1973.817483
2970.239053	1998.960140
2971.495219	1997.339860
2972.748129	1981.389510
2974.002369	1960.617483
2975.256410	1933.578322
2976.508725	1920.137063
2977.760842	1928.709091
2979.011234	1926.803497
2980.264481	1947.329371
2981.512951	1950.872727
2982.764275	1977.830769
2984.012351	2005.665035
2985.260229	2035.100000
2986.507910	2024.062937
2987.755395	2001.136364
2989.001158	2009.350350
2990.246724	2014.646154
2991.493619	2031.250350
2992.737268	2023.727273
2993.982246	2008.380420
2995.223981	2014.069231
2996.468567	2026.079021
2997.711434	2025.330070
2998.951059	2023.766434
3000.193536	2040.845455
3001.432772	2033.390909
3002.673336	2046.791608
3003.912183	2073.531469
3005.150836	2089.928671
3006.387773	2090.479021
3007.626037	2071.781818
3008.862587	2052.527972
3010.098943	2049.553846
3011.335105	2059.518182
3012.569553	2054.051748
3013.803808	2067.334965
3015.037870	2090.362937
3016.270220	2107.013287
3017.500858	2118.209091
3018.734342	2125.530070
3019.966115	2122.068531
3021.196176	2120.411888
3022.426046	2109.493706
3023.654206	2120.900699
3024.883693	2126.334965
3026.111470	2144.991608
3027.339056	2154.392308
3028.567968	2159.780420
3029.792138	2158.976923
3031.019151	2149.142657
3032.242941	2120.078322
3033.468056	2116.699301
3034.691465	2116.190909
3035.914685	2127.131469
3037.136199	2115.432168
3038.360554	2128.868531
3039.580174	2124.562238
3040.801120	2124.598601
3042.021876	2131.653846
3043.240929	2148.626573
3044.461308	2152.013287
3045.678470	2156.025175
3046.896957	2169.367832
3048.113743	2178.381119
3049.330340	2178.341958
3050.546750	2172.581119
3051.759946	2146.852448
3052.975980	2134.217483
3054.188802	2122.335664
3055.404461	2106.434965
3056.615397	2115.079720
3057.827659	2114.623776
3059.039733	2125.733566
3060.251621	2132.924476
3061.461811	2136.595804
3062.671816	2135.697902
3063.881634	2151.241259
3065.089756	2142.663636
3066.297692	2121.416084
3067.503934	2097.118881
3068.711500	2087.742657
3069.917371	2084.342657
3071.123057	2067.328671
3072.328559	2050.329371
3073.532367	2060.390909
3074.737499	2046.883916
3075.940938	2050.629371
3077.142685	2074.736364
3078.344249	2105.750350
3079.545629	2112.329371
3080.746825	2105.012587
3081.946331	2098.520280
3083.145653	2104.721678
3084.346299	2115.651049
3085.545256	2113.830769
3086.741017	2099.437063
3087.939608	2108.793706
3089.135005	2098.049650
3090.331726	2097.213986
3091.525254	2111.539161
3092.721610	2134.652448
3093.916279	2131.746154
3095.107758	2115.674825
3096.303568	2117.069231
3097.494685	2135.860140
3098.687125	2145.463636
3099.876376	2135.034266
3101.068454	2141.436364
3102.258848	2154.105594
3103.446055	2156.511888
3104.634586	2151.288811
3105.824439	2181.065734
3107.011107	2191.916783
3108.197596	2197.268531
3109.383905	2218.243357
3110.571537	2234.890909
3111.755986	2243.811888
3112.938755	2234.934266
3114.124348	2225.361538
3115.308260	2229.523077
3116.490494	2206.735664
3117.672550	2199.811888
3118.854427	2193.922378
3120.036126	2197.314685
3121.216148	2178.602098
3122.394492	2180.627273
3123.575658	2181.516084
3124.753648	2174.491608
3125.931461	2150.937762
3127.109097	2163.038462
3128.285058	2172.702797
3129.460843	2176.779021
3130.637948	2201.422378
3131.813380	2211.910490
3132.987138	2234.427972
3134.159223	2225.158042
3135.332629	2233.350350
3136.505860	2216.432168
3137.677418	2194.253147
3138.850298	2187.081818
3140.020010	2177.724476
3141.191043	2187.777622
3142.360405	2178.747552
3143.528098	2188.891608
3144.698606	2194.839161
3145.864455	2206.802098
3147.034614	2224.702797
3148.200115	2217.480420
3149.365443	2232.340559
3150.530597	2222.105594
3151.695578	2228.084615
3152.861878	2243.704895
3154.023525	2241.301399
3155.186493	2228.833566
3156.349287	2225.279720
3157.511909	2225.710490
3158.672866	2215.888811
3159.833650	2220.558741
3160.994263	2231.448951
3162.153211	2244.417483
3163.311987	2272.262238
3164.470592	2290.286014
3165.629025	2321.266434
3166.787286	2346.379720
3167.943885	2344.631469
3169.098823	2355.324476
3170.255080	2357.351748
3171.409677	2347.789510
3172.564102	2332.365734
3173.716868	2299.116084
3174.869464	2296.270629
3176.021890	2294.125175
3177.174145	2303.923776
3178.326231	2320.316084
3179.475170	2350.469231
3180.626916	2354.773427
3181.777005	2355.665035
3182.925436	2385.563636
3184.073699	2390.188811
3185.221793	2413.523077
3186.369717	2424.625874
3187.515987	2423.060839
3188.662088	2439.456643
3189.806535	2441.016783
3190.950813	2435.978322
3192.094924	2451.553147
3193.240353	2450.416084
3194.382643	2436.510490
3195.524765	2453.372727
3196.666721	2461.948951
3197.808509	2441.517483
3198.950130	2463.300699
3200.088615	2467.311189
3201.228419	2473.463636
3202.369539	2484.467133
3203.507525	2462.321678
3204.643862	2456.855245
3205.780033	2445.535664
3206.917522	2412.960839
3208.053362	2391.574825
3209.190518	2395.813287
3210.323063	2370.791608
3211.459888	2375.987413
3212.592102	2382.043357
3213.725634	2373.286713
3214.859000	2396.844755
3215.989239	2404.196503
3217.122277	2391.290210
3218.252187	2401.781818
3219.383415	2381.260140
3220.511517	2358.378322
3221.642417	2341.165734
3222.771672	2335.206294
3223.899283	2315.479720
3225.023773	2315.887413
3226.152538	2301.676923
3227.278181	2318.762937
3228.403661	2370.613986
3229.527500	2393.431469
3230.654134	2411.260839
3231.776169	2441.670629
3232.899521	2482.531469
3234.022711	2496.700699
3235.145739	2491.386713
3236.267127	2475.712587
3237.388354	2447.935664
3238.507942	2422.674825
3239.627369	2379.502797
3240.745159	2364.970629
3241.865740	2373.704895
3242.983208	2382.983916
3244.100515	2385.283916
3245.217661	2412.680420
3246.333172	2443.302098
3247.449998	2467.139860
3248.563713	2467.064336
3249.680219	2482.087413
3250.795089	2484.612587
3251.906851	2480.226573
3253.018454	2441.716084
3254.131372	2443.152448
3255.244130	2461.839860
3256.353782	2470.332867
3257.464749	2472.572028
3258.575557	2495.932867
3259.684733	2506.940559
3260.792278	2543.700699
3261.901138	2533.189510
3263.009839	2536.708392
3264.115438	2549.775524
3265.222352	2577.540559
3266.327636	2593.613986
3267.434234	2630.863636
3268.537732	2642.913986
3269.642544	2633.662937
3270.747199	2636.281119
3271.848756	2643.395105
3272.950156	2640.481119
3274.052870	2646.850350
3275.155427	2618.300000
3276.254889	2614.404895
3277.357133	2620.412587
3278.456283	2637.258042
3279.553807	2636.646154
3280.651176	2633.893007
3281.751328	2614.347552
3282.848386	2596.402797
3283.945290	2571.008392
3285.042038	2556.667832
3286.134227	2546.374825
3287.230666	2556.098601
3288.325482	2537.244755
3289.420143	2533.112587
3290.513183	2516.668531
3291.606069	2522.390909
3292.697334	2518.607692
3293.789912	2518.102797
3294.880870	2522.690909
3295.970208	2541.726573
3297.059393	2552.887413
3298.149890	2574.813287
3299.237303	2578.741958
3300.324564	2578.155245
3301.413137	2580.021678
3302.501557	2583.392308
3303.585430	2600.531469
3304.673545	2605.489510
3305.758579	2628.087413
3306.841997	2644.162937
3307.926727	2652.627972
3309.009841	2655.188112
3310.094267	2660.852448
3311.175615	2664.925874
3312.258275	2627.201399
3313.339321	2611.983217
3314.420216	2613.181818
3315.499498	2607.611189
3316.578629	2626.031469
3317.659072	2607.952448
3318.736440	2624.380420
3319.815120	2629.095804
3320.892188	2623.141958
3321.969106	2627.697902
3323.044414	2650.424476
3324.119572	2655.116084
3325.196041	2641.267832
3326.269439	2646.658042
3327.342689	2636.193706
3328.417250	2624.668531
3329.490201	2621.126573
3330.561545	2612.602797
3331.634199	2629.162937
3332.703786	2633.494406
3333.774684	2634.130769
3334.843975	2637.451049
3335.914577	2657.868531
3336.983572	2687.986014
3338.050961	2725.116783
3339.116745	2756.411888
3340.186755	2758.993007
3341.253702	2772.112587
3342.317587	2799.382517
3343.384240	2822.294406
3344.449289	2824.069930
3345.512734	2806.585315
3346.576032	2787.932168
3347.639185	2779.584615
3348.702191	2766.781818
3349.765050	2764.253846
3350.826308	2760.633566
3351.884509	2768.627972
3352.946931	2757.789510
3354.006296	2770.672727
3355.065517	2785.086713
3356.126046	2793.604895
3357.182066	2807.005594
3358.240851	2848.013287
3359.295128	2878.696503
3360.352169	2889.681119
3361.407611	2874.873427
3362.464362	2882.441958
3363.519516	2852.906993
3364.573072	2837.376923
3365.625031	2802.017483
3366.679752	2788.542657
3367.731425	2776.973427
3368.782953	2771.293007
3369.835791	2783.498601
3370.885581	2827.113986
3371.936680	2842.240559
3372.984732	2874.807692
3374.035545	2881.522378
3375.083312	2888.940559
3376.130937	2851.658042
3377.178420	2837.544755
3378.224309	2806.841259
3379.271508	2797.126573
3380.315663	2778.210490
3381.362577	2770.068531
3382.407899	2764.344056
3383.450181	2781.192308
3384.492321	2788.066434
3385.535770	2816.125175
3386.579077	2834.951049
3387.620794	2833.141958
3388.662370	2843.531469
3389.703806	2862.576224
3390.743653	2885.083916
3391.781911	2895.302797
3392.821477	2907.855944
3393.860903	2910.788811
3394.898741	2918.468531
3395.934992	2926.841259
3396.971103	2939.701399
3398.008522	2937.346853
3399.042908	2934.679021
3400.078602	2906.694406
3401.114156	2926.231469
3402.146678	2933.272028
3403.181954	2940.555944
3404.214199	2930.330070
3405.246306	2937.043357
3406.276829	2944.171329
3407.308660	2953.008392
3408.340352	2959.496503
3409.369016	2978.390210
3410.397542	2969.127972
3411.427376	2966.706294
3412.457072	2995.397902
3413.483741	2999.710490
3414.511718	3019.068531
3415.536670	3019.101399
3416.564372	3044.000699
3417.589051	3054.718881
3418.615036	3067.239161
3419.639442	3082.448951
3420.663710	3085.210490
3421.686400	3106.979720
3422.708955	3088.698601
3423.732814	3094.269930
3424.753654	3118.308392
3425.774359	3110.836064
3426.796369	3101.112063
3427.815361	3091.223277
3428.834218	3083.256593
3429.854381	3079.298901
3430.871526	3081.437088
