-118.077073	8.812088
-115.407473	8.130769
-112.740808	7.831568
-110.074895	7.777423
-107.411914	7.831269
-104.747504	7.856044
-102.086024	7.714685
-99.423114	6.525874
-96.765312	6.173427
-94.106079	2.036364
-91.447596	3.079720
-88.792036	1.988811
-86.135048	0.609790
-83.483157	-0.313287
-80.829837	1.895105
-78.179437	2.255245
-75.527607	1.793007
-72.880868	4.906993
-70.232699	6.545455
-67.585274	7.219580
-64.940762	8.909790
-62.294822	6.560140
-59.653963	5.910490
-57.011675	3.793706
-54.372295	4.356643
-51.731487	1.681119
-49.091419	3.020280
-46.456423	0.534266
-43.819999	1.407692
-41.186477	3.104196
-38.551527	6.111888
-35.921642	4.280420
-33.288165	6.928671
-30.659750	6.509790
-28.032069	6.987413
-25.402959	3.265035
-22.778906	-13.370629
-20.151264	-74.411189
-17.528675	-200.959441
-14.906818	-180.725874
-12.285691	226.995105
-9.665294	928.674825
-7.047786	1522.834965
-4.428848	1933.739860
-1.812797	2164.377622
0.802526	2206.337762
3.417122	2063.069231
6.028835	1734.512587
8.641977	1240.146853
11.250085	615.311189
13.861775	3.726573
16.468434	-301.884615
19.076521	-222.862937
21.683884	-29.948951
24.286222	3.280420
26.892138	3.839161
29.493032	7.551748
32.095354	7.166434
34.692659	4.513986
37.293539	2.188112
39.889405	5.031469
42.486698	2.716783
45.083272	5.495804
47.674837	3.236364
50.267830	3.167832
52.857962	2.039161
55.449522	2.997902
58.038222	3.580420
60.628349	4.718182
63.213478	2.928671
65.800033	3.164336
68.385875	1.635664
70.968863	3.425175
73.553277	0.177622
76.130563	2.558741
78.711415	1.576923
81.289418	1.268531
83.866711	1.929371
86.445430	3.875524
89.019168	3.783217
91.594332	6.846853
94.166653	8.520979
96.738266	10.053846
99.307039	9.923776
101.877239	13.441958
104.444601	12.135664
107.013388	13.729371
109.579339	12.834965
112.142455	11.175524
114.709127	8.649650
117.266578	8.568531
119.829714	7.265734
122.387891	12.918182
124.949621	15.883217
127.506395	26.903497
130.064596	44.826573
132.617844	68.455944
135.170393	93.234965
137.726493	125.572028
140.277646	158.518182
142.828100	191.382517
145.377857	217.786713
147.924796	242.241958
150.471038	260.535664
153.018706	275.072028
155.565678	280.764336
158.107715	285.691608
160.649058	286.556643
163.189708	288.367832
165.731784	286.743357
168.271048	286.753147
170.807504	281.211888
173.343268	279.516783
175.880458	272.153846
178.416957	273.741259
180.950650	269.048252
183.481540	269.012587
186.011741	267.160839
188.543367	267.455245
191.072192	262.859441
193.598218	261.500699
196.123558	258.307692
198.650324	253.487413
201.174292	249.839161
203.697576	249.343357
206.220175	246.706294
208.739981	250.544056
211.259104	247.658741
213.777544	251.646853
216.297408	254.742657
218.810271	256.915385
221.326665	253.767133
223.842377	253.934965
226.353199	253.248951
228.865447	249.795804
231.374911	247.194406
233.883697	245.013287
236.391805	242.137762
238.901336	244.921678
241.405987	242.890210
243.909962	247.839161
246.415362	251.966434
248.915886	252.846154
251.419933	253.107692
253.917010	258.454545
256.417609	264.522378
258.915437	270.072028
261.412592	276.079720
263.909074	286.218182
266.400693	293.528671
268.895832	307.354545
271.388205	317.585315
273.879907	331.817483
276.368845	339.837063
278.859208	337.849650
281.346808	328.244755
283.831649	367.505594
286.320005	593.650350
288.801421	1103.600699
291.286351	1815.546853
293.766436	2505.812587
296.250033	3024.669231
298.728787	3321.967133
301.208965	3371.083217
303.686390	3170.326573
306.163152	2738.386713
308.639251	2120.524476
311.112601	1408.661538
313.585289	770.919580
316.057316	381.446853
318.528682	275.578322
320.997304	309.023776
323.465266	336.835664
325.934650	333.801399
328.399212	328.083217
330.867278	318.561538
333.330524	308.337063
335.793112	300.517483
338.255044	300.716084
340.716319	302.938462
343.174860	308.319580
345.634823	305.316084
348.092053	302.415385
350.548629	294.129371
353.004551	292.920979
355.457744	284.572028
357.912358	279.679720
360.362171	269.704196
362.815480	264.100000
365.263991	260.377622
367.711851	261.362238
370.161132	259.773427
372.605620	260.048252
375.051530	256.390210
377.496791	257.216783
379.939332	255.314685
382.381226	258.272028
384.822473	255.248252
387.261004	252.843357
389.700957	247.928671
392.138196	246.758741
394.572723	246.971329
397.010738	247.486014
399.443976	245.895804
401.878636	247.860140
404.308522	248.810490
406.741894	249.416084
409.170496	247.802098
411.598457	250.113986
414.027838	249.574126
416.452454	251.472028
418.878492	248.842657
421.303889	248.175524
423.728646	249.040559
426.148645	253.632867
428.570065	254.018881
430.988788	254.861538
433.408932	256.169231
435.826381	255.755944
438.245250	255.114685
440.661426	258.237762
443.072855	260.183217
445.487760	260.625175
447.899975	258.867133
450.311556	258.883217
452.722503	257.842657
455.130764	259.487413
457.538392	257.079021
459.945389	258.871329
462.351753	260.229371
464.755435	261.167832
467.158487	260.722378
469.560909	262.500699
471.962701	261.820280
474.361816	259.935664
476.762350	256.762238
479.162255	255.532867
481.557437	248.797902
483.956086	246.497902
486.350015	241.141259
488.743318	239.911888
491.135995	233.881818
493.528047	229.434965
495.921517	220.931469
498.310276	214.532867
500.696368	205.300000
503.083879	198.744755
505.470768	190.395804
507.854993	187.102797
510.240637	181.599301
512.623618	183.140559
515.003939	180.376224
517.385679	181.620280
519.764760	179.604196
522.145260	181.039161
524.523102	179.279720
526.898289	178.740559
529.272858	175.767133
531.648846	177.010490
534.022180	174.234965
536.396932	179.372028
538.766999	181.905594
541.136450	185.715385
543.507319	187.567832
545.873508	188.699301
548.241115	189.993706
550.606076	191.883217
552.970424	192.444755
555.334160	196.828671
557.699312	196.144755
560.059793	202.299301
562.421692	200.739161
564.780950	208.210490
567.137571	207.225175
569.497636	208.016783
571.851011	206.602797
574.207830	203.061538
576.562013	198.892308
578.915589	195.796503
581.268556	193.069930
583.618892	192.120979
585.970644	184.630769
588.315720	183.876224
590.666260	177.480420
593.010126	177.241259
595.359454	168.120979
597.704134	160.323776
600.046188	151.404895
602.389660	147.561538
604.730509	143.220280
607.070756	141.089510
609.408382	136.772727
611.749443	137.195804
614.085866	132.262238
616.423706	133.637762
618.758929	132.525175
621.091536	130.178322
623.425559	125.685315
625.756969	123.609790
628.087780	122.329371
630.417993	124.530769
632.747608	121.652448
635.072601	121.886014
637.403035	119.699301
639.728847	121.796503
642.052053	118.624476
644.376674	120.898601
646.698690	120.065035
649.020113	120.634965
651.338932	122.122378
653.659167	125.377622
655.978809	124.863636
658.295850	124.779720
660.612299	123.301399
662.926150	122.722378
665.241417	118.665734
667.554087	117.729371
669.868172	115.942657
672.177657	114.560839
674.488558	112.193706
676.796866	111.775524
679.104586	111.446853
681.413721	113.887413
683.718263	112.930070
686.022218	116.583217
688.325588	118.647552
690.630372	119.179021
692.930570	119.086014
695.232182	120.814685
697.533210	118.237063
699.829655	114.645455
702.127516	113.228671
704.424793	113.037063
706.721487	111.492308
709.013605	112.832168
711.309134	111.325874
713.600090	112.783217
715.892460	112.539860
718.182254	112.450350
720.471468	111.741259
722.760103	114.546853
725.046166	110.325175
727.333642	115.252448
729.618547	117.194406
731.902875	120.328671
734.184634	123.331469
736.467807	125.925175
738.750403	122.425175
741.028444	124.020979
743.307898	120.998601
745.586777	121.804895
747.865080	121.383217
750.138834	121.826573
752.414002	119.702797
754.688596	123.040559
756.960630	121.570629
759.234078	121.339161
761.504968	120.773427
763.773302	119.188811
766.043049	112.813287
768.310242	115.423776
770.576864	113.790909
772.842916	118.278322
775.106417	116.278322
777.371331	116.371329
779.635675	118.195105
781.895490	119.576923
784.156717	118.682517
786.417377	118.604895
788.675491	118.062238
790.931060	118.595804
793.190020	115.513287
795.442481	115.479021
797.700309	112.986713
799.953617	111.289510
802.204386	109.663636
804.456567	109.836364
806.706210	109.409091
808.957264	109.958042
811.203807	109.493007
813.451762	113.482517
815.697183	114.031469
817.944015	118.460140
820.190286	118.994406
822.432053	123.283217
824.677202	122.611888
826.915879	120.939860
829.157938	117.307692
831.395499	117.525175
833.634472	116.714685
835.870918	114.489510
838.108775	111.072028
840.344107	114.381818
842.576916	116.732867
844.811136	120.128671
847.042834	121.661538
849.273976	123.962238
851.504565	118.891608
853.734598	117.983916
855.964078	115.173427
858.189076	116.609091
860.417449	116.365035
862.641343	116.283217
864.866647	112.951049
867.087476	115.937762
869.311677	116.639860
871.531405	115.141259
873.752544	111.647552
875.973132	110.372028
878.191210	106.541259
880.410698	109.439161
882.625720	109.614685
884.840195	111.497902
887.054121	113.879021
889.267501	114.751049
891.480333	111.023077
893.692619	113.399301
895.902402	112.084615
898.111640	111.976224
900.320333	109.432168
902.526527	111.224476
904.734130	109.209091
906.939235	113.525874
909.143797	113.486713
911.345864	117.216084
913.549340	117.721678
915.750322	114.133566
917.950763	117.431469
920.152611	118.144056
922.348069	119.823776
924.546886	122.421678
926.741264	119.581119
928.939000	121.676923
931.132300	120.314685
933.327009	122.678322
935.519232	116.457343
937.710917	112.712587
939.902064	106.106294
942.090728	103.990210
944.278855	109.590210
946.464502	110.070629
948.653501	114.641958
950.838077	116.177622
953.022118	115.172028
955.209509	115.707692
957.388596	115.212587
959.571034	116.717483
961.752938	112.669231
963.932368	113.090210
966.109324	109.494406
968.287689	113.197203
970.467461	114.527273
972.640884	123.030769
974.817653	129.938462
976.990015	134.355245
979.163785	133.899301
981.333151	128.357343
983.505861	130.361538
985.676106	133.467832
987.845822	131.277622
990.015009	131.618182
992.179799	123.111888
994.347930	121.701399
996.511667	126.441259
998.676810	132.016783
1000.839495	138.565035
1003.001653	142.675524
1005.161355	151.044056
1007.320533	159.251748
1009.481117	161.212587
1011.639246	155.162937
1013.796851	153.819580
1015.953933	151.038462
1018.110492	146.118881
1020.262671	143.964336
1022.416256	148.558741
1024.569320	153.861538
1026.719936	161.081818
1028.871957	164.578322
1031.019605	165.941259
1033.170585	164.403497
1035.317194	152.424476
1037.463285	145.081818
1039.608856	132.012587
1041.755833	122.862937
1043.896521	131.490909
1046.040539	138.559441
1048.182116	149.854545
1050.323177	170.546154
1052.465642	175.626573
1054.601828	176.467133
1056.741340	169.031469
1058.876496	169.330070
1061.014977	167.814685
1063.149104	159.768531
1065.282718	152.623776
1067.417737	153.532168
1069.548406	161.425874
1071.680480	173.316084
1073.810125	174.926573
1075.939258	186.264336
1078.067879	184.446853
1080.195989	173.711888
1082.321673	161.820280
1084.446847	152.253846
1086.573425	139.110490
1088.695666	132.216084
1090.819310	130.576224
1092.938621	119.359441
1095.063160	120.204895
1097.181454	122.017483
1099.301153	111.347552
1101.418433	128.566434
1103.535207	133.109790
1105.651474	137.443357
1107.765326	133.581818
1109.880581	131.441958
1111.991513	130.269231
1114.105758	129.598601
1116.215682	117.830070
1118.327010	113.591608
1120.437833	112.832867
1122.544340	111.108392
1124.654157	107.967832
1126.759659	127.996503
1128.866564	130.330070
1130.967254	134.987413
1133.073156	125.098601
1135.174749	128.502098
1137.277745	126.415385
1139.380240	124.590210
1141.476528	115.677622
1143.578024	121.781119
1145.675216	127.142657
1147.771911	125.200699
1149.868107	116.193706
1151.963806	121.357343
1154.059006	119.718182
1156.151811	113.824476
1158.246017	107.447552
1160.334032	108.909091
1162.427245	114.099301
1164.514270	123.449650
1166.604594	120.186014
1168.690631	124.928671
1170.779965	126.445455
1172.863118	124.636364
1174.947673	120.784615
1177.033630	120.216783
1179.115305	122.946154
1181.198382	127.784615
1183.279073	129.765734
1185.359272	132.713986
1187.438980	139.990210
1189.518197	139.965734
1191.595032	134.086014
1193.669486	133.813986
1195.747231	129.898601
1197.820707	126.119580
1199.895583	119.218881
1201.966192	114.204196
1204.038203	113.716084
1206.107837	118.631469
1208.178872	119.917483
1210.249419	121.267832
1212.315705	118.593706
1214.383392	117.876923
1216.448707	119.160140
1218.515422	124.155245
1220.577881	123.322378
1222.643625	122.568531
1224.705116	118.930070
1226.768006	120.970629
1228.828529	116.406993
1230.888568	118.172028
1232.948125	117.404895
1235.005316	115.295105
1237.062026	112.484615
1239.116373	112.815385
1241.174000	114.894406
1243.229265	118.374825
1245.280289	115.688112
1247.332713	118.196503
1249.384657	116.388811
1251.434243	121.627972
1253.483350	116.244056
1255.531979	114.390909
1257.580129	110.200699
1259.627800	111.377622
1261.671242	109.232867
1263.717958	110.014685
1265.762321	110.264336
1267.806208	112.216783
1269.847743	111.344755
1271.886929	119.667832
1273.929388	117.723077
1275.967624	124.257343
1278.007259	123.695105
1280.046419	121.169231
1282.081360	120.220979
1284.117700	121.007692
1286.151696	118.502098
1288.187090	122.739161
1290.218270	117.100000
1292.250848	117.096503
1294.282955	113.497203
1296.312721	113.658741
1298.343885	110.807692
1300.370841	115.393706
1302.399195	110.388811
1304.423345	112.872028
1306.450759	111.764336
1308.473971	112.892308
1310.498581	115.042657
1312.520857	114.830070
1314.544530	112.235664
1316.565870	111.483217
1318.586742	108.788112
1320.607147	107.590909
1322.623359	106.440559
1324.640968	108.307692
1326.656249	103.010490
1328.674789	106.663636
1330.689140	102.186713
1332.701165	104.101399
1334.716447	105.547552
1336.727544	106.187413
1338.740038	113.083217
1340.748349	113.628671
1342.759916	120.240559
1344.765443	124.141259
1346.774226	123.383916
1348.778831	124.276923
1350.786690	119.083217
1352.794087	117.476923
1354.795453	113.070629
1356.798216	109.492308
1358.800518	104.534266
1360.802361	104.763636
1362.803744	103.529371
1364.802814	105.794406
1366.801425	108.753846
1368.799578	109.192308
1370.797272	105.024476
1372.790804	110.853846
1374.785732	113.062937
1376.780202	117.524476
1378.774217	117.660839
1380.765923	119.948951
1382.757175	117.536364
1384.746121	115.387413
1386.736462	111.070629
1388.726348	112.413287
1390.713931	105.258042
1392.701059	104.869930
1394.685886	103.790210
1396.672108	104.677622
1398.656030	106.986014
1400.639499	111.879021
1402.622515	111.281818
1404.603234	117.074825
1406.585347	116.843357
1408.565164	116.745455
1410.544529	121.080420
1412.519756	127.864336
1414.498222	127.942657
1416.474393	129.030070
1418.450116	125.848951
1420.425389	124.214685
1422.398371	121.288811
1424.370905	120.922378
1426.342992	114.861538
1428.314630	112.252448
1430.282140	110.112587
1432.254724	106.854545
1434.219503	108.918881
1436.189353	110.869231
1438.155080	110.937063
1440.122199	112.731469
1442.087035	114.273427
1444.047751	123.302797
1446.013536	122.543357
1447.973365	127.126573
1449.934587	125.188811
1451.897202	122.340559
1453.855702	121.674825
1455.813759	120.177622
1457.771375	113.806294
1459.728549	110.864336
1461.683447	112.125175
1463.639737	112.049650
1465.593753	112.146154
1467.547329	119.195105
1469.498632	115.864336
1471.451327	115.493706
1473.401751	114.203497
1475.351735	113.641958
1477.301281	115.016783
1479.248558	120.337063
1481.193568	113.831469
1483.139969	115.683916
1485.085933	115.972727
1487.031460	116.007692
1488.974722	114.850350
1490.917547	115.613986
1492.858109	107.840559
1494.800062	111.342657
1496.739753	112.402098
1498.679010	113.406993
1500.617831	111.803497
1502.554393	120.933566
1504.492346	120.458741
1506.428040	122.878322
1508.363301	122.300699
1510.296306	126.323077
1512.228878	122.011189
1514.161018	120.376923
1516.092726	115.034266
1518.022180	116.339860
1519.953025	115.762937
1521.883438	111.785315
1523.809779	113.033566
1525.737511	120.057343
1527.662992	115.160839
1529.588044	120.756643
1531.512667	116.150350
1533.436861	117.817483
1535.358807	110.622378
1537.282144	110.867133
1539.203235	109.493706
1541.122081	110.257343
1543.042316	109.005594
1544.960309	107.544056
1546.877875	115.547552
1548.793199	121.790909
1550.709913	116.405594
1552.622572	126.648951
1554.538435	118.593706
1556.452058	120.269231
1558.363444	118.711888
1560.276218	119.226573
1562.184943	119.737762
1564.095058	121.120280
1566.004748	115.537762
1567.914016	110.645455
1569.821050	112.868531
1571.725851	116.288112
1573.632041	110.146853
1575.535999	116.411888
1577.439537	116.589510
1579.342653	120.804895
1581.243540	122.260140
1583.145816	122.591608
1585.045864	123.497203
1586.947299	127.026573
1588.844701	122.493706
1590.741684	119.687413
1592.638249	120.562937
1594.536202	122.785315
1596.428320	121.711189
1598.323631	126.865035
1600.218525	126.490210
1602.111197	121.962937
1604.003453	118.867832
1605.893488	118.995804
1607.783109	117.626573
1609.672313	115.685315
1611.561103	121.702797
1613.447675	121.232867
1615.335635	120.127273
1617.219578	118.990909
1619.104909	120.949650
1620.989825	121.393706
1622.872528	112.560839
1624.756618	112.992308
1626.636697	109.295804
1628.518162	112.160839
1630.397417	118.560140
1632.278058	120.142657
1634.152895	128.444755
1636.032714	116.879021
1637.908527	119.761538
1639.783930	114.934266
1641.660719	109.855245
1643.531712	109.902098
1645.405886	111.790909
1647.276062	121.561538
1649.149418	126.002797
1651.020571	129.374126
1652.889522	136.029371
1654.759859	134.523776
1656.626202	133.195105
1658.493931	130.243357
1660.359461	130.800000
1662.226377	124.086014
1664.089304	109.250350
1665.953616	118.439860
1667.815732	114.592308
1669.677444	122.044755
1671.540540	114.337762
1673.401442	108.418881
1675.260150	101.279021
1677.118455	94.854545
1678.978145	90.794406
1680.832068	92.367832
1682.689163	92.680420
1684.545856	94.617483
1686.398573	92.906294
1688.254460	112.640559
1690.106374	110.602098
1691.957887	123.788811
1693.808999	120.790210
1695.659711	131.544755
1697.510022	122.753147
1699.358148	119.265734
1701.207659	111.104895
1703.051421	109.795804
1704.900132	107.595105
1706.743098	112.790909
1708.589229	116.273427
1710.431399	127.897902
1712.276733	124.920979
1714.116327	133.139860
1715.957305	131.314685
1717.799666	135.568531
1719.638071	128.011189
1721.477859	124.897203
1723.315472	117.074126
1725.152689	114.402098
1726.987733	104.176923
1728.824160	105.548951
1730.658415	93.077622
1732.492275	103.174825
1734.325742	111.258042
1736.155262	111.918881
1737.987941	102.962238
1739.816676	104.580420
1741.648568	104.567832
1743.476519	114.526573
1745.304077	117.602797
1747.131243	117.113986
1748.958018	106.090909
1750.784402	111.334965
1752.606848	109.279021
1754.432450	119.374126
1756.254117	127.179720
1758.077166	124.826573
1759.898053	120.551748
1761.718552	128.439860
1763.540432	127.777622
1765.356612	139.160140
1767.175944	138.390909
1768.991349	135.746154
1770.809904	135.793706
1772.624534	144.993706
1774.438778	149.007692
1776.252634	139.203497
1778.066104	129.234266
1779.877421	130.206294
1781.690119	122.376923
1783.502430	124.113986
1785.310824	114.617483
1787.120598	114.653846
1788.926458	103.798601
1790.735463	102.551748
1792.540555	107.939161
1794.347028	109.442657
1796.153117	115.497203
1797.955296	106.869231
1799.760618	103.747552
1801.562032	113.513287
1803.364826	106.586713
1805.163714	110.893706
1806.963983	108.383916
1808.763870	107.148951
1810.561616	97.195105
1812.358980	98.355245
1814.155965	98.649650
1815.952569	97.869930
1817.747034	103.683217
1819.542878	107.837762
1821.333068	114.046853
1823.128153	110.681119
1824.917587	103.585315
1826.710157	106.418182
1828.500592	106.672727
1830.288893	109.818182
1832.080329	102.611888
1833.866119	104.813287
1835.653289	99.595105
1837.438327	99.099301
1839.226499	101.009091
1841.010785	99.093007
1842.792942	102.830070
1844.576477	98.477622
1846.357884	93.598601
1848.140670	98.072727
1849.919575	106.616783
1851.699860	112.227273
1853.478018	107.799301
1855.257555	109.046853
1857.034967	102.767832
1858.810255	107.547552
1860.586922	111.871329
1862.361465	111.171329
1864.137387	113.590210
1865.907688	110.962937
1867.681117	102.286014
1869.452426	104.084615
1871.223365	99.657343
1872.995680	102.494406
1874.762382	110.418182
1876.532210	112.862238
1878.298174	105.362937
1880.067262	110.566434
1881.832488	114.208392
1883.597345	122.446154
1885.363580	124.790210
1887.125956	126.533566
1888.887965	121.850350
1890.649606	122.171329
1892.410881	118.218182
1894.171788	120.941958
1895.932329	125.626573
1897.690760	114.464336
1899.448826	104.858741
1901.204783	102.824476
1902.962117	99.945455
1904.719086	108.964336
1906.473949	106.762937
1908.226706	103.323776
1909.979100	101.760839
1911.732869	104.531469
1913.484535	98.402797
1915.234099	91.451049
1916.985038	94.796503
1918.735615	88.158042
1920.482352	88.514685
1922.230466	88.853846
1923.976480	97.600699
1925.723870	104.491608
1927.469161	108.186713
1929.212355	113.108392
1930.956924	116.840559
1932.699398	120.112587
1934.441511	116.079720
1936.183264	110.050000
1937.924658	106.121678
1939.663957	98.060490
1941.402898	99.400699
1943.141481	104.783566
1944.877971	111.437063
1946.614104	108.811538
1948.351611	115.086713
1950.085296	122.028322
1951.820356	123.083916
1953.553328	123.110839
1955.285942	117.825175
1957.018201	111.261189
1958.750103	109.262937
1960.479919	103.981818
1962.207650	102.548252
1963.936756	101.767133
1965.665507	95.569930
1967.392174	92.995804
1969.118487	89.819580
1970.846173	91.440559
1972.568323	95.647552
1974.293574	96.524476
1976.015019	101.316084
1977.739563	105.954545
1979.462028	111.590210
1981.180689	109.438462
1982.902449	108.913986
1984.620407	109.559441
1986.339738	108.759441
1988.055270	111.878322
1989.775622	108.016783
1991.492176	108.139161
1993.204933	112.969231
1994.920787	111.855944
1996.634567	117.594406
1998.347998	115.257343
2000.059358	112.023077
2001.772090	105.231469
2003.481032	99.634965
2005.193067	97.860140
2006.899592	96.696503
2008.609210	99.579720
2010.316760	101.771329
2012.023963	107.823776
2013.729100	109.666434
2015.433890	113.803497
2017.140052	117.150350
2018.842432	117.306993
2020.546184	114.760140
2022.247872	111.162238
2023.949216	107.518881
2025.650214	106.017483
2027.349151	101.746154
2029.049460	107.332168
2030.745994	109.609091
2032.443899	116.825175
2034.139745	118.447552
2035.838677	126.755245
2037.532123	129.307692
2039.226940	131.502797
2040.921415	128.381119
2042.612121	126.769930
2044.305911	121.211189
2045.995934	115.472028
2047.687328	106.338462
2049.376669	108.082517
2051.067380	100.093007
2052.754328	100.711888
2054.440937	101.165035
2056.128916	102.963636
2057.813135	107.961538
2059.498724	108.809091
2061.183974	114.492308
2062.867176	116.089510
2064.551747	110.993007
2066.230856	109.897203
2067.914750	105.439860
2069.593184	107.592308
2071.274694	103.527273
2072.952454	102.750350
2074.629876	99.120979
2076.308668	101.506993
2077.985418	102.822378
2079.660126	102.164336
2081.336203	106.932867
2083.010240	105.517483
2084.683941	99.509091
2086.357307	100.451748
2088.028635	95.772727
2089.699628	100.584615
2091.370287	98.115385
2093.040611	99.326573
2094.710602	97.586014
2096.378557	100.564336
2098.046179	100.153147
2099.711766	104.859441
2101.378723	103.709091
2103.043645	106.204895
2104.708236	101.833566
2106.370795	102.172727
2108.034722	101.636364
2109.696619	104.514685
2111.358184	101.704196
2113.019418	104.515385
2114.678624	102.116084
2116.337499	102.078322
2117.996045	104.429371
2119.654261	111.117483
2121.308753	108.436364
2122.966310	110.436364
2124.623538	109.795804
2126.277044	108.334266
2127.931918	105.292308
2129.583074	106.109091
2131.237291	102.044056
2132.887792	101.412587
2134.539659	97.964336
2136.186118	97.509790
2137.837332	102.637762
2139.484832	109.893706
2141.133699	113.348252
2142.780548	118.332168
2144.427070	122.321678
2146.073267	118.411189
2147.715756	107.332168
2149.361303	108.336364
2151.003143	109.258042
2152.648040	110.624476
2154.289232	110.662937
2155.930100	110.281119
2157.570644	107.056643
2159.209176	106.620979
2160.849074	109.948951
2162.485272	112.531469
2164.122837	108.702797
2165.760078	105.586014
2167.395310	100.629371
2169.030221	108.076923
2170.664810	108.006993
2172.299077	109.404196
2173.929651	111.259441
2175.563277	107.030070
2177.193211	102.488112
2178.824510	105.452448
2180.453804	110.695804
2182.082779	111.745455
2183.711434	104.593706
2185.339770	111.446853
2186.966104	112.406993
2188.592119	116.573427
2190.216133	114.493706
2191.841511	118.256643
2193.464890	111.737762
2195.089632	104.033566
2196.710694	106.124476
2198.331439	111.662238
2199.953549	114.516084
2201.573661	112.716783
2203.191776	109.701399
2204.809576	116.143357
2206.427061	113.102797
2208.044230	118.264336
2209.661084	115.605594
2211.277623	112.526573
2212.892168	102.975524
2214.504721	106.149650
2216.118638	110.294406
2217.730564	113.179021
2219.343853	105.666434
2220.955152	105.197203
2222.564461	104.554545
2224.175134	104.810490
2225.783818	93.132867
2227.392190	96.844056
2228.998574	95.816783
2230.606322	103.594406
2232.212083	109.152448
2233.817533	119.948252
2235.420998	119.076224
2237.025826	122.523776
2238.628670	119.035664
2240.229532	120.667832
2241.831755	119.588112
2243.431997	113.600699
2245.033601	103.767832
2246.631553	104.781818
2248.230867	103.390210
2249.828201	104.320280
2251.425226	105.550350
2253.023614	104.823077
2254.618353	104.717483
2256.211115	107.334965
2257.805240	109.085315
2259.400726	107.896503
2260.992568	104.481818
2262.584103	105.006993
2264.176999	106.960839
2265.764586	113.851748
2267.356870	114.604196
2268.943846	121.376224
2270.533851	118.162238
2272.118551	121.716783
2273.707944	122.991608
2275.292036	113.325874
2276.877489	112.734965
2278.460972	108.861538
2280.047482	103.027972
2281.630358	103.416084
2283.212930	109.130769
2284.795199	122.416783
2286.373839	121.369930
2287.955502	128.330769
2289.533537	124.188811
2291.114595	133.970629
2292.692026	129.465035
2294.267494	122.481119
2295.845984	119.609790
2297.420850	112.937063
2298.995415	105.061538
2300.569680	97.256643
2302.143644	100.896503
2303.717308	104.591608
2305.290671	102.760140
2306.860416	106.632867
2308.429862	113.418881
2310.002326	130.790210
2311.569516	133.962937
2313.139724	137.448951
2314.706317	130.334965
2316.274270	128.934266
2317.840267	120.309790
2319.405967	113.735664
2320.971370	107.889510
2322.534818	108.399301
2324.099626	106.711888
2325.660826	112.240559
2327.225040	119.237762
2328.783992	133.989510
2330.345959	132.692308
2331.905975	133.847552
2333.465695	121.328671
2335.023466	118.952448
2336.580942	111.281119
2338.138124	109.846853
2339.693358	105.290210
2341.248299	106.409790
2342.802946	99.401399
2344.357299	99.697203
2345.911358	104.174126
2347.465123	110.906993
2349.016945	110.938462
2350.566823	108.918182
2352.119709	98.443357
2353.667353	101.532168
2355.218004	106.860839
2356.765064	111.524476
2358.313483	102.172727
2359.861609	104.278322
2361.406147	99.233566
2362.952043	89.732168
2364.496001	88.832867
2366.041316	86.830769
2367.583046	91.001399
2369.126133	93.805594
2370.667285	95.597902
2372.208147	103.925175
2373.748719	109.269930
2375.289003	109.774825
2376.828998	103.618182
2378.365415	115.293706
2379.904833	110.188811
2381.440674	103.216084
2382.977871	92.812587
2384.511493	91.404196
2386.048116	93.493706
2387.582807	95.318182
2389.115569	94.070629
2390.648044	96.310490
2392.178591	93.309790
2393.712136	99.389510
2395.240470	102.368531
2396.770161	107.081119
2398.299566	102.429371
2399.828685	102.398601
2401.357520	97.759441
2402.881149	99.673427
2404.409415	99.397203
2405.932477	102.216084
2407.460173	98.846853
2408.981030	92.870629
2410.506520	90.016783
2412.028449	96.549650
2413.551734	87.918182
2415.073098	79.894406
2416.592542	66.569930
2418.113341	71.363636
2419.632221	84.342657
2421.150819	85.958741
2422.667500	85.970629
2424.185535	97.383217
2425.703289	99.913986
2427.217492	91.095105
2428.731414	95.394406
2430.245056	95.210490
2431.760053	90.318881
2433.271501	93.126573
2434.784304	91.421678
2436.295193	99.122378
2437.805804	103.313986
2439.314503	100.244056
2440.826188	98.593706
2442.334330	108.259441
2443.842194	101.281119
2445.349780	96.876224
2446.853825	100.898601
2448.360856	102.474825
2449.865978	111.339860
2451.370823	122.941958
2452.873760	120.892308
2454.376422	116.889510
2455.878807	111.196503
2457.379287	106.734266
2458.881120	103.148951
2460.381049	94.573427
2461.880702	89.758741
2463.380079	89.321678
2464.877554	88.825874
2466.373127	90.411888
2467.871680	96.732168
2469.366705	105.031469
2470.863082	107.136364
2472.355933	106.102098
2473.850137	98.909790
2475.344067	102.732867
2476.834473	100.860140
2478.327857	93.633566
2479.819343	89.947552
2481.308932	96.509790
2482.798249	106.269930
2484.285671	105.009790
2485.776068	112.204196
2487.262946	125.830769
2488.751176	136.681818
2490.235890	134.735664
2491.720333	124.655944
2493.206128	125.011888
2494.690030	122.830769
2496.175284	117.348951
2497.655403	112.806993
2499.138496	116.616783
2500.619698	116.243357
2502.100631	95.146853
2503.579675	95.593706
2505.058450	96.740559
2506.536957	94.727972
2508.015196	89.751748
2509.493166	83.024476
2510.967632	86.237063
2512.445066	95.693706
2513.918997	101.055245
2515.394278	99.737762
2516.869293	93.174126
2518.340806	97.844755
2519.813669	89.527273
2521.284650	92.485315
2522.756981	95.179021
2524.224199	95.204895
2525.694382	97.836364
2527.162685	98.975524
2528.630723	109.606294
2530.098496	120.316084
2531.566004	126.504895
2533.033247	115.951049
2534.496998	115.935664
2535.962099	119.869930
2537.425323	112.200699
2538.889897	99.703497
2540.350981	96.053147
2541.813415	85.238462
2543.275586	83.393007
2544.734271	86.085315
2546.197528	96.602797
2547.655688	99.355944
2549.115197	109.389510
2550.569613	107.181818
2552.028598	110.694406
2553.485712	119.047552
2554.940955	111.009790
2556.395937	100.297902
2557.849049	88.767832
2559.303510	82.167832
2560.756102	82.251748
2562.208434	83.825874
2563.658898	85.242657
2565.112318	91.124476
2566.560656	107.046154
2568.011950	109.781119
2569.461377	120.848252
2570.907332	129.334965
2572.356242	120.151049
2573.801682	113.301399
2575.248470	104.446154
2576.693394	93.051049
2578.138060	85.210490
2579.584075	80.987413
2581.026622	81.160140
2582.470517	90.618881
2583.910947	103.159441
2585.352724	108.892308
2586.792642	116.223776
2588.233907	117.141259
2589.671711	121.300699
2591.112464	117.536364
2592.548154	112.609790
2593.986794	95.043357
2595.423576	90.799301
2596.858503	88.690210
2598.296377	90.862238
2599.729194	92.120979
2601.163358	97.694406
2602.595668	96.772028
2604.029324	97.427273
2605.461127	93.274825
2606.892676	93.662238
2608.323973	92.744056
2609.753417	98.437762
2611.182609	92.676224
2612.609951	95.851748
2614.038638	95.743357
2615.467074	99.502098
2616.892062	92.476923
2618.318397	93.311189
2619.742883	84.764336
2621.168715	76.702098
2622.591103	67.934266
2624.014837	67.595804
2625.436724	69.444056
2626.858362	75.876923
2628.278154	78.981818
2629.699292	80.788112
2631.120180	79.501399
2632.537630	88.604196
2633.958019	87.618182
2635.374971	98.215385
2636.791674	99.428671
2638.208130	99.123776
2639.624336	104.690909
2641.040295	102.767133
2642.454413	103.741958
2643.868284	109.707692
2645.280315	110.050350
2646.693691	109.023077
2648.103637	102.024476
2649.516518	106.011189
2650.925971	111.644755
2652.335178	115.620979
2653.742549	118.082517
2655.152855	118.641259
2656.561324	120.215385
2657.967958	108.531469
2659.374347	110.501399
2660.778902	107.475524
2662.184801	104.097902
2663.588867	100.513287
2664.992688	95.745455
2666.396266	103.863636
2667.798011	106.271329
2669.201100	109.891608
2670.600771	112.223077
2672.001786	108.813986
2673.399385	104.519580
2674.799914	104.952448
2676.197028	109.253147
2677.595485	99.027972
2678.992114	89.988811
2680.388501	85.276923
2681.784647	88.282517
2683.178966	88.513986
2684.574628	91.059441
2685.966880	92.920979
2687.360475	96.723776
2688.752247	100.717483
2690.145360	102.425874
2691.536650	104.248951
2692.926117	100.576923
2694.315344	96.856643
2695.704332	89.164336
2697.094662	91.844056
2698.480007	95.273427
2699.868276	93.420280
2701.254725	93.260839
2702.640935	89.744056
2704.026907	88.719580
2705.409479	76.330769
2706.793394	71.291608
2708.177071	67.067832
2709.560510	67.957343
2710.940553	76.622378
2712.321938	75.630070
2713.701507	83.132168
2715.082418	92.671329
2716.461513	100.853846
2717.838795	106.480420
2719.217418	107.913986
2720.594228	104.975524
2721.970802	103.067832
2723.347140	101.900699
2724.721666	89.704895
2726.097533	91.988811
2727.470013	90.476923
2728.845409	80.624476
2730.215845	79.535664
2731.587622	87.718182
2732.959164	95.757343
2734.328898	101.677622
2735.699973	103.535664
2737.069239	110.071329
2738.438273	112.286713
2739.805499	110.990909
2741.172493	105.996503
2742.539254	104.287413
2743.905782	96.397203
2745.270505	88.389510
2746.634997	85.840559
2747.999256	81.399301
2749.363283	76.967133
2750.727079	74.768531
2752.087501	76.139860
2753.450834	81.114685
2754.809224	83.134965
2756.170524	88.755245
2757.528453	98.457343
2758.889291	101.468531
2760.248330	104.458741
2761.604000	109.770629
2762.962578	109.436364
2764.317789	103.183217
2765.672772	101.631469
2767.025957	97.605594
2768.382049	95.799301
2769.734777	91.997203
2771.087276	90.947552
2772.439547	93.448951
2773.793157	98.316783
2775.143405	96.188112
2776.491860	101.416084
2777.843219	106.047552
2779.191219	105.661538
2780.540557	109.502098
2781.888104	106.308392
2783.235423	106.036364
2784.582516	104.704895
2785.927818	103.628671
2787.272894	102.699301
2788.617743	97.869930
2789.962367	92.822378
2791.303639	94.167133
2792.646249	93.450350
2793.988633	87.946154
2795.330793	85.518182
2796.669603	82.318182
2798.011312	75.130769
2799.349674	76.090909
2800.689373	76.925175
2802.027286	86.419580
2803.363415	88.951748
2804.699320	89.630070
2806.036563	89.666434
2807.372022	88.794406
2808.707258	88.718182
2810.040711	86.630769
2811.375502	86.488811
2812.706951	83.926573
2814.041296	80.530070
2815.370743	77.515385
2816.701527	86.806993
2818.032089	94.595105
2819.360872	92.747552
2820.690991	93.980420
2822.019332	93.667133
2823.347452	90.657343
2824.673794	92.897902
2826.001473	87.579021
2827.325818	90.507692
2828.651500	85.932867
2829.975406	79.841958
2831.299093	76.346853
2832.624115	77.446853
2833.945807	73.066434
2835.267281	77.343357
2836.588536	88.173427
2837.909572	85.351049
2839.228836	86.802797
2840.549435	90.725175
2841.868262	86.500000
2843.186871	89.661538
2844.503709	92.326573
2845.820330	97.304196
2847.136734	97.892308
2848.451368	98.004196
2849.767338	102.358741
2851.079987	103.842657
2852.393972	106.267133
2853.707739	97.734266
2855.021291	95.136364
2856.333075	91.425175
2857.643093	81.704196
2858.954446	83.197203
2860.262484	82.014685
2861.571857	82.515385
2862.881014	84.344056
2864.189956	86.506993
2865.497134	81.306294
2866.802550	75.831469
2868.109300	78.372028
2869.414287	81.237063
2870.719061	76.544056
2872.022073	79.730070
2873.327967	79.644056
2874.629005	83.341259
2875.931378	79.936364
2877.231991	91.329371
2878.533938	94.293007
2879.835672	93.476224
2881.134101	78.146154
2882.433865	77.948951
2883.731870	86.165734
2885.029664	88.269930
2886.325702	79.116084
2887.623073	73.462238
2888.918688	63.676923
2890.214092	65.047552
2891.509285	60.679021
2892.801181	68.854545
2894.095953	65.597203
2895.387428	65.616084
2896.680236	62.211189
2897.972834	74.785315
2899.262138	84.124476
2900.552774	88.471329
2901.841659	88.013287
2903.131877	72.923077
2904.418802	66.065734
2905.707061	69.068531
2906.993569	64.869930
2908.279870	69.865734
2909.565962	72.620280
2910.850306	67.756643
2912.137521	74.845455
2913.419910	80.720979
2914.703631	83.443357
2915.985606	89.671329
2917.267373	87.785315
2918.547396	85.104895
2919.830288	88.231469
2921.111435	82.816783
2922.389300	80.638462
2923.670034	84.759441
2924.947487	80.796503
2926.224734	77.596503
2927.500240	78.724476
2928.778613	81.372028
2930.052171	81.120979
2931.328597	78.867133
2932.603282	76.294406
2933.876227	78.602098
2935.150502	70.902797
2936.423038	65.019580
2937.695370	69.241958
2938.964428	74.436364
2940.236352	67.531469
2941.506538	68.025175
2942.776521	69.995105
2944.046300	74.635664
2945.314342	72.144755
2946.580649	68.935664
2947.846753	66.808392
2949.114187	72.035664
2950.379887	74.623776
2951.645384	81.437063
2952.910679	83.781818
2954.172709	84.552448
2955.436070	80.210490
2956.699228	78.623077
2957.960655	86.024476
2959.223411	92.127273
2960.484436	93.026573
2961.743729	92.181818
2963.002823	83.876923
2964.261716	85.028671
2965.520409	80.549650
2966.778902	78.441259
2968.035666	74.238462
2969.292230	69.604196
2970.547067	63.847552
2971.803232	67.009091
2973.056143	77.917483
2974.310383	90.118182
2975.564424	86.191608
2976.816739	82.124476
2978.068856	78.336364
2979.319247	78.411888
2980.572494	76.716084
2981.820964	80.924476
2983.072289	79.160140
2984.320364	83.437063
2985.568243	79.579021
2986.815924	83.986713
2988.063409	84.370629
2989.309171	88.165734
2990.554738	85.645455
2991.801632	89.820280
2993.045282	90.674825
2994.290260	90.080420
2995.531994	88.333566
2996.776580	96.960839
2998.019447	93.816783
2999.259073	99.236364
3000.501549	88.851049
3001.740786	90.171329
3002.981350	85.335664
3004.220197	92.492308
3005.458850	96.606294
3006.695787	99.009091
3007.934051	95.930769
3009.170601	96.886014
3010.406956	95.474825
3011.643118	94.860839
3012.877567	86.343357
3014.111822	82.267133
3015.345884	72.682517
3016.578234	70.334965
3017.808872	63.747552
3019.042356	69.028671
3020.274128	69.831469
3021.504190	68.829371
3022.734060	75.347552
3023.962220	79.596503
3025.191706	80.426573
3026.419484	76.747552
3027.647070	75.688112
3028.875982	69.600699
3030.100152	63.623077
3031.327165	58.974126
3032.550954	57.700000
3033.776070	56.937762
3034.999479	53.620979
3036.222698	57.398601
3037.444212	68.199301
3038.668567	68.220979
3039.888187	66.252448
3041.109133	76.841259
3042.329890	79.366434
3043.548943	79.093706
3044.769322	80.290909
3045.986484	85.101399
3047.204971	94.530769
3048.421756	96.706993
3049.638354	95.267832
3050.854763	99.688112
3052.067960	98.161538
3053.283994	94.100699
3054.496816	87.447552
3055.712475	87.216084
3056.923411	73.561538
3058.135672	67.200699
3059.347747	56.202098
3060.559635	63.447552
3061.769825	66.748252
3062.979829	64.895455
3064.189647	63.007692
3065.397770	67.884965
3066.605706	70.941259
3067.811948	77.173077
3069.019513	78.625874
3070.225384	74.950000
3071.431071	70.337063
3072.636572	69.930420
3073.840380	60.356643
3075.045512	70.529021
3076.248952	64.402098
3077.450699	62.351399
3078.652263	61.709790
3079.853642	64.030070
3081.054839	65.154545
3082.254344	66.121678
3083.453667	61.483916
3084.654313	53.340559
3085.853269	51.919580
3087.049031	53.996503
3088.247622	54.899301
3089.443019	68.474126
3090.639739	70.462937
3091.833267	77.548252
3093.029623	84.620979
3094.224293	94.950350
3095.415772	100.124476
3096.611582	93.937762
3097.802699	83.739161
3098.995138	75.404196
3100.184390	71.268531
3101.376468	69.690210
3102.566861	64.525175
3103.754069	66.217483
3104.942600	67.262238
3106.132452	65.388811
3107.319121	64.873427
3108.505610	70.023077
3109.691919	68.213986
3110.879550	65.945455
3112.064000	62.781818
3113.246769	63.951748
3114.432361	62.433566
3115.616274	68.137762
3116.798508	66.190210
3117.980563	73.359441
3119.162441	78.477622
3120.344140	74.389510
3121.524161	68.111189
3122.702506	73.168531
3123.883672	73.950350
3125.061662	73.288112
3126.239475	68.190210
3127.417111	67.030769
3128.593072	68.772028
3129.768856	79.439860
3130.945962	78.823077
3132.121393	83.140559
3133.295151	84.565734
3134.467237	85.283916
3135.640643	82.097203
3136.813874	79.771329
3137.985432	72.173427
3139.158311	63.133566
3140.328024	59.095804
3141.499056	57.127972
3142.668419	62.222378
3143.836112	62.174825
3145.006620	60.088811
3146.172469	63.981119
3147.342628	67.921678
3148.508129	73.774825
3149.673457	73.590909
3150.838611	75.372727
3152.003591	77.545455
3153.169892	75.369930
3154.331539	79.016084
3155.494506	75.958741
3156.657301	80.890909
3157.819923	76.572727
3158.980880	76.880420
3160.141664	81.197902
3161.302276	79.003497
3162.461225	79.593007
3163.620001	78.209091
3164.778606	83.383217
3165.937039	80.276224
3167.095300	76.220280
3168.251899	78.481119
3169.406837	67.567133
3170.563094	62.042657
3171.717690	60.294406
3172.872116	60.567133
3174.024882	62.748951
3175.177478	60.659441
3176.329903	55.343357
3177.482159	55.951748
3178.634244	58.429371
3179.783184	53.993706
3180.934930	58.515385
3182.085018	60.506294
3183.233450	52.483916
3184.381713	46.996503
3185.529806	51.851049
3186.677731	52.789510
3187.824001	56.140559
3188.970102	58.458042
3190.114548	57.997902
3191.258827	65.528671
3192.402938	62.913287
3193.548367	63.319580
3194.690656	70.734266
3195.832779	72.218881
3196.974734	71.597902
3198.116523	67.467832
3199.258144	68.737063
3200.396629	61.693007
3201.536432	61.030769
3202.677553	53.077622
3203.815539	45.453846
3204.951876	39.541958
3206.088047	36.118881
3207.225536	43.444056
3208.361375	50.618881
3209.498532	61.448252
3210.631076	69.028671
3211.767902	70.797203
3212.900116	79.272727
3214.033647	79.631469
3215.167014	83.104895
3216.297253	70.451748
3217.430290	59.616084
3218.560201	52.197902
3219.691428	55.174825
3220.819531	60.527273
3221.950430	63.202797
3223.079685	69.916084
3224.207297	68.367133
3225.331787	67.863636
3226.460551	79.937762
3227.586194	82.808392
3228.711675	77.653147
3229.835514	74.416783
3230.962147	71.965734
3232.084183	66.765734
3233.207535	68.709091
3234.330725	60.528671
3235.453753	56.534266
3236.575141	47.027972
3237.696368	44.308392
3238.815956	49.010490
3239.935383	56.132867
3241.053172	60.844056
3242.173754	70.507692
3243.291221	77.022378
3244.408528	77.678322
3245.525675	77.591608
3246.641186	77.838462
3247.758012	60.483217
3248.871727	59.199301
3249.988232	50.667133
3251.103103	58.225874
3252.214865	57.132867
3253.326468	49.160140
3254.439385	54.475524
3255.552144	57.838462
3256.661796	56.219580
3257.772762	54.871329
3258.883570	60.560839
3259.992747	61.785315
3261.100292	50.617483
3262.209151	62.420280
3263.317853	60.542657
3264.423452	64.377622
3265.530365	65.460839
3266.635649	66.690210
3267.742248	70.186713
3268.845746	71.195105
3269.950558	76.288811
3271.055213	72.383916
3272.156769	72.980420
3273.258170	66.788112
3274.360884	55.335664
3275.463441	59.637762
3276.562902	53.092308
3277.665147	54.204895
3278.764296	58.215385
3279.861821	60.427273
3280.959190	55.945455
3282.059342	63.377622
3283.156400	60.683916
3284.253303	59.712587
3285.350051	58.241958
3286.442241	56.199301
3287.538679	50.906294
3288.633495	47.715385
3289.728157	48.088811
3290.821197	46.508392
3291.914083	44.116084
3293.005348	41.658741
3294.097926	40.251049
3295.188883	45.083916
3296.278221	43.012587
3297.367406	46.829371
3298.457904	46.804196
3299.545317	55.053147
3300.632578	54.604196
3301.721151	56.708392
3302.809571	64.934965
3303.893444	64.592308
3304.981559	61.600000
3306.066593	64.187413
3307.150010	65.074126
3308.234740	65.311189
3309.317855	61.090210
3310.402281	56.733566
3311.483629	61.509091
3312.566289	66.209091
3313.647335	60.639860
3314.728230	64.860839
3315.807511	68.134266
3316.886643	66.645455
3317.967085	62.406294
3319.044454	72.541259
3320.123133	68.095804
3321.200202	65.817483
3322.277120	56.625874
3323.352427	52.165035
3324.427585	56.785315
3325.504054	53.081818
3326.577453	49.674126
3327.650703	58.113986
3328.725263	62.027972
3329.798215	60.011888
3330.869558	56.142657
3331.942213	66.332168
3333.011800	61.328671
3334.082698	59.755944
3335.151989	46.434965
3336.222591	44.676923
3337.291586	43.003497
3338.358975	44.266434
3339.424759	40.450350
3340.494769	47.806993
3341.561716	50.385315
3342.625601	51.420979
3343.692254	54.992308
3344.757302	62.089510
3345.820747	62.321678
3346.884046	63.246853
3347.947198	62.981119
3349.010204	72.057343
3350.073064	65.933566
3351.134322	67.325874
3352.192523	58.260140
3353.254945	62.007692
3354.314310	60.097902
3355.373530	57.101399
3356.434060	50.834965
3357.490080	48.334965
3358.548865	45.576224
3359.603142	46.788811
3360.660182	49.225874
3361.715625	51.810490
3362.772376	43.231469
3363.827529	47.367133
3364.881086	53.676224
3365.933045	61.173427
3366.987766	63.974825
3368.039438	65.251049
3369.090967	68.665035
3370.143804	75.002797
3371.193594	71.623776
3372.244693	66.321678
3373.292746	63.273427
3374.343559	59.112587
3375.391326	52.701399
3376.438951	53.443357
3377.486433	50.821678
3378.532323	46.603497
3379.579521	50.211189
3380.623677	51.691608
3381.670591	55.110490
3382.715913	55.504895
3383.758194	48.336364
3384.800335	50.073427
3385.843783	51.227972
3386.887091	51.727273
3387.928808	50.719580
3388.970384	50.168531
3390.011820	48.549650
3391.051666	53.668531
3392.089924	63.535664
3393.129491	60.205594
3394.168916	58.593007
3395.206754	50.343357
3396.243005	43.081119
3397.279117	51.695804
3398.316536	53.274126
3399.350922	55.975524
3400.386615	56.983916
3401.422169	67.107692
3402.454692	68.623077
3403.489968	74.667133
3404.522213	72.353846
3405.554320	59.724476
3406.584843	53.452448
3407.616673	45.551748
3408.648365	41.333566
3409.677030	46.858042
3410.705556	47.603497
3411.735390	47.936364
3412.765085	51.255245
3413.791755	59.564336
3414.819732	52.283916
3415.844684	54.215385
3416.872386	46.032867
3417.897065	47.346154
3418.923050	49.923776
3419.947455	50.684615
3420.971724	47.040559
3421.994414	52.224476
3423.016968	55.617483
3424.040828	63.034965
3425.061668	66.448252
3426.082373	69.860839
3427.104383	70.732443
3428.123375	68.036663
3429.142232	60.747103
3430.162394	47.837363
3431.179540	28.281044
