-118.077073	7.626099
-115.407473	2.269231
-112.740808	-0.814136
-110.074895	-2.030470
-107.411914	-1.786239
-104.747504	-0.487912
-102.086024	1.458042
-99.423114	5.251748
-96.765312	3.610490
-94.106079	4.829371
-91.447596	5.123776
-88.792036	2.733566
-86.135048	4.120979
-83.483157	4.953846
-80.829837	1.213287
-78.179437	-1.088811
-75.527607	-1.651049
-72.880868	-3.412587
-70.232699	-4.563636
-67.585274	-3.830769
-64.940762	-5.044056
-62.294822	1.410490
-59.653963	2.978322
-57.011675	5.229371
-54.372295	8.328671
-51.731487	9.765734
-49.091419	7.693007
-46.456423	6.041259
-43.819999	2.036364
-41.186477	-1.322378
-38.551527	-1.166434
-35.921642	1.374126
-33.288165	4.064336
-30.659750	9.580420
-28.032069	9.739860
-25.402959	7.691608
-22.778906	-4.983916
-20.151264	-48.914685
-17.528675	-150.753846
-14.906818	-102.792308
-12.285691	183.763636
-9.665294	652.003497
-7.047786	1047.439161
-4.428848	1319.859441
-1.812797	1464.423776
0.802526	1484.558741
3.417122	1380.184615
6.028835	1152.917483
8.641977	811.555245
11.250085	387.267832
13.861775	-23.857343
16.468434	-187.732867
19.076521	-136.780420
21.683884	-17.049650
24.286222	2.826573
26.892138	1.738462
29.493032	-2.827972
32.095354	-3.371329
34.692659	-4.490909
37.293539	-2.104895
39.889405	0.121678
42.486698	-1.707692
45.083272	-2.920979
47.674837	1.136364
50.267830	0.786014
52.857962	-0.160140
55.449522	-1.099301
58.038222	0.835664
60.628349	-0.990210
63.213478	-1.008392
65.800033	-1.728671
68.385875	0.662238
70.968863	-2.323776
73.553277	-5.853147
76.130563	-6.960839
78.711415	-4.520979
81.289418	-4.053846
83.866711	-1.295105
86.445430	-0.057343
89.019168	1.874825
91.594332	0.933566
94.166653	1.201399
96.738266	1.717483
99.307039	2.661538
101.877239	0.514685
104.444601	0.999301
107.013388	-1.216084
109.579339	1.847552
112.142455	2.865734
114.709127	2.751748
117.266578	1.535664
119.829714	3.510490
122.387891	4.429371
124.949621	7.718182
127.506395	15.193007
130.064596	24.930070
132.617844	36.525874
135.170393	50.274126
137.726493	68.861538
140.277646	89.208392
142.828100	106.567832
145.377857	122.925874
147.924796	138.665734
150.471038	153.018182
153.018706	162.798601
155.565678	169.690210
158.107715	176.455245
160.649058	177.255245
163.189708	175.043357
165.731784	172.346853
168.271048	172.426573
170.807504	169.451748
173.343268	165.392308
175.880458	163.376224
178.416957	163.593007
180.950650	162.189510
183.481540	162.997902
186.011741	164.195804
188.543367	165.520280
191.072192	162.655944
193.598218	161.498601
196.123558	160.393007
198.650324	162.508392
201.174292	161.951049
203.697576	159.989510
206.220175	156.910490
208.739981	154.809091
211.259104	154.353147
213.777544	152.502098
216.297408	152.430070
218.810271	149.034965
221.326665	147.806294
223.842377	147.088112
226.353199	147.658741
228.865447	150.516084
231.374911	150.085315
233.883697	148.134965
236.391805	148.044755
238.901336	150.725874
241.405987	154.531469
243.909962	153.619580
246.415362	154.235664
248.915886	152.430769
251.419933	152.711888
253.917010	150.104895
256.417609	151.758741
258.915437	152.874126
261.412592	153.695804
263.909074	158.858741
266.400693	166.896503
268.895832	174.251049
271.388205	184.082517
273.879907	194.932867
276.368845	203.445455
278.859208	205.741259
281.346808	199.587413
283.831649	194.162238
286.320005	297.314685
288.801421	623.444755
291.286351	1161.330070
293.766436	1730.051049
296.250033	2184.986713
298.728787	2473.992308
301.208965	2572.795105
303.686390	2476.462238
306.163152	2193.137063
308.639251	1748.907692
311.112601	1199.993706
313.585289	653.953147
316.057316	275.547552
318.528682	144.386014
320.997304	167.481119
323.465266	197.562937
325.934650	204.061538
328.399212	201.157343
330.867278	194.429371
333.330524	188.469231
335.793112	183.048951
338.255044	179.993007
340.716319	180.819580
343.174860	181.806294
345.634823	182.078322
348.092053	183.962238
350.548629	179.564336
353.004551	179.240559
355.457744	178.009790
357.912358	175.688811
360.362171	175.146154
362.815480	170.151049
365.263991	164.711888
367.711851	160.093706
370.161132	158.406294
372.605620	156.499301
375.051530	156.274825
377.496791	155.021678
379.939332	154.200000
382.381226	155.064336
384.822473	156.360140
387.261004	158.879720
389.700957	158.916783
392.138196	156.344755
394.572723	155.203497
397.010738	152.916084
399.443976	153.166434
401.878636	153.190909
404.308522	152.408392
406.741894	152.351748
409.170496	154.622378
411.598457	155.196503
414.027838	157.565734
416.452454	157.472028
418.878492	157.672028
421.303889	156.569231
423.728646	156.972727
426.148645	154.975524
428.570065	153.249650
430.988788	153.276224
433.408932	153.433566
435.826381	154.309091
438.245250	153.441958
440.661426	151.459441
443.072855	155.088811
445.487760	152.711189
447.899975	153.618881
450.311556	153.075524
452.722503	155.999301
455.130764	154.644056
457.538392	157.377622
459.945389	159.379021
462.351753	160.119580
464.755435	162.317483
467.158487	162.685315
469.560909	162.591608
471.962701	163.875524
474.361816	161.314685
476.762350	159.309091
479.162255	159.383916
481.557437	156.217483
483.956086	151.958741
486.350015	150.357343
488.743318	146.443357
491.135995	141.796503
493.528047	139.121678
495.921517	135.266434
498.310276	132.986014
500.696368	129.923077
503.083879	125.918881
505.470768	122.689510
507.854993	118.330769
510.240637	113.990210
512.623618	112.384615
515.003939	110.881119
517.385679	110.127972
519.764760	107.321678
522.145260	105.412587
524.523102	106.500699
526.898289	107.274825
529.272858	104.008392
531.648846	101.552448
534.022180	102.348951
536.396932	101.237762
538.766999	106.657343
541.136450	109.510490
543.507319	113.209790
545.873508	116.048951
548.241115	118.295804
550.606076	119.911888
552.970424	123.566434
555.334160	122.462937
557.699312	122.855944
560.059793	125.928671
562.421692	129.211189
564.780950	129.894406
567.137571	132.406294
569.497636	132.096503
571.851011	130.867133
574.207830	127.774126
576.562013	127.323776
578.915589	124.490909
581.268556	121.286713
583.618892	118.546154
585.970644	118.492308
588.315720	116.249650
590.666260	114.777622
593.010126	109.892308
595.359454	106.605594
597.704134	103.456643
600.046188	97.774126
602.389660	91.930769
604.730509	89.811189
607.070756	85.327273
609.408382	85.106294
611.749443	82.651049
614.085866	83.834965
616.423706	82.455944
618.758929	82.148951
621.091536	80.803497
623.425559	80.954545
625.756969	78.339161
628.087780	74.513986
630.417993	70.925175
632.747608	70.532168
635.072601	68.477622
637.403035	69.125874
639.728847	67.725874
642.052053	70.174126
644.376674	68.178322
646.698690	69.993706
649.020113	70.420979
651.338932	71.920979
653.659167	71.413986
655.978809	73.453846
658.295850	76.811189
660.612299	78.653846
662.926150	79.032168
665.241417	79.286713
667.554087	77.547552
669.868172	75.176224
672.177657	71.787413
674.488558	71.435664
676.796866	67.672028
679.104586	67.953846
681.413721	68.267832
683.718263	67.534266
686.022218	68.519580
688.325588	68.716783
690.630372	67.671329
692.930570	68.205594
695.232182	70.102098
697.533210	70.347552
699.829655	72.172028
702.127516	74.865734
704.424793	77.562238
706.721487	80.164336
709.013605	82.668531
711.309134	84.272028
713.600090	85.265734
715.892460	83.158042
718.182254	79.389510
720.471468	76.714685
722.760103	74.851049
725.046166	67.720280
727.333642	65.559441
729.618547	66.037762
731.902875	64.827273
734.184634	63.253846
736.467807	67.220979
738.750403	73.615385
741.028444	75.597902
743.307898	76.125175
745.586777	77.510490
747.865080	76.642657
750.138834	76.767133
752.414002	74.212587
754.688596	75.285315
756.960630	76.481818
759.234078	71.644056
761.504968	70.544755
763.773302	72.439161
766.043049	72.253147
768.310242	72.238462
770.576864	71.903497
772.842916	72.612587
775.106417	72.197902
777.371331	70.923776
779.635675	71.575524
781.895490	70.374825
784.156717	70.066434
786.417377	69.518182
788.675491	69.375524
790.931060	70.098601
793.190020	70.684615
795.442481	72.125175
797.700309	72.991608
799.953617	76.112587
802.204386	76.068531
804.456567	73.627972
806.706210	72.114685
808.957264	71.439161
811.203807	72.589510
813.451762	73.337063
815.697183	74.392308
817.944015	75.308392
820.190286	78.314685
822.432053	75.663636
824.677202	76.391608
826.915879	77.942657
829.157938	78.277622
831.395499	75.507692
833.634472	70.527273
835.870918	69.778322
838.108775	67.597902
840.344107	65.635664
842.576916	66.974825
844.811136	66.609091
847.042834	67.424476
849.273976	66.344755
851.504565	69.660839
853.734598	74.788112
855.964078	77.256643
858.189076	77.334965
860.417449	75.673427
862.641343	77.515385
864.866647	73.722378
867.087476	74.269231
869.311677	74.916084
871.531405	71.300000
873.752544	68.968531
875.973132	68.561538
878.191210	70.974825
880.410698	68.308392
882.625720	67.069930
884.840195	64.579720
887.054121	63.390909
889.267501	60.875524
891.480333	55.904196
893.692619	60.404895
895.902402	62.471329
898.111640	60.454545
900.320333	60.565035
902.526527	59.579720
904.734130	61.993007
906.939235	59.306993
909.143797	62.344056
911.345864	61.744755
913.549340	63.206993
915.750322	62.983916
917.950763	66.841259
920.152611	72.279021
922.348069	75.476923
924.546886	75.781818
926.741264	72.244056
928.939000	72.381119
931.132300	70.360140
933.327009	71.155245
935.519232	74.269930
937.710917	71.425874
939.902064	73.829371
942.090728	78.048252
944.278855	76.023776
946.464502	74.323077
948.653501	73.906993
950.838077	72.034965
953.022118	68.109091
955.209509	69.875524
957.388596	66.624476
959.571034	65.237762
961.752938	66.937762
963.932368	58.907692
966.109324	60.349650
968.287689	63.355245
970.467461	67.711189
972.640884	77.974825
974.817653	84.258741
976.990015	87.295105
979.163785	91.031469
981.333151	91.254545
983.505861	84.900000
985.676106	79.674825
987.845822	73.579021
990.015009	64.874126
992.179799	59.989510
994.347930	58.705594
996.511667	64.254545
998.676810	69.030070
1000.839495	71.725874
1003.001653	73.725874
1005.161355	79.315385
1007.320533	72.350350
1009.481117	72.358741
1011.639246	73.612587
1013.796851	69.527273
1015.953933	72.602797
1018.110492	72.902797
1020.262671	76.214685
1022.416256	91.525874
1024.569320	99.923077
1026.719936	108.810490
1028.871957	114.223077
1031.019605	117.189510
1033.170585	106.313986
1035.317194	101.516084
1037.463285	98.513287
1039.608856	87.144056
1041.755833	81.667133
1043.896521	77.840559
1046.040539	82.609091
1048.182116	95.978322
1050.323177	99.358741
1052.465642	105.956643
1054.601828	102.376224
1056.741340	107.280420
1058.876496	104.948252
1061.014977	102.772727
1063.149104	98.338462
1065.282718	86.048252
1067.417737	79.840559
1069.548406	80.169231
1071.680480	76.928671
1073.810125	87.339860
1075.939258	90.030769
1078.067879	98.211888
1080.195989	102.911189
1082.321673	105.031469
1084.446847	101.674126
1086.573425	88.730769
1088.695666	68.926573
1090.819310	58.269930
1092.938621	51.085315
1095.063160	45.700000
1097.181454	30.046154
1099.301153	40.287413
1101.418433	47.497902
1103.535207	60.555245
1105.651474	67.669231
1107.765326	66.904196
1109.880581	68.388811
1111.991513	64.480420
1114.105758	70.640559
1116.215682	72.467133
1118.327010	67.051748
1120.437833	59.703497
1122.544340	53.104196
1124.654157	60.578322
1126.759659	55.148252
1128.866564	58.961538
1130.967254	61.510490
1133.073156	61.949650
1135.174749	69.747552
1137.277745	78.271329
1139.380240	92.959441
1141.476528	86.630769
1143.578024	76.589510
1145.675216	77.190909
1147.771911	70.261538
1149.868107	65.609790
1151.963806	59.473427
1154.059006	58.891608
1156.151811	58.695804
1158.246017	57.609790
1160.334032	59.342657
1162.427245	56.386014
1164.514270	55.735664
1166.604594	53.239161
1168.690631	53.763636
1170.779965	59.437063
1172.863118	60.754545
1174.947673	70.938462
1177.033630	81.738462
1179.115305	85.232168
1181.198382	92.818881
1183.279073	94.579021
1185.359272	89.274825
1187.438980	84.653846
1189.518197	77.874126
1191.595032	82.220280
1193.669486	73.316783
1195.747231	67.627273
1197.820707	66.494406
1199.895583	65.280420
1201.966192	68.288112
1204.038203	70.406294
1206.107837	70.313287
1208.178872	71.323776
1210.249419	67.553147
1212.315705	65.676923
1214.383392	68.306993
1216.448707	75.424476
1218.515422	73.082517
1220.577881	73.365035
1222.643625	70.521678
1224.705116	65.214685
1226.768006	64.647552
1228.828529	65.004196
1230.888568	66.395804
1232.948125	64.453147
1235.005316	61.027273
1237.062026	57.251748
1239.116373	59.200699
1241.174000	60.958741
1243.229265	66.460839
1245.280289	68.363636
1247.332713	67.248951
1249.384657	65.433566
1251.434243	68.537063
1253.483350	77.293007
1255.531979	81.533566
1257.580129	86.295105
1259.627800	83.306993
1261.671242	77.302098
1263.717958	74.316783
1265.762321	73.181119
1267.806208	70.338462
1269.847743	69.533566
1271.886929	60.423077
1273.929388	61.622378
1275.967624	61.597203
1278.007259	61.425175
1280.046419	55.839161
1282.081360	62.191608
1284.117700	61.346853
1286.151696	64.071329
1288.187090	69.886713
1290.218270	76.718182
1292.250848	71.387413
1294.282955	78.368531
1296.312721	75.058042
1298.343885	81.979720
1300.370841	80.539860
1302.399195	74.664336
1304.423345	68.016084
1306.450759	68.740559
1308.473971	62.012587
1310.498581	58.406993
1312.520857	59.504196
1314.544530	57.158042
1316.565870	55.518182
1318.586742	63.293706
1320.607147	59.808392
1322.623359	60.313986
1324.640968	65.469231
1326.656249	67.483916
1328.674789	67.416084
1330.689140	67.127273
1332.701165	59.832867
1334.716447	59.063636
1336.727544	66.031469
1338.740038	68.557343
1340.748349	72.497203
1342.759916	74.141958
1344.765443	68.836364
1346.774226	68.709790
1348.778831	69.520979
1350.786690	68.554545
1352.794087	63.330769
1354.795453	61.434266
1356.798216	54.722378
1358.800518	54.937063
1360.802361	64.644755
1362.803744	66.876224
1364.802814	64.681818
1366.801425	71.581818
1368.799578	73.995804
1370.797272	75.064336
1372.790804	75.181119
1374.785732	79.526573
1376.780202	77.022378
1378.774217	77.328671
1380.765923	74.917483
1382.757175	74.064336
1384.746121	78.561538
1386.736462	77.696503
1388.726348	76.820979
1390.713931	81.993007
1392.701059	79.281818
1394.685886	74.174126
1396.672108	70.792308
1398.656030	67.900699
1400.639499	61.781119
1402.622515	55.550350
1404.603234	54.390210
1406.585347	54.019580
1408.565164	62.460140
1410.544529	66.760839
1412.519756	65.658741
1414.498222	70.844056
1416.474393	70.528671
1418.450116	71.196503
1420.425389	70.614685
1422.398371	67.350350
1424.370905	64.753846
1426.342992	64.216783
1428.314630	66.689510
1430.282140	65.667133
1432.254724	72.922378
1434.219503	70.018881
1436.189353	65.013986
1438.155080	66.231469
1440.122199	60.836364
1442.087035	59.874825
1444.047751	58.161538
1446.013536	51.672727
1447.973365	51.035664
1449.934587	56.515385
1451.897202	53.170629
1453.855702	53.216783
1455.813759	60.225874
1457.771375	58.242657
1459.728549	61.686014
1461.683447	62.941958
1463.639737	61.076224
1465.593753	63.621678
1467.547329	63.928671
1469.498632	62.909790
1471.451327	68.468531
1473.401751	74.383217
1475.351735	71.110490
1477.301281	69.519580
1479.248558	70.368531
1481.193568	71.429371
1483.139969	70.467133
1485.085933	67.293007
1487.031460	61.151748
1488.974722	67.723077
1490.917547	70.176923
1492.858109	69.439161
1494.800062	68.725175
1496.739753	71.395105
1498.679010	68.881818
1500.617831	66.936364
1502.554393	65.538462
1504.492346	66.504895
1506.428040	60.132168
1508.363301	61.872727
1510.296306	59.450350
1512.228878	61.841958
1514.161018	63.229371
1516.092726	64.103497
1518.022180	67.257343
1519.953025	77.793706
1521.883438	80.025175
1523.809779	80.360839
1525.737511	78.234965
1527.662992	78.544056
1529.588044	73.798601
1531.512667	64.579021
1533.436861	53.410490
1535.358807	45.937762
1537.282144	43.069930
1539.203235	42.507692
1541.122081	42.822378
1543.042316	50.239161
1544.960309	53.436364
1546.877875	58.964336
1548.793199	67.337762
1550.709913	75.023776
1552.622572	77.413287
1554.538435	77.894406
1556.452058	83.565734
1558.363444	90.183217
1560.276218	81.322378
1562.184943	78.901399
1564.095058	72.876224
1566.004748	74.809790
1567.914016	71.593007
1569.821050	64.222378
1571.725851	58.867832
1573.632041	57.408392
1575.535999	54.946853
1577.439537	58.790909
1579.342653	63.544755
1581.243540	66.476224
1583.145816	58.918881
1585.045864	60.861538
1586.947299	60.176923
1588.844701	65.774126
1590.741684	63.815385
1592.638249	60.383217
1594.536202	64.435664
1596.428320	66.293706
1598.323631	69.013986
1600.218525	71.906993
1602.111197	79.736364
1604.003453	80.661538
1605.893488	77.213986
1607.783109	82.238462
1609.672313	79.932867
1611.561103	77.613287
1613.447675	72.648951
1615.335635	77.271329
1617.219578	82.197902
1619.104909	85.018182
1620.989825	91.413986
1622.872528	94.909790
1624.756618	98.079720
1626.636697	96.600699
1628.518162	92.835664
1630.397417	100.234266
1632.278058	88.035664
1634.152895	80.333566
1636.032714	64.346154
1637.908527	63.960839
1639.783930	56.866434
1641.660719	60.009790
1643.531712	56.583217
1645.405886	56.833566
1647.276062	60.460140
1649.149418	65.569231
1651.020571	70.774126
1652.889522	69.490210
1654.759859	61.946853
1656.626202	59.909091
1658.493931	39.760140
1660.359461	43.506294
1662.226377	41.645455
1664.089304	41.496503
1665.953616	40.248252
1667.815732	47.439860
1669.677444	59.667832
1671.540540	65.775524
1673.401442	70.897203
1675.260150	72.117483
1677.118455	73.132168
1678.978145	77.706993
1680.832068	61.360140
1682.689163	67.939161
1684.545856	71.376923
1686.398573	74.522378
1688.254460	77.645455
1690.106374	70.051748
1691.957887	76.234965
1693.808999	72.127972
1695.659711	61.557343
1697.510022	51.168531
1699.358148	40.119580
1701.207659	45.741259
1703.051421	47.755245
1704.900132	53.879021
1706.743098	66.026573
1708.589229	80.998601
1710.431399	80.537063
1712.276733	81.215385
1714.116327	77.642657
1715.957305	65.491608
1717.799666	35.684615
1719.638071	29.422378
1721.477859	25.500699
1723.315472	34.233566
1725.152689	42.025874
1726.987733	46.472727
1728.824160	53.491608
1730.658415	72.125175
1732.492275	73.482517
1734.325742	82.907692
1736.155262	81.462937
1737.987941	76.129371
1739.816676	64.392308
1741.648568	70.565734
1743.476519	61.784615
1745.304077	65.439161
1747.131243	68.252448
1748.958018	75.075524
1750.784402	77.991608
1752.606848	82.910490
1754.432450	78.064336
1756.254117	86.486014
1758.077166	83.374825
1759.898053	64.802098
1761.718552	58.935664
1763.540432	50.119580
1765.356612	46.622378
1767.175944	49.760839
1768.991349	50.352448
1770.809904	53.847552
1772.624534	54.364336
1774.438778	60.333566
1776.252634	63.153846
1778.066104	69.701399
1779.877421	68.134266
1781.690119	62.856643
1783.502430	66.931469
1785.310824	69.348951
1787.120598	67.677622
1788.926458	67.349650
1790.735463	70.113986
1792.540555	73.113986
1794.347028	69.058042
1796.153117	69.886014
1797.955296	59.083217
1799.760618	60.997902
1801.562032	55.664336
1803.364826	50.420280
1805.163714	61.096503
1806.963983	60.184615
1808.763870	55.324476
1810.561616	61.230769
1812.358980	63.798601
1814.155965	70.894406
1815.952569	73.602098
1817.747034	69.422378
1819.542878	65.890909
1821.333068	69.400699
1823.128153	59.211189
1824.917587	55.115385
1826.710157	57.329371
1828.500592	48.264336
1830.288893	45.866434
1832.080329	49.412587
1833.866119	50.109091
1835.653289	61.986014
1837.438327	62.255245
1839.226499	59.085315
1841.010785	64.044755
1842.792942	61.156643
1844.576477	55.004196
1846.357884	51.209790
1848.140670	52.090909
1849.919575	53.839161
1851.699860	64.760140
1853.478018	75.006294
1855.257555	76.542657
1857.034967	75.000000
1858.810255	69.195804
1860.586922	66.731469
1862.361465	61.588112
1864.137387	53.367133
1865.907688	53.378322
1867.681117	51.806993
1869.452426	62.662238
1871.223365	72.320979
1872.995680	86.831469
1874.762382	91.480420
1876.532210	89.444755
1878.298174	89.689510
1880.067262	81.224476
1881.832488	84.139161
1883.597345	78.164336
1885.363580	75.288112
1887.125956	71.458042
1888.887965	65.279720
1890.649606	66.741259
1892.410881	62.021678
1894.171788	63.256643
1895.932329	63.218881
1897.690760	61.370629
1899.448826	65.074126
1901.204783	55.446154
1902.962117	72.670629
1904.719086	77.682517
1906.473949	81.519580
1908.226706	81.939161
1909.979100	72.604196
1911.732869	67.327273
1913.484535	72.299301
1915.234099	70.904895
1916.985038	66.428671
1918.735615	65.459441
1920.482352	59.765734
1922.230466	47.579021
1923.976480	51.522378
1925.723870	56.007692
1927.469161	47.774126
1929.212355	42.197902
1930.956924	33.195804
1932.699398	36.043357
1934.441511	46.256643
1936.183264	41.556993
1937.924658	42.865035
1939.663957	52.513636
1941.402898	53.074825
1943.141481	50.900350
1944.877971	58.199301
1946.614104	65.241608
1948.351611	58.311888
1950.085296	59.989161
1951.820356	61.722378
1953.553328	71.682168
1955.285942	72.512587
1957.018201	63.358392
1958.750103	57.918182
1960.479919	62.991608
1962.207650	54.405594
1963.936756	51.600699
1965.665507	52.325175
1967.392174	55.122378
1969.118487	55.544755
1970.846173	59.976224
1972.568323	63.876923
1974.293574	64.076224
1976.015019	54.592308
1977.739563	51.208392
1979.462028	51.253846
1981.180689	55.375524
1982.902449	51.960140
1984.620407	59.122378
1986.339738	62.351748
1988.055270	72.096503
1989.775622	75.488112
1991.492176	75.124476
1993.204933	70.148951
1994.920787	58.848951
1996.634567	54.591608
1998.347998	57.109091
2000.059358	53.714685
2001.772090	54.185315
2003.481032	49.053846
2005.193067	48.699301
2006.899592	50.528671
2008.609210	49.654545
2010.316760	55.708392
2012.023963	53.505594
2013.729100	52.395105
2015.433890	51.519580
2017.140052	59.184615
2018.842432	61.869231
2020.546184	65.835664
2022.247872	63.747552
2023.949216	58.914685
2025.650214	57.027972
2027.349151	49.266434
2029.049460	45.230769
2030.745994	50.799301
2032.443899	50.136364
2034.139745	56.338462
2035.838677	60.791608
2037.532123	71.565035
2039.226940	79.167832
2040.921415	82.431469
2042.612121	81.030070
2044.305911	82.393706
2045.995934	74.406993
2047.687328	63.288811
2049.376669	56.840559
2051.067380	51.811888
2052.754328	49.340559
2054.440937	47.578322
2056.128916	46.852448
2057.813135	56.422378
2059.498724	60.258741
2061.183974	60.792308
2062.867176	64.455944
2064.551747	68.142657
2066.230856	66.495804
2067.914750	68.146154
2069.593184	68.905594
2071.274694	71.983217
2072.952454	73.166434
2074.629876	73.175524
2076.308668	76.901399
2077.985418	79.002098
2079.660126	72.455944
2081.336203	64.046853
2083.010240	57.311888
2084.683941	53.172028
2086.357307	51.516084
2088.028635	52.200699
2089.699628	57.395105
2091.370287	60.059441
2093.040611	63.750350
2094.710602	65.649650
2096.378557	70.984615
2098.046179	74.380420
2099.711766	70.609091
2101.378723	64.085315
2103.043645	63.767133
2104.708236	59.965734
2106.370795	55.748252
2108.034722	51.730769
2109.696619	54.467133
2111.358184	53.539860
2113.019418	54.023776
2114.678624	49.157343
2116.337499	51.088112
2117.996045	51.832168
2119.654261	49.563636
2121.308753	55.469930
2122.966310	63.158042
2124.623538	63.318182
2126.277044	55.351049
2127.931918	59.402098
2129.583074	65.954545
2131.237291	67.979021
2132.887792	67.374825
2134.539659	63.480420
2136.186118	62.231469
2137.837332	56.756643
2139.484832	62.593007
2141.133699	68.932867
2142.780548	69.709790
2144.427070	67.695105
2146.073267	65.584615
2147.715756	73.121678
2149.361303	74.648951
2151.003143	77.716783
2152.648040	81.452448
2154.289232	80.586014
2155.930100	71.289510
2157.570644	69.229371
2159.209176	69.483217
2160.849074	57.644056
2162.485272	54.002098
2164.122837	50.053846
2165.760078	46.845455
2167.395310	43.825175
2169.030221	42.837762
2170.664810	49.818182
2172.299077	53.865734
2173.929651	53.472727
2175.563277	50.633566
2177.193211	63.757343
2178.824510	67.323077
2180.453804	63.703497
2182.082779	65.530769
2183.711434	61.874825
2185.339770	55.286014
2186.966104	50.375524
2188.592119	49.461538
2190.216133	51.878322
2191.841511	52.595804
2193.464890	54.775524
2195.089632	58.244755
2196.710694	66.516783
2198.331439	72.984615
2199.953549	71.338462
2201.573661	75.782517
2203.191776	70.462238
2204.809576	72.695105
2206.427061	69.954545
2208.044230	68.125175
2209.661084	61.586014
2211.277623	59.540559
2212.892168	58.274825
2214.504721	61.694406
2216.118638	66.937063
2217.730564	71.179720
2219.343853	75.992308
2220.955152	82.492308
2222.564461	77.523077
2224.175134	82.769231
2225.783818	73.080420
2227.392190	63.311888
2228.998574	61.367133
2230.606322	57.093007
2232.212083	53.420280
2233.817533	51.401399
2235.420998	51.393007
2237.025826	54.280420
2238.628670	57.995105
2240.229532	57.965734
2241.831755	53.544056
2243.431997	54.322378
2245.033601	55.420979
2246.631553	62.929371
2248.230867	71.579021
2249.828201	70.946853
2251.425226	69.846853
2253.023614	62.769930
2254.618353	58.320280
2256.211115	62.593706
2257.805240	59.700000
2259.400726	53.076923
2260.992568	48.823077
2262.584103	52.227273
2264.176999	47.139161
2265.764586	49.558741
2267.356870	49.232867
2268.943846	53.892308
2270.533851	51.837063
2272.118551	50.130769
2273.707944	53.451049
2275.292036	59.660140
2276.877489	54.816084
2278.460972	59.066434
2280.047482	60.239860
2281.630358	58.793007
2283.212930	50.307343
2284.795199	52.986713
2286.373839	49.583566
2287.955502	51.356643
2289.533537	51.997552
2291.114595	54.844056
2292.692026	59.180769
2294.267494	54.283217
2295.845984	53.031119
2297.420850	53.516783
2298.995415	54.375874
2300.569680	60.679021
2302.143644	64.359790
2303.717308	59.567832
2305.290671	59.141259
2306.860416	59.623077
2308.429862	56.417483
2310.002326	58.211189
2311.569516	58.648951
2313.139724	60.908392
2314.706317	62.809091
2316.274270	63.250350
2317.840267	68.264336
2319.405967	57.918182
2320.971370	55.331469
2322.534818	48.528671
2324.099626	55.094406
2325.660826	54.605594
2327.225040	57.949650
2328.783992	61.745455
2330.345959	71.190909
2331.905975	80.622378
2333.465695	78.846154
2335.023466	75.205594
2336.580942	64.781119
2338.138124	55.723077
2339.693358	60.568531
2341.248299	62.930070
2342.802946	65.904196
2344.357299	62.637063
2345.911358	69.895804
2347.465123	63.414685
2349.016945	66.106993
2350.566823	61.248252
2352.119709	63.402098
2353.667353	69.126573
2355.218004	71.573427
2356.765064	71.340559
2358.313483	73.903497
2359.861609	84.376923
2361.406147	77.011189
2362.952043	74.111888
2364.496001	74.319580
2366.041316	70.690210
2367.583046	64.581818
2369.126133	47.511888
2370.667285	53.803497
2372.208147	52.727972
2373.748719	50.294406
2375.289003	57.560839
2376.828998	64.427273
2378.365415	66.160140
2379.904833	64.753147
2381.440674	66.772727
2382.977871	67.858741
2384.511493	66.133566
2386.048116	58.328671
2387.582807	46.881818
2389.115569	53.762937
2390.648044	47.561538
2392.178591	50.425874
2393.712136	54.109091
2395.240470	47.975524
2396.770161	43.653846
2398.299566	55.009790
2399.828685	53.204196
2401.357520	54.850350
2402.881149	58.194406
2404.409415	66.858741
2405.932477	64.306294
2407.460173	72.995105
2408.981030	69.593007
2410.506520	62.847552
2412.028449	54.411888
2413.551734	54.960140
2415.073098	58.982517
2416.592542	63.318182
2418.113341	68.588112
2419.632221	75.827273
2421.150819	81.730070
2422.667500	83.815385
2424.185535	79.254545
2425.703289	81.019580
2427.217492	69.606993
2428.731414	60.980420
2430.245056	56.260839
2431.760053	47.890909
2433.271501	44.534266
2434.784304	44.865035
2436.295193	56.167133
2437.805804	61.493706
2439.314503	71.048252
2440.826188	83.109790
2442.334330	81.301399
2443.842194	88.841958
2445.349780	96.519580
2446.853825	93.287413
2448.360856	84.060140
2449.865978	73.321678
2451.370823	66.625874
2452.873760	58.169231
2454.376422	53.195804
2455.878807	51.273427
2457.379287	55.461538
2458.881120	65.984615
2460.381049	62.985315
2461.880702	62.797203
2463.380079	64.496503
2464.877554	54.181818
2466.373127	54.199301
2467.871680	56.132867
2469.366705	48.893706
2470.863082	48.142657
2472.355933	44.313986
2473.850137	52.910490
2475.344067	59.625175
2476.834473	70.479021
2478.327857	72.016084
2479.819343	75.005594
2481.308932	79.887413
2482.798249	72.785315
2484.285671	77.544755
2485.776068	69.127273
2487.262946	58.806294
2488.751176	50.068531
2490.235890	33.249650
2491.720333	37.565035
2493.206128	27.572727
2494.690030	23.854545
2496.175284	32.893007
2497.655403	37.155944
2499.138496	32.179021
2500.619698	25.661538
2502.100631	34.700000
2503.579675	34.732168
2505.058450	31.023776
2506.536957	30.808392
2508.015196	29.701399
2509.493166	38.518881
2510.967632	32.739860
2512.445066	40.195804
2513.918997	44.383916
2515.394278	48.288112
2516.869293	45.037762
2518.340806	46.094406
2519.813669	54.420280
2521.284650	54.835664
2522.756981	48.549650
2524.224199	51.207692
2525.694382	54.766434
2527.162685	58.669231
2528.630723	61.897902
2530.098496	67.896503
2531.566004	59.403497
2533.033247	65.927972
2534.496998	59.533566
2535.962099	58.562937
2537.425323	57.039860
2538.889897	58.320979
2540.350981	57.445455
2541.813415	53.158042
2543.275586	57.132168
2544.734271	52.501399
2546.197528	51.934266
2547.655688	50.200000
2549.115197	51.435664
2550.569613	60.565035
2552.028598	56.819580
2553.485712	60.297203
2554.940955	67.282517
2556.395937	72.346853
2557.849049	69.801399
2559.303510	57.771329
2560.756102	54.620979
2562.208434	46.539860
2563.658898	43.960140
2565.112318	46.645455
2566.560656	51.156643
2568.011950	58.179021
2569.461377	54.448252
2570.907332	62.584615
2572.356242	64.155944
2573.801682	61.603497
2575.248470	64.007692
2576.693394	60.879720
2578.138060	58.353147
2579.584075	64.592308
2581.026622	60.034266
2582.470517	62.278322
2583.910947	64.077622
2585.352724	63.857343
2586.792642	66.045455
2588.233907	69.965035
2589.671711	61.418182
2591.112464	66.669231
2592.548154	75.785315
2593.986794	72.502098
2595.423576	70.807692
2596.858503	70.548951
2598.296377	57.943357
2599.729194	56.616084
2601.163358	48.045455
2602.595668	39.942657
2604.029324	42.409790
2605.461127	38.120280
2606.892676	38.620979
2608.323973	44.862238
2609.753417	41.192308
2611.182609	41.400000
2612.609951	42.264336
2614.038638	40.118182
2615.467074	40.811888
2616.892062	49.466434
2618.318397	47.253147
2619.742883	53.300000
2621.168715	55.192308
2622.591103	57.282517
2624.014837	60.720280
2625.436724	61.923077
2626.858362	59.263636
2628.278154	70.683916
2629.699292	72.937063
2631.120180	82.462937
2632.537630	86.350350
2633.958019	84.968531
2635.374971	76.573427
2636.791674	73.494406
2638.208130	64.017483
2639.624336	60.727972
2641.040295	59.627972
2642.454413	54.496503
2643.868284	50.742657
2645.280315	52.819580
2646.693691	54.658741
2648.103637	58.063636
2649.516518	54.339860
2650.925971	47.155245
2652.335178	48.477622
2653.742549	47.909091
2655.152855	45.960839
2656.561324	55.487413
2657.967958	61.469930
2659.374347	60.348252
2660.778902	57.750350
2662.184801	54.902797
2663.588867	60.339860
2664.992688	59.658042
2666.396266	55.859441
2667.798011	50.504895
2669.201100	61.614685
2670.600771	63.644056
2672.001786	65.215385
2673.399385	69.374126
2674.799914	68.927273
2676.197028	68.965035
2677.595485	61.397902
2678.992114	56.923776
2680.388501	58.796503
2681.784647	50.534266
2683.178966	43.551748
2684.574628	40.787413
2685.966880	46.497203
2687.360475	43.236364
2688.752247	34.358741
2690.145360	30.352448
2691.536650	39.832867
2692.926117	44.974126
2694.315344	45.614685
2695.704332	52.598601
2697.094662	57.070629
2698.480007	58.513287
2699.868276	53.741958
2701.254725	48.097902
2702.640935	44.244056
2704.026907	45.162238
2705.409479	40.921678
2706.793394	39.190210
2708.177071	44.298601
2709.560510	46.909790
2710.940553	48.271329
2712.321938	53.776923
2713.701507	54.604895
2715.082418	64.354545
2716.461513	61.016783
2717.838795	59.055245
2719.217418	61.604196
2720.594228	66.953147
2721.970802	61.556643
2723.347140	50.395804
2724.721666	47.481119
2726.097533	48.516783
2727.470013	49.248252
2728.845409	49.790909
2730.215845	56.626573
2731.587622	59.269231
2732.959164	55.310490
2734.328898	58.459441
2735.699973	60.010490
2737.069239	65.185315
2738.438273	61.188811
2739.805499	56.730769
2741.172493	51.748951
2742.539254	48.804196
2743.905782	48.965734
2745.270505	43.916783
2746.634997	49.002797
2747.999256	44.149650
2749.363283	44.714685
2750.727079	49.831469
2752.087501	54.337063
2753.450834	59.773427
2754.809224	51.485315
2756.170524	53.134965
2757.528453	53.812587
2758.889291	51.754545
2760.248330	44.076923
2761.604000	42.476923
2762.962578	41.559441
2764.317789	41.228671
2765.672772	36.002098
2767.025957	40.389510
2768.382049	49.234965
2769.734777	48.679720
2771.087276	43.488811
2772.439547	53.153846
2773.793157	53.192308
2775.143405	50.423776
2776.491860	43.320979
2777.843219	38.547552
2779.191219	35.769231
2780.540557	40.169930
2781.888104	37.146154
2783.235423	44.695105
2784.582516	48.432168
2785.927818	50.009091
2787.272894	53.599301
2788.617743	61.276224
2789.962367	59.745455
2791.303639	54.658741
2792.646249	51.276923
2793.988633	50.487413
2795.330793	49.897902
2796.669603	47.648252
2798.011312	47.481119
2799.349674	43.097203
2800.689373	39.460839
2802.027286	45.899301
2803.363415	52.160839
2804.699320	53.638462
2806.036563	50.261538
2807.372022	49.380420
2808.707258	56.595105
2810.040711	63.942657
2811.375502	59.677622
2812.706951	59.241958
2814.041296	54.348252
2815.370743	51.700699
2816.701527	46.779021
2818.032089	48.442657
2819.360872	46.111888
2820.690991	51.293007
2822.019332	57.654545
2823.347452	61.178322
2824.673794	69.737762
2826.001473	75.828671
2827.325818	72.672727
2828.651500	78.571329
2829.975406	75.954545
2831.299093	79.006993
2832.624115	66.632168
2833.945807	64.276923
2835.267281	62.441259
2836.588536	68.255944
2837.909572	60.304196
2839.228836	52.524476
2840.549435	47.843357
2841.868262	39.894406
2843.186871	33.097203
2844.503709	47.446853
2845.820330	46.228671
2847.136734	45.630070
2848.451368	44.100000
2849.767338	55.740559
2851.079987	66.303497
2852.393972	73.519580
2853.707739	64.428671
2855.021291	62.167133
2856.333075	57.558042
2857.643093	52.850350
2858.954446	44.109790
2860.262484	47.855944
2861.571857	38.546853
2862.881014	47.585315
2864.189956	53.061538
2865.497134	52.309091
2866.802550	60.332867
2868.109300	59.164336
2869.414287	61.414685
2870.719061	67.587413
2872.022073	65.239161
2873.327967	61.181119
2874.629005	58.886014
2875.931378	63.432168
2877.231991	69.428671
2878.533938	71.474126
2879.835672	71.113287
2881.134101	67.911888
2882.433865	75.548951
2883.731870	73.355944
2885.029664	78.068531
2886.325702	72.950350
2887.623073	57.260839
2888.918688	58.671329
2890.214092	49.086014
2891.509285	49.127273
2892.801181	48.427273
2894.095953	42.316084
2895.387428	48.387413
2896.680236	53.249650
2897.972834	51.037762
2899.262138	46.236364
2900.552774	39.956643
2901.841659	43.580420
2903.131877	40.120280
2904.418802	47.121678
2905.707061	40.662238
2906.993569	42.913986
2908.279870	44.017483
2909.565962	43.656643
2910.850306	42.193007
2912.137521	54.621678
2913.419910	55.265035
2914.703631	49.513287
2915.985606	48.006294
2917.267373	59.099301
2918.547396	59.119580
2919.830288	56.971329
2921.111435	49.509091
2922.389300	40.487413
2923.670034	44.686014
2924.947487	43.776224
2926.224734	34.493007
2927.500240	34.987413
2928.778613	32.271329
2930.052171	28.549650
2931.328597	33.090210
2932.603282	36.151049
2933.876227	35.142657
2935.150502	33.238462
2936.423038	32.060140
2937.695370	36.741259
2938.964428	41.756643
2940.236352	37.520280
2941.506538	29.385315
2942.776521	27.731469
2944.046300	32.483217
2945.314342	31.687413
2946.580649	34.138462
2947.846753	35.944056
2949.114187	36.301399
2950.379887	38.580420
2951.645384	37.547552
2952.910679	37.924476
2954.172709	40.134965
2955.436070	49.009091
2956.699228	51.165734
2957.960655	49.653846
2959.223411	46.395804
2960.484436	39.048951
2961.743729	33.783916
2963.002823	35.506294
2964.261716	36.672028
2965.520409	36.240559
2966.778902	38.222378
2968.035666	39.542657
2969.292230	47.612587
2970.547067	49.334266
2971.803232	50.730070
2973.056143	50.012587
2974.310383	45.653846
2975.564424	44.284615
2976.816739	37.414685
2978.068856	39.363636
2979.319247	39.665734
2980.572494	42.435664
2981.820964	48.625175
2983.072289	45.731469
2984.320364	46.006993
2985.568243	41.337063
2986.815924	48.067133
2988.063409	56.438462
2989.309171	61.539161
2990.554738	60.345455
2991.801632	52.310490
2993.045282	55.093007
2994.290260	54.125175
2995.531994	56.181119
2996.776580	58.544755
2998.019447	51.261538
2999.259073	53.470629
3000.501549	54.453147
3001.740786	56.106294
3002.981350	63.978322
3004.220197	66.637762
3005.458850	60.544755
3006.695787	51.243357
3007.934051	51.274126
3009.170601	47.319580
3010.406956	37.700699
3011.643118	29.437762
3012.877567	22.966434
3014.111822	23.228671
3015.345884	18.744755
3016.578234	18.979021
3017.808872	29.254545
3019.042356	31.962238
3020.274128	38.553846
3021.504190	46.737063
3022.734060	55.465035
3023.962220	63.379720
3025.191706	57.435664
3026.419484	57.365734
3027.647070	54.382517
3028.875982	44.388112
3030.100152	35.774825
3031.327165	31.014685
3032.550954	26.948951
3033.776070	19.651748
3034.999479	26.269930
3036.222698	35.547552
3037.444212	36.002797
3038.668567	44.610490
3039.888187	45.044056
3041.109133	48.917483
3042.329890	40.049650
3043.548943	34.474825
3044.769322	30.333566
3045.986484	32.689510
3047.204971	22.106294
3048.421756	19.694406
3049.638354	23.332168
3050.854763	28.327273
3052.067960	21.297203
3053.283994	30.772727
3054.496816	28.131469
3055.712475	32.509790
3056.923411	37.534965
3058.135672	42.948951
3059.347747	51.411189
3060.559635	57.094406
3061.769825	41.374126
3062.979829	39.411189
3064.189647	36.274126
3065.397770	31.844056
3066.605706	23.893706
3067.811948	29.765035
3069.019513	24.641958
3070.225384	37.386014
3071.431071	48.465035
3072.636572	48.927972
3073.840380	55.449650
3075.045512	55.660140
3076.248952	52.802098
3077.450699	51.734266
3078.652263	48.752448
3079.853642	51.024476
3081.054839	46.864336
3082.254344	40.147552
3083.453667	38.346853
3084.654313	39.148252
3085.853269	36.901399
3087.049031	31.214685
3088.247622	38.366434
3089.443019	37.767832
3090.639739	40.718182
3091.833267	39.665734
3093.029623	45.431469
3094.224293	49.660140
3095.415772	43.780420
3096.611582	37.623776
3097.802699	32.282517
3098.995138	23.740559
3100.184390	20.879720
3101.376468	18.137762
3102.566861	27.778322
3103.754069	28.617483
3104.942600	32.390909
3106.132452	38.341958
3107.319121	50.838462
3108.505610	51.215385
3109.691919	55.378322
3110.879550	61.500000
3112.064000	53.772028
3113.246769	49.044755
3114.432361	46.528671
3115.616274	44.746853
3116.798508	47.658741
3117.980563	46.225874
3119.162441	50.830070
3120.344140	50.309091
3121.524161	51.509091
3122.702506	40.393007
3123.883672	40.027972
3125.061662	39.123077
3126.239475	32.646154
3127.417111	22.542657
3128.593072	27.172028
3129.768856	25.779021
3130.945962	26.751049
3132.121393	31.764336
3133.295151	34.895105
3134.467237	37.216783
3135.640643	38.608392
3136.813874	36.866434
3137.985432	34.158042
3139.158311	38.432168
3140.328024	40.437063
3141.499056	35.557343
3142.668419	47.327273
3143.836112	44.478322
3145.006620	44.347552
3146.172469	42.624476
3147.342628	42.824476
3148.508129	49.426573
3149.673457	43.742657
3150.838611	44.013287
3152.003591	43.000000
3153.169892	47.467832
3154.331539	45.727273
3155.494506	53.606294
3156.657301	55.071329
3157.819923	47.939860
3158.980880	39.318881
3160.141664	37.463636
3161.302276	42.595105
3162.461225	45.359441
3163.620001	36.641958
3164.778606	40.523776
3165.937039	45.717483
3167.095300	38.173427
3168.251899	40.528671
3169.406837	47.707692
3170.563094	42.044755
3171.717690	35.476923
3172.872116	34.933566
3174.024882	44.281119
3175.177478	47.318182
3176.329903	51.876224
3177.482159	41.321678
3178.634244	37.888112
3179.783184	32.032867
3180.934930	20.611189
3182.085018	19.944755
3183.233450	17.293007
3184.381713	18.396503
3185.529806	16.987413
3186.677731	16.792308
3187.824001	24.455245
3188.970102	24.230070
3190.114548	36.783916
3191.258827	42.857343
3192.402938	46.968531
3193.548367	51.350350
3194.690656	52.564336
3195.832779	56.730070
3196.974734	57.648252
3198.116523	55.364336
3199.258144	52.939161
3200.396629	40.188112
3201.536432	39.543357
3202.677553	30.053147
3203.815539	29.577622
3204.951876	26.837762
3206.088047	26.151748
3207.225536	24.153147
3208.361375	24.284615
3209.498532	28.385315
3210.631076	39.030769
3211.767902	46.444755
3212.900116	50.995105
3214.033647	45.234266
3215.167014	40.853846
3216.297253	37.962937
3217.430290	35.195105
3218.560201	37.269930
3219.691428	37.295105
3220.819531	29.846853
3221.950430	26.729371
3223.079685	29.074126
3224.207297	35.104895
3225.331787	38.921678
3226.460551	38.628671
3227.586194	36.097203
3228.711675	35.457343
3229.835514	45.189510
3230.962147	52.088112
3232.084183	56.432867
3233.207535	51.932867
3234.330725	46.661538
3235.453753	43.124476
3236.575141	47.856643
3237.696368	42.600699
3238.815956	48.725175
3239.935383	46.668531
3241.053172	44.579021
3242.173754	45.172727
3243.291221	45.227273
3244.408528	48.398601
3245.525675	42.460140
3246.641186	37.542657
3247.758012	38.500699
3248.871727	37.339860
3249.988232	43.972727
3251.103103	43.595804
3252.214865	52.969930
3253.326468	51.554545
3254.439385	54.232168
3255.552144	48.913287
3256.661796	43.362937
3257.772762	43.222378
3258.883570	36.707692
3259.992747	29.662937
3261.100292	31.130769
3262.209151	25.406993
3263.317853	34.513986
3264.423452	39.481119
3265.530365	37.382517
3266.635649	34.286014
3267.742248	37.572727
3268.845746	30.969930
3269.950558	33.876224
3271.055213	35.454545
3272.156769	31.556643
3273.258170	33.281818
3274.360884	39.300000
3275.463441	34.937762
3276.562902	46.413287
3277.665147	45.470629
3278.764296	42.667133
3279.861821	44.883916
3280.959190	44.047552
3282.059342	36.404895
3283.156400	38.990210
3284.253303	35.825175
3285.350051	32.665035
3286.442241	30.786713
3287.538679	23.765734
3288.633495	17.001399
3289.728157	26.451049
3290.821197	30.607692
3291.914083	29.326573
3293.005348	38.604895
3294.097926	42.481119
3295.188883	49.337063
3296.278221	53.975524
3297.367406	55.733566
3298.457904	53.002098
3299.545317	43.900699
3300.632578	41.851748
3301.721151	40.511189
3302.809571	39.343357
3303.893444	37.462937
3304.981559	30.641259
3306.066593	43.981818
3307.150010	45.672727
3308.234740	44.491608
3309.317855	41.488112
3310.402281	40.699301
3311.483629	38.765734
3312.566289	36.359441
3313.647335	44.921678
3314.728230	48.547552
3315.807511	49.232867
3316.886643	54.495804
3317.967085	56.595105
3319.044454	58.966434
3320.123133	52.135664
3321.200202	46.899301
3322.277120	41.300000
3323.352427	35.560839
3324.427585	31.014685
3325.504054	18.554545
3326.577453	24.602098
3327.650703	25.320979
3328.725263	24.251748
3329.798215	23.219580
3330.869558	21.538462
3331.942213	22.954545
3333.011800	21.924476
3334.082698	26.239860
3335.151989	30.365035
3336.222591	32.904196
3337.291586	32.858741
3338.358975	30.051049
3339.424759	35.818881
3340.494769	36.093706
3341.561716	33.618182
3342.625601	32.163636
3343.692254	31.213287
3344.757302	37.146853
3345.820747	41.504196
3346.884046	52.733566
3347.947198	61.098601
3349.010204	57.311189
3350.073064	61.851049
3351.134322	57.736364
3352.192523	50.437063
3353.254945	46.636364
3354.314310	38.169930
3355.373530	32.988811
3356.434060	27.072727
3357.490080	32.085315
3358.548865	37.702797
3359.603142	39.309091
3360.660182	40.362937
3361.715625	39.697902
3362.772376	45.511888
3363.827529	39.870629
3364.881086	36.597902
3365.933045	35.841958
3366.987766	33.600699
3368.039438	38.943357
3369.090967	40.053846
3370.143804	45.658042
3371.193594	45.311189
3372.244693	39.354545
3373.292746	45.027972
3374.343559	42.775524
3375.391326	40.934266
3376.438951	35.990210
3377.486433	33.475524
3378.532323	33.742657
3379.579521	34.118881
3380.623677	41.377622
3381.670591	42.301399
3382.715913	43.746154
3383.758194	40.400699
3384.800335	35.932867
3385.843783	43.386014
3386.887091	37.276224
3387.928808	37.367133
3388.970384	40.007692
3390.011820	35.900699
3391.051666	33.548951
3392.089924	29.895804
3393.129491	30.073427
3394.168916	30.720280
3395.206754	27.985315
3396.243005	26.690210
3397.279117	26.322378
3398.316536	27.028671
3399.350922	24.827273
3400.386615	25.922378
3401.422169	29.481818
3402.454692	25.507692
3403.489968	27.962937
3404.522213	27.130769
3405.554320	24.379021
3406.584843	24.456643
3407.616673	23.702098
3408.648365	26.620280
3409.677030	27.534965
3410.705556	30.673427
3411.735390	33.234965
3412.765085	41.053846
3413.791755	45.631469
3414.819732	51.288112
3415.844684	51.509091
3416.872386	48.080420
3417.897065	38.169930
3418.923050	34.434965
3419.947455	33.620979
3420.971724	28.295105
3421.994414	26.158741
3423.016968	25.956643
3424.040828	21.992308
3425.061668	28.525175
3426.082373	28.641958
3427.104383	28.843082
3428.123375	29.347253
3429.142232	30.373177
3430.162394	32.139560
3431.179540	34.865110
