-118.077073	-4.693407
-115.407473	1.975824
-112.740808	5.830070
-110.074895	7.393107
-107.411914	7.188711
-104.747504	5.740659
-102.086024	3.572727
-99.423114	3.278322
-96.765312	1.043357
-94.106079	0.431469
-91.447596	-0.287413
-88.792036	-1.513287
-86.135048	-1.704196
-83.483157	1.313986
-80.829837	1.955245
-78.179437	4.708392
-75.527607	4.284615
-72.880868	3.349650
-70.232699	2.922378
-67.585274	5.015385
-64.940762	5.811189
-62.294822	7.061538
-59.653963	10.319580
-57.011675	8.845455
-54.372295	8.823776
-51.731487	10.988811
-49.091419	11.773427
-46.456423	12.569930
-43.819999	15.170629
-41.186477	14.520979
-38.551527	12.829371
-35.921642	14.235664
-33.288165	12.108392
-30.659750	12.500000
-28.032069	13.162238
-25.402959	8.842657
-22.778906	-12.974825
-20.151264	-85.357343
-17.528675	-226.516084
-14.906818	-213.681818
-12.285691	282.430769
-9.665294	1096.742657
-7.047786	1774.748252
-4.428848	2244.183217
-1.812797	2500.919580
0.802526	2542.612587
3.417122	2370.622378
6.028835	1991.169231
8.641977	1412.288811
11.250085	690.212587
13.861775	-9.993007
16.468434	-363.352448
19.076521	-242.593706
21.683884	-21.593007
24.286222	9.811189
26.892138	10.008392
29.493032	12.811888
32.095354	7.302797
34.692659	6.095804
37.293539	6.306294
39.889405	5.224476
42.486698	3.496503
45.083272	3.469231
47.674837	3.288811
50.267830	6.846853
52.857962	10.203497
55.449522	10.067832
58.038222	11.665035
60.628349	13.664336
63.213478	13.683916
65.800033	15.113986
68.385875	13.845455
70.968863	10.980420
73.553277	8.187413
76.130563	8.319580
78.711415	7.702797
81.289418	9.051748
83.866711	11.071329
86.445430	8.218881
89.019168	8.503497
91.594332	7.562937
94.166653	7.825175
96.738266	5.702098
99.307039	5.787413
101.877239	3.828671
104.444601	6.087413
107.013388	8.547552
109.579339	8.509790
112.142455	12.386014
114.709127	15.410490
117.266578	15.527972
119.829714	18.514685
122.387891	20.769231
124.949621	27.668531
127.506395	39.048951
130.064596	58.419580
132.617844	78.183217
135.170393	109.219580
137.726493	144.875524
140.277646	180.197203
142.828100	220.728671
145.377857	254.428671
147.924796	282.974126
150.471038	304.006993
153.018706	320.752448
155.565678	328.447552
158.107715	330.508392
160.649058	328.720280
163.189708	322.842657
165.731784	317.700000
168.271048	313.202098
170.807504	308.940559
173.343268	308.339860
175.880458	306.083217
178.416957	305.252448
180.950650	304.735664
183.481540	306.559441
186.011741	303.893007
188.543367	304.012587
191.072192	301.400699
193.598218	299.351049
196.123558	297.301399
198.650324	298.551049
201.174292	297.453147
203.697576	297.981119
206.220175	298.290210
208.739981	298.755944
211.259104	299.079720
213.777544	298.729371
216.297408	294.260839
218.810271	294.463636
221.326665	290.908392
223.842377	291.351748
226.353199	292.592308
228.865447	292.797902
231.374911	289.086014
233.883697	287.503497
236.391805	285.922378
238.901336	284.225874
241.405987	283.702797
243.909962	280.658741
246.415362	276.458741
248.915886	277.739161
251.419933	276.075524
253.917010	281.842657
256.417609	287.976923
258.915437	294.068531
261.412592	299.398601
263.909074	309.204895
266.400693	322.393007
268.895832	340.524476
271.388205	362.726573
273.879907	377.490210
276.368845	387.811888
278.859208	388.793007
281.346808	384.993706
283.831649	443.358042
286.320005	707.351748
288.801421	1262.330769
291.286351	2000.900000
293.766436	2702.506294
296.250033	3223.860140
298.728787	3511.755944
301.208965	3539.261538
303.686390	3306.890909
306.163152	2835.888811
308.639251	2176.441259
311.112601	1442.186713
313.585289	798.197203
316.057316	424.563636
318.528682	329.944056
320.997304	364.831469
323.465266	387.527273
325.934650	384.435664
328.399212	376.715385
330.867278	368.381818
333.330524	358.109790
335.793112	347.722378
338.255044	343.968531
340.716319	343.841958
343.174860	342.594406
345.634823	341.640559
348.092053	338.104196
350.548629	333.741259
353.004551	328.977622
355.457744	326.948951
357.912358	323.552448
360.362171	319.372727
362.815480	315.090210
365.263991	312.721678
367.711851	311.869231
370.161132	306.538462
372.605620	302.943357
375.051530	297.439161
377.496791	293.450350
379.939332	289.851748
382.381226	293.097902
384.822473	294.602098
387.261004	290.186014
389.700957	287.410490
392.138196	288.796503
394.572723	287.674126
397.010738	287.452448
399.443976	288.411189
401.878636	286.300000
404.308522	286.228671
406.741894	285.935664
409.170496	286.083217
411.598457	290.181818
414.027838	292.471329
416.452454	291.560839
418.878492	293.017483
421.303889	293.141259
423.728646	292.379021
426.148645	290.697203
428.570065	289.753846
430.988788	286.896503
433.408932	285.546853
435.826381	282.681119
438.245250	283.697902
440.661426	285.226573
443.072855	287.096503
445.487760	287.314685
447.899975	286.652448
450.311556	288.257343
452.722503	289.741259
455.130764	291.362937
457.538392	289.031469
459.945389	291.174825
462.351753	294.178322
464.755435	297.568531
467.158487	299.014685
469.560909	299.059441
471.962701	298.366434
474.361816	294.655944
476.762350	289.544755
479.162255	290.222378
481.557437	285.255245
483.956086	279.909091
486.350015	273.020979
488.743318	269.864336
491.135995	266.035664
493.528047	258.194406
495.921517	250.305594
498.310276	244.661538
500.696368	237.860140
503.083879	230.728671
505.470768	228.210490
507.854993	224.753846
510.240637	221.539860
512.623618	218.916084
515.003939	216.974126
517.385679	213.510490
519.764760	210.068531
522.145260	206.163636
524.523102	203.478322
526.898289	199.381119
529.272858	199.417483
531.648846	200.137063
534.022180	200.937063
536.396932	203.581119
538.766999	210.220280
541.136450	216.132168
543.507319	217.967832
545.873508	222.193007
548.241115	225.037762
550.606076	226.659441
552.970424	229.409091
555.334160	228.473427
557.699312	229.520280
560.059793	229.366434
562.421692	229.662238
564.780950	231.874825
567.137571	233.005594
569.497636	230.657343
571.851011	226.080420
574.207830	222.046853
576.562013	218.361538
578.915589	214.413287
581.268556	210.802797
583.618892	207.721678
585.970644	204.335664
588.315720	204.465734
590.666260	203.700699
593.010126	203.395105
595.359454	197.697902
597.704134	191.211888
600.046188	183.895105
602.389660	174.758741
604.730509	169.734266
607.070756	161.505594
609.408382	159.358042
611.749443	157.851049
614.085866	154.160140
616.423706	154.918182
618.758929	153.255245
621.091536	152.567133
623.425559	146.227273
625.756969	144.695804
628.087780	140.679720
630.417993	138.651748
632.747608	138.925874
635.072601	139.042657
637.403035	144.486713
639.728847	143.942657
642.052053	146.136364
644.376674	147.406294
646.698690	146.437063
649.020113	146.662238
651.338932	145.854545
653.659167	144.389510
655.978809	142.047552
658.295850	141.930769
660.612299	141.072727
662.926150	141.062238
665.241417	140.157343
667.554087	137.171329
669.868172	136.347552
672.177657	138.174825
674.488558	139.477622
676.796866	140.551049
679.104586	140.102098
681.413721	138.680420
683.718263	139.662937
686.022218	141.294406
688.325588	142.141958
690.630372	140.595804
692.930570	138.866434
695.232182	135.427273
697.533210	132.486713
699.829655	133.472727
702.127516	130.822378
704.424793	128.601399
706.721487	129.075524
709.013605	131.645455
711.309134	134.004196
713.600090	135.172727
715.892460	136.362937
718.182254	134.483217
720.471468	134.869231
722.760103	134.207692
725.046166	130.146154
727.333642	128.620280
729.618547	127.809091
731.902875	130.362238
734.184634	132.922378
736.467807	135.449650
738.750403	138.002098
741.028444	136.237762
743.307898	137.294406
745.586777	136.335664
747.865080	139.616084
750.138834	140.459441
752.414002	140.475524
754.688596	138.967832
756.960630	142.230070
759.234078	144.855245
761.504968	145.930769
763.773302	147.989510
766.043049	150.754545
768.310242	148.720979
770.576864	150.326573
772.842916	150.149650
775.106417	150.614685
777.371331	149.253147
779.635675	148.550350
781.895490	143.872028
784.156717	143.395105
786.417377	140.851748
788.675491	139.800000
790.931060	137.806294
793.190020	138.364336
795.442481	138.060839
797.700309	139.841958
799.953617	140.486713
802.204386	137.147552
804.456567	137.248252
806.706210	138.607692
808.957264	138.649650
811.203807	136.351049
813.451762	134.012587
815.697183	135.455245
817.944015	132.986014
820.190286	134.870629
822.432053	133.595105
824.677202	129.611888
826.915879	126.491608
829.157938	125.626573
831.395499	126.055944
833.634472	126.083916
835.870918	125.941958
838.108775	124.110490
840.344107	124.216783
842.576916	128.623776
844.811136	126.134965
847.042834	129.725874
849.273976	127.667832
851.504565	127.393706
853.734598	129.741958
855.964078	132.756643
858.189076	128.793007
860.417449	131.921678
862.641343	134.750350
864.866647	136.795105
867.087476	136.993007
869.311677	137.097902
871.531405	135.931469
873.752544	133.586014
875.973132	132.790210
878.191210	132.890909
880.410698	127.469231
882.625720	122.286713
884.840195	120.017483
887.054121	123.090210
889.267501	123.979021
891.480333	124.865734
893.692619	124.480420
895.902402	127.702797
898.111640	129.293007
900.320333	125.474825
902.526527	127.265035
904.734130	125.366434
906.939235	122.148951
909.143797	119.566434
911.345864	119.771329
913.549340	121.102098
915.750322	123.046154
917.950763	120.944056
920.152611	127.334965
922.348069	131.196503
924.546886	132.549650
926.741264	135.610490
928.939000	137.333566
931.132300	138.747552
933.327009	138.016084
935.519232	138.320979
937.710917	142.243357
939.902064	145.643357
942.090728	149.781818
944.278855	148.823776
946.464502	151.637063
948.653501	145.027273
950.838077	139.795804
953.022118	137.702098
955.209509	138.714685
957.388596	134.890909
959.571034	132.497203
961.752938	133.086713
963.932368	140.131469
966.109324	143.436364
968.287689	151.021678
970.467461	152.854545
972.640884	153.737063
974.817653	153.609091
976.990015	155.072727
979.163785	158.787413
981.333151	162.383217
983.505861	160.153147
985.676106	156.350350
987.845822	155.444755
990.015009	160.515385
992.179799	163.912587
994.347930	162.367133
996.511667	155.692308
998.676810	150.641958
1000.839495	155.481119
1003.001653	150.293007
1005.161355	144.988112
1007.320533	142.361538
1009.481117	147.126573
1011.639246	150.704895
1013.796851	162.904895
1015.953933	170.063636
1018.110492	170.992308
1020.262671	175.679720
1022.416256	175.144755
1024.569320	186.587413
1026.719936	191.564336
1028.871957	185.053846
1031.019605	177.837762
1033.170585	176.086014
1035.317194	176.990909
1037.463285	163.804196
1039.608856	156.638462
1041.755833	146.372727
1043.896521	144.752448
1046.040539	157.400699
1048.182116	166.037762
1050.323177	178.383916
1052.465642	183.570629
1054.601828	195.688811
1056.741340	200.688811
1058.876496	203.596503
1061.014977	206.169231
1063.149104	202.600000
1065.282718	201.039161
1067.417737	201.579021
1069.548406	198.185315
1071.680480	200.010490
1073.810125	196.794406
1075.939258	197.664336
1078.067879	197.659441
1080.195989	204.197203
1082.321673	196.603497
1084.446847	189.163636
1086.573425	190.644056
1088.695666	189.395804
1090.819310	172.869231
1092.938621	163.769231
1095.063160	144.148252
1097.181454	147.382517
1099.301153	154.854545
1101.418433	170.146154
1103.535207	176.154545
1105.651474	191.975524
1107.765326	196.016783
1109.880581	205.423077
1111.991513	206.292308
1114.105758	197.290909
1116.215682	173.739860
1118.327010	157.927972
1120.437833	135.866434
1122.544340	134.869231
1124.654157	139.572727
1126.759659	138.506294
1128.866564	142.160839
1130.967254	143.546154
1133.073156	146.193007
1135.174749	145.178322
1137.277745	141.391608
1139.380240	135.251049
1141.476528	128.969930
1143.578024	130.144056
1145.675216	132.617483
1147.771911	140.995105
1149.868107	145.901399
1151.963806	145.118182
1154.059006	143.443357
1156.151811	136.862937
1158.246017	132.869930
1160.334032	128.699301
1162.427245	132.204196
1164.514270	129.051049
1166.604594	128.153846
1168.690631	133.404895
1170.779965	139.658042
1172.863118	142.361538
1174.947673	142.268531
1177.033630	142.057343
1179.115305	140.421678
1181.198382	147.548951
1183.279073	143.630769
1185.359272	146.950350
1187.438980	145.546154
1189.518197	136.381818
1191.595032	133.459441
1193.669486	131.861538
1195.747231	127.276923
1197.820707	125.511888
1199.895583	124.983217
1201.966192	121.039860
1204.038203	120.630769
1206.107837	125.819580
1208.178872	125.597902
1210.249419	131.488811
1212.315705	133.923776
1214.383392	135.730769
1216.448707	143.585315
1218.515422	149.764336
1220.577881	150.109091
1222.643625	153.497203
1224.705116	151.939161
1226.768006	145.751748
1228.828529	144.020280
1230.888568	143.064336
1232.948125	141.249650
1235.005316	139.830769
1237.062026	137.368531
1239.116373	136.311189
1241.174000	136.645455
1243.229265	134.785315
1245.280289	135.216084
1247.332713	136.760140
1249.384657	135.200699
1251.434243	133.198601
1253.483350	134.683217
1255.531979	132.452448
1257.580129	131.553846
1259.627800	130.390210
1261.671242	127.146154
1263.717958	127.331469
1265.762321	123.005594
1267.806208	122.872727
1269.847743	130.789510
1271.886929	127.757343
1273.929388	135.595105
1275.967624	137.706993
1278.007259	140.876224
1280.046419	140.898601
1282.081360	144.798601
1284.117700	141.451748
1286.151696	139.900699
1288.187090	139.847552
1290.218270	138.030070
1292.250848	133.531469
1294.282955	127.941958
1296.312721	125.362937
1298.343885	131.853846
1300.370841	134.976224
1302.399195	136.348951
1304.423345	136.837063
1306.450759	135.869231
1308.473971	133.604196
1310.498581	135.804895
1312.520857	136.646853
1314.544530	134.358042
1316.565870	129.094406
1318.586742	125.302098
1320.607147	128.120280
1322.623359	129.277622
1324.640968	134.015385
1326.656249	130.737063
1328.674789	127.083217
1330.689140	119.833566
1332.701165	120.173427
1334.716447	118.595804
1336.727544	114.282517
1338.740038	113.630769
1340.748349	116.251748
1342.759916	116.689510
1344.765443	124.782517
1346.774226	131.962937
1348.778831	139.697902
1350.786690	138.358042
1352.794087	140.185315
1354.795453	136.968531
1356.798216	143.419580
1358.800518	139.148951
1360.802361	139.167832
1362.803744	138.432168
1364.802814	137.032168
1366.801425	137.575524
1368.799578	143.050350
1370.797272	144.330769
1372.790804	141.437762
1374.785732	131.734965
1376.780202	129.678322
1378.774217	127.391608
1380.765923	131.127273
1382.757175	130.979720
1384.746121	135.539860
1386.736462	134.297203
1388.726348	136.378322
1390.713931	142.083916
1392.701059	147.272727
1394.685886	148.090909
1396.672108	144.092308
1398.656030	135.173427
1400.639499	137.132867
1402.622515	137.014685
1404.603234	142.045455
1406.585347	145.136364
1408.565164	145.399301
1410.544529	142.742657
1412.519756	144.697902
1414.498222	147.359441
1416.474393	148.687413
1418.450116	142.043357
1420.425389	136.757343
1422.398371	133.515385
1424.370905	137.491608
1426.342992	141.197203
1428.314630	147.117483
1430.282140	146.514685
1432.254724	144.332867
1434.219503	137.638462
1436.189353	134.652448
1438.155080	130.233566
1440.122199	130.222378
1442.087035	128.106993
1444.047751	131.388811
1446.013536	135.201399
1447.973365	142.072028
1449.934587	148.116084
1451.897202	150.738462
1453.855702	152.591608
1455.813759	149.873427
1457.771375	141.967832
1459.728549	133.718182
1461.683447	126.758741
1463.639737	131.225874
1465.593753	131.725175
1467.547329	131.677622
1469.498632	125.283916
1471.451327	128.716783
1473.401751	122.791608
1475.351735	124.671329
1477.301281	124.114685
1479.248558	117.904196
1481.193568	115.858042
1483.139969	116.561538
1485.085933	122.820280
1487.031460	128.376224
1488.974722	129.609091
1490.917547	132.731469
1492.858109	133.912587
1494.800062	139.325874
1496.739753	136.941259
1498.679010	141.839860
1500.617831	142.010490
1502.554393	139.550350
1504.492346	140.032867
1506.428040	140.318182
1508.363301	144.523776
1510.296306	137.720280
1512.228878	135.289510
1514.161018	137.938462
1516.092726	139.083916
1518.022180	141.544056
1519.953025	141.660140
1521.883438	144.617483
1523.809779	148.011189
1525.737511	141.259441
1527.662992	141.204895
1529.588044	142.238462
1531.512667	147.010490
1533.436861	140.458042
1535.358807	138.184615
1537.282144	141.579720
1539.203235	143.939161
1541.122081	149.755245
1543.042316	144.409790
1544.960309	144.825874
1546.877875	144.697203
1548.793199	141.731469
1550.709913	145.600699
1552.622572	146.253846
1554.538435	152.369231
1556.452058	151.954545
1558.363444	152.351748
1560.276218	160.163636
1562.184943	163.687413
1564.095058	162.473427
1566.004748	152.684615
1567.914016	144.834266
1569.821050	139.319580
1571.725851	132.811888
1573.632041	130.700000
1575.535999	131.163636
1577.439537	140.380420
1579.342653	140.130070
1581.243540	140.181119
1583.145816	149.187413
1585.045864	143.977622
1586.947299	142.956643
1588.844701	138.976224
1590.741684	142.987413
1592.638249	141.651049
1594.536202	145.552448
1596.428320	146.080420
1598.323631	143.072727
1600.218525	146.551748
1602.111197	138.549650
1604.003453	130.515385
1605.893488	128.834965
1607.783109	123.762238
1609.672313	130.735664
1611.561103	134.702797
1613.447675	144.739860
1615.335635	139.497203
1617.219578	147.659441
1619.104909	140.752448
1620.989825	138.632867
1622.872528	141.570629
1624.756618	140.377622
1626.636697	138.105594
1628.518162	143.520979
1630.397417	147.441259
1632.278058	151.668531
1634.152895	151.895105
1636.032714	147.261538
1637.908527	141.674126
1639.783930	149.334965
1641.660719	145.738462
1643.531712	140.140559
1645.405886	136.114685
1647.276062	138.084615
1649.149418	130.293007
1651.020571	128.652448
1652.889522	125.486713
1654.759859	122.781818
1656.626202	111.665734
1658.493931	109.100699
1660.359461	108.673427
1662.226377	117.201399
1664.089304	113.229371
1665.953616	120.907692
1667.815732	128.614685
1669.677444	141.718182
1671.540540	148.369231
1673.401442	150.894406
1675.260150	151.506294
1677.118455	145.842657
1678.978145	135.199301
1680.832068	137.948951
1682.689163	128.175524
1684.545856	133.869231
1686.398573	130.660140
1688.254460	140.676224
1690.106374	148.169930
1691.957887	148.978322
1693.808999	146.321678
1695.659711	128.989510
1697.510022	122.622378
1699.358148	112.009790
1701.207659	97.167832
1703.051421	93.558042
1704.900132	89.358741
1706.743098	98.818881
1708.589229	109.569231
1710.431399	122.181119
1712.276733	130.807692
1714.116327	132.521678
1715.957305	138.061538
1717.799666	135.667832
1719.638071	130.673427
1721.477859	132.947552
1723.315472	121.825874
1725.152689	127.806993
1726.987733	140.517483
1728.824160	142.267133
1730.658415	146.491608
1732.492275	147.203497
1734.325742	139.576224
1736.155262	146.206993
1737.987941	151.525874
1739.816676	146.811189
1741.648568	144.132867
1743.476519	153.787413
1745.304077	143.095105
1747.131243	149.154545
1748.958018	152.832867
1750.784402	142.853147
1752.606848	140.241259
1754.432450	134.972028
1756.254117	114.146853
1758.077166	117.569231
1759.898053	118.241958
1761.718552	113.300000
1763.540432	114.192308
1765.356612	113.624476
1767.175944	111.209790
1768.991349	120.213287
1770.809904	132.606993
1772.624534	145.983916
1774.438778	151.778322
1776.252634	142.906993
1778.066104	135.363636
1779.877421	138.707692
1781.690119	128.178322
1783.502430	127.083916
1785.310824	125.490210
1787.120598	121.336364
1788.926458	119.981818
1790.735463	120.935664
1792.540555	119.764336
1794.347028	115.495804
1796.153117	113.409091
1797.955296	105.270629
1799.760618	117.016084
1801.562032	125.453846
1803.364826	131.869930
1805.163714	137.273427
1806.963983	139.744056
1808.763870	144.078322
1810.561616	143.588811
1812.358980	142.905594
1814.155965	136.195105
1815.952569	131.948951
1817.747034	134.159441
1819.542878	140.628671
1821.333068	159.804895
1823.128153	166.374825
1824.917587	164.450350
1826.710157	152.264336
1828.500592	142.658042
1830.288893	135.757343
1832.080329	131.106993
1833.866119	120.541958
1835.653289	112.890909
1837.438327	113.946853
1839.226499	118.318182
1841.010785	131.692308
1842.792942	144.158042
1844.576477	143.562238
1846.357884	144.816783
1848.140670	140.598601
1849.919575	126.655944
1851.699860	130.262238
1853.478018	133.079720
1855.257555	126.719580
1857.034967	127.071329
1858.810255	127.846154
1860.586922	131.697203
1862.361465	135.990210
1864.137387	138.241958
1865.907688	129.273427
1867.681117	129.469930
1869.452426	121.188112
1871.223365	118.313287
1872.995680	126.611189
1874.762382	124.132867
1876.532210	126.495804
1878.298174	128.218881
1880.067262	128.674126
1881.832488	136.753147
1883.597345	138.567133
1885.363580	139.964336
1887.125956	139.527273
1888.887965	141.804895
1890.649606	133.516783
1892.410881	139.231469
1894.171788	136.877622
1895.932329	134.482517
1897.690760	135.281119
1899.448826	135.677622
1901.204783	138.086713
1902.962117	140.237063
1904.719086	141.538462
1906.473949	137.227273
1908.226706	132.853846
1909.979100	130.801399
1911.732869	124.100699
1913.484535	122.565035
1915.234099	118.624476
1916.985038	114.577622
1918.735615	111.135664
1920.482352	108.039860
1922.230466	119.692308
1923.976480	123.552448
1925.723870	126.153147
1927.469161	130.417483
1929.212355	130.924476
1930.956924	135.229371
1932.699398	134.005594
1934.441511	137.604196
1936.183264	139.841608
1937.924658	134.216084
1939.663957	128.091259
1941.402898	119.854545
1943.141481	128.637413
1944.877971	123.745455
1946.614104	122.228322
1948.351611	131.086014
1950.085296	128.269580
1951.820356	128.103497
1953.553328	133.423427
1955.285942	144.100000
1957.018201	146.368182
1958.750103	141.336364
1960.479919	132.970629
1962.207650	129.000699
1963.936756	133.772028
1965.665507	128.181818
1967.392174	127.897902
1969.118487	132.488112
1970.846173	135.140559
1972.568323	134.611888
1974.293574	142.698601
1976.015019	145.075524
1977.739563	143.560839
1979.462028	141.616783
1981.180689	142.034965
1982.902449	141.407692
1984.620407	133.517483
1986.339738	130.922378
1988.055270	132.711189
1989.775622	132.790909
1991.492176	138.179021
1993.204933	135.127972
1994.920787	139.567832
1996.634567	134.444056
1998.347998	134.197902
2000.059358	130.236364
2001.772090	125.083217
2003.481032	122.533566
2005.193067	117.031469
2006.899592	123.189510
2008.609210	120.997902
2010.316760	118.194406
2012.023963	118.739161
2013.729100	117.949650
2015.433890	117.383916
2017.140052	115.300699
2018.842432	117.514685
2020.546184	121.065734
2022.247872	124.516084
2023.949216	135.160839
2025.650214	137.479720
2027.349151	140.511888
2029.049460	139.066434
2030.745994	139.288811
2032.443899	138.616084
2034.139745	142.051748
2035.838677	141.376224
2037.532123	140.266434
2039.226940	137.460140
2040.921415	145.234266
2042.612121	138.490210
2044.305911	135.946154
2045.995934	133.429371
2047.687328	126.391608
2049.376669	124.374825
2051.067380	130.096503
2052.754328	131.515385
2054.440937	138.303497
2056.128916	139.695105
2057.813135	136.932867
2059.498724	139.062937
2061.183974	143.663636
2062.867176	133.083916
2064.551747	126.009091
2066.230856	122.539161
2067.914750	112.296503
2069.593184	113.332168
2071.274694	116.787413
2072.952454	110.941958
2074.629876	119.228671
2076.308668	118.562238
2077.985418	126.398601
2079.660126	132.851748
2081.336203	134.745455
2083.010240	137.316783
2084.683941	137.569231
2086.357307	141.488811
2088.028635	137.568531
2089.699628	137.137762
2091.370287	141.098601
2093.040611	138.095105
2094.710602	136.595804
2096.378557	133.777622
2098.046179	136.288112
2099.711766	132.916084
2101.378723	130.839161
2103.043645	130.851748
2104.708236	127.811888
2106.370795	126.504895
2108.034722	124.696503
2109.696619	125.727972
2111.358184	131.504196
2113.019418	134.219580
2114.678624	131.380420
2116.337499	131.771329
2117.996045	127.955944
2119.654261	125.069231
2121.308753	126.560140
2122.966310	120.272028
2124.623538	123.561538
2126.277044	124.329371
2127.931918	123.418881
2129.583074	115.332168
2131.237291	120.605594
2132.887792	125.190909
2134.539659	121.708392
2136.186118	116.325874
2137.837332	121.192308
2139.484832	122.678322
2141.133699	127.899301
2142.780548	129.559441
2144.427070	139.746154
2146.073267	137.850350
2147.715756	136.050350
2149.361303	132.131469
2151.003143	134.525874
2152.648040	137.716084
2154.289232	137.883916
2155.930100	138.066434
2157.570644	143.053846
2159.209176	140.246154
2160.849074	142.294406
2162.485272	142.455944
2164.122837	135.788112
2165.760078	132.186014
2167.395310	125.745455
2169.030221	115.237762
2170.664810	111.311189
2172.299077	119.331469
2173.929651	125.046853
2175.563277	126.564336
2177.193211	129.339161
2178.824510	131.304196
2180.453804	133.858741
2182.082779	135.193007
2183.711434	127.590909
2185.339770	125.139161
2186.966104	117.474825
2188.592119	117.296503
2190.216133	125.463636
2191.841511	131.894406
2193.464890	132.611189
2195.089632	131.451748
2196.710694	131.385315
2198.331439	127.611888
2199.953549	125.897902
2201.573661	127.997902
2203.191776	123.818881
2204.809576	124.027273
2206.427061	119.805594
2208.044230	125.867133
2209.661084	130.588811
2211.277623	130.384615
2212.892168	128.622378
2214.504721	135.015385
2216.118638	129.570629
2217.730564	124.133566
2219.343853	124.273427
2220.955152	130.176923
2222.564461	124.409790
2224.175134	119.821678
2225.783818	115.281818
2227.392190	119.942657
2228.998574	124.512587
2230.606322	128.848252
2232.212083	130.565734
2233.817533	136.943357
2235.420998	128.469231
2237.025826	126.081119
2238.628670	125.999301
2240.229532	122.546154
2241.831755	110.050350
2243.431997	104.932168
2245.033601	105.337063
2246.631553	109.689510
2248.230867	115.778322
2249.828201	113.577622
2251.425226	112.333566
2253.023614	113.803497
2254.618353	117.841958
2256.211115	117.316783
2257.805240	122.220979
2259.400726	118.588811
2260.992568	116.785315
2262.584103	109.307692
2264.176999	113.157343
2265.764586	119.230769
2267.356870	119.454545
2268.943846	116.937063
2270.533851	117.904196
2272.118551	118.430070
2273.707944	119.741958
2275.292036	116.475524
2276.877489	119.003497
2278.460972	122.018182
2280.047482	124.893706
2281.630358	122.204196
2283.212930	130.104196
2284.795199	136.313287
2286.373839	140.800000
2287.955502	134.450350
2289.533537	124.866434
2291.114595	122.920280
2292.692026	114.713287
2294.267494	122.324476
2295.845984	115.802098
2297.420850	120.408392
2298.995415	116.065734
2300.569680	113.768531
2302.143644	115.113986
2303.717308	116.218881
2305.290671	113.683916
2306.860416	114.225874
2308.429862	116.262937
2310.002326	118.308392
2311.569516	119.533566
2313.139724	131.797902
2314.706317	129.564336
2316.274270	132.845455
2317.840267	124.062937
2319.405967	115.490909
2320.971370	118.148951
2322.534818	114.153147
2324.099626	115.170629
2325.660826	122.444755
2327.225040	116.357343
2328.783992	119.266434
2330.345959	131.886713
2331.905975	131.893706
2333.465695	137.585315
2335.023466	138.398601
2336.580942	132.921678
2338.138124	124.010490
2339.693358	115.834965
2341.248299	110.556643
2342.802946	116.651748
2344.357299	112.623077
2345.911358	108.961538
2347.465123	114.972727
2349.016945	116.553147
2350.566823	109.468531
2352.119709	116.316084
2353.667353	121.354545
2355.218004	125.196503
2356.765064	123.098601
2358.313483	126.569930
2359.861609	149.469231
2361.406147	161.638462
2362.952043	154.665035
2364.496001	149.079021
2366.041316	144.472028
2367.583046	136.143357
2369.126133	128.476923
2370.667285	121.884615
2372.208147	123.471329
2373.748719	122.326573
2375.289003	117.682517
2376.828998	124.064336
2378.365415	136.434266
2379.904833	134.760839
2381.440674	132.435664
2382.977871	129.975524
2384.511493	124.481818
2386.048116	117.839161
2387.582807	121.601399
2389.115569	124.744056
2390.648044	133.088811
2392.178591	124.493007
2393.712136	123.595804
2395.240470	121.588112
2396.770161	126.395804
2398.299566	122.839860
2399.828685	124.735664
2401.357520	118.948951
2402.881149	116.740559
2404.409415	121.498601
2405.932477	133.693007
2407.460173	136.579021
2408.981030	138.519580
2410.506520	133.355944
2412.028449	134.137063
2413.551734	128.842657
2415.073098	125.220280
2416.592542	116.600699
2418.113341	109.943357
2419.632221	107.851748
2421.150819	106.873427
2422.667500	111.055944
2424.185535	108.400699
2425.703289	96.282517
2427.217492	94.141259
2428.731414	101.628671
2430.245056	105.589510
2431.760053	117.776224
2433.271501	118.614685
2434.784304	124.514685
2436.295193	129.819580
2437.805804	139.300699
2439.314503	145.667133
2440.826188	150.946853
2442.334330	144.025175
2443.842194	131.634266
2445.349780	132.718881
2446.853825	135.893007
2448.360856	130.820979
2449.865978	134.570629
2451.370823	126.358042
2452.873760	122.813986
2454.376422	118.047552
2455.878807	116.197203
2457.379287	118.351748
2458.881120	114.099301
2460.381049	112.888112
2461.880702	112.183916
2463.380079	118.564336
2464.877554	125.639860
2466.373127	134.244755
2467.871680	146.425175
2469.366705	144.125874
2470.863082	138.285315
2472.355933	134.535664
2473.850137	129.588112
2475.344067	119.573427
2476.834473	119.953846
2478.327857	115.984615
2479.819343	113.881119
2481.308932	117.803497
2482.798249	123.544755
2484.285671	121.785315
2485.776068	127.397902
2487.262946	120.893706
2488.751176	117.767133
2490.235890	114.755944
2491.720333	111.632867
2493.206128	110.634965
2494.690030	114.609091
2496.175284	105.918182
2497.655403	108.725874
2499.138496	111.273427
2500.619698	119.179021
2502.100631	128.642657
2503.579675	134.659441
2505.058450	134.613986
2506.536957	145.276923
2508.015196	147.379021
2509.493166	144.459441
2510.967632	138.025874
2512.445066	131.272028
2513.918997	122.143357
2515.394278	113.889510
2516.869293	107.740559
2518.340806	109.539161
2519.813669	109.627273
2521.284650	102.865035
2522.756981	102.927273
2524.224199	113.800000
2525.694382	112.918182
2527.162685	106.886014
2528.630723	110.535664
2530.098496	110.066434
2531.566004	100.706294
2533.033247	97.239161
2534.496998	99.195105
2535.962099	105.002098
2537.425323	111.309091
2538.889897	115.100699
2540.350981	123.799301
2541.813415	134.234965
2543.275586	134.621678
2544.734271	136.860140
2546.197528	140.455944
2547.655688	132.241958
2549.115197	122.072727
2550.569613	121.277622
2552.028598	119.105594
2553.485712	120.821678
2554.940955	115.606294
2556.395937	112.061538
2557.849049	126.474126
2559.303510	129.967832
2560.756102	130.826573
2562.208434	133.670629
2563.658898	132.596503
2565.112318	130.136364
2566.560656	130.537063
2568.011950	127.325874
2569.461377	119.278322
2570.907332	114.921678
2572.356242	105.160839
2573.801682	104.077622
2575.248470	113.263636
2576.693394	108.422378
2578.138060	102.497902
2579.584075	97.851748
2581.026622	101.794406
2582.470517	111.278322
2583.910947	113.049650
2585.352724	115.748252
2586.792642	113.123077
2588.233907	121.418182
2589.671711	121.493007
2591.112464	130.191608
2592.548154	140.026573
2593.986794	145.921678
2595.423576	138.004895
2596.858503	138.552448
2598.296377	142.244056
2599.729194	144.180420
2601.163358	136.969930
2602.595668	134.130769
2604.029324	122.973427
2605.461127	121.330070
2606.892676	111.136364
2608.323973	107.544755
2609.753417	110.437063
2611.182609	105.860140
2612.609951	98.212587
2614.038638	103.579720
2615.467074	110.616084
2616.892062	122.929371
2618.318397	132.976224
2619.742883	139.047552
2621.168715	139.266434
2622.591103	139.972727
2624.014837	135.448951
2625.436724	124.306294
2626.858362	126.439860
2628.278154	118.067832
2629.699292	110.659441
2631.120180	104.423776
2632.537630	108.407692
2633.958019	105.479021
2635.374971	106.331469
2636.791674	103.044755
2638.208130	98.029371
2639.624336	100.032168
2641.040295	94.782517
2642.454413	96.657343
2643.868284	108.474825
2645.280315	115.272028
2646.693691	115.069231
2648.103637	121.292308
2649.516518	132.789510
2650.925971	121.984615
2652.335178	122.665734
2653.742549	117.716084
2655.152855	105.370629
2656.561324	96.114685
2657.967958	90.415385
2659.374347	95.998601
2660.778902	97.941958
2662.184801	103.281119
2663.588867	107.443357
2664.992688	106.165734
2666.396266	111.090909
2667.798011	109.755245
2669.201100	112.502797
2670.600771	113.768531
2672.001786	112.446853
2673.399385	107.004895
2674.799914	107.214685
2676.197028	111.058042
2677.595485	106.553147
2678.992114	111.204196
2680.388501	111.793007
2681.784647	103.667133
2683.178966	112.086713
2684.574628	116.400000
2685.966880	115.682517
2687.360475	127.025874
2688.752247	123.281119
2690.145360	117.273427
2691.536650	117.873427
2692.926117	118.993706
2694.315344	113.818182
2695.704332	111.690210
2697.094662	113.194406
2698.480007	107.679021
2699.868276	113.601399
2701.254725	110.065734
2702.640935	112.181119
2704.026907	123.004895
2705.409479	120.076923
2706.793394	124.185315
2708.177071	121.555245
2709.560510	120.813986
2710.940553	114.273427
2712.321938	112.914685
2713.701507	113.527273
2715.082418	115.995105
2716.461513	116.500699
2717.838795	109.907692
2719.217418	105.521678
2720.594228	107.223776
2721.970802	104.818182
2723.347140	98.295105
2724.721666	97.578322
2726.097533	96.186713
2727.470013	92.693007
2728.845409	102.602797
2730.215845	105.788112
2731.587622	117.679021
2732.959164	114.991608
2734.328898	112.262937
2735.699973	110.370629
2737.069239	109.470629
2738.438273	110.140559
2739.805499	103.743357
2741.172493	104.155245
2742.539254	100.897203
2743.905782	98.295105
2745.270505	103.084615
2746.634997	107.413986
2747.999256	112.943357
2749.363283	123.786713
2750.727079	126.427273
2752.087501	131.665734
2753.450834	135.378322
2754.809224	139.757343
2756.170524	131.991608
2757.528453	126.319580
2758.889291	117.934266
2760.248330	106.570629
2761.604000	103.809091
2762.962578	105.053147
2764.317789	106.327273
2765.672772	106.929371
2767.025957	106.528671
2768.382049	110.487413
2769.734777	116.872727
2771.087276	116.351748
2772.439547	103.304196
2773.793157	97.185315
2775.143405	84.137063
2776.491860	79.188112
2777.843219	80.440559
2779.191219	87.541259
2780.540557	92.862937
2781.888104	89.909790
2783.235423	100.077622
2784.582516	101.923077
2785.927818	102.038462
2787.272894	102.095105
2788.617743	96.892308
2789.962367	89.279720
2791.303639	85.309790
2792.646249	91.257343
2793.988633	96.206294
2795.330793	103.004196
2796.669603	105.462238
2798.011312	102.396503
2799.349674	102.283916
2800.689373	100.451049
2802.027286	103.113986
2803.363415	110.860839
2804.699320	110.829371
2806.036563	107.846154
2807.372022	114.674126
2808.707258	118.026573
2810.040711	121.742657
2811.375502	115.558741
2812.706951	108.767832
2814.041296	98.879720
2815.370743	94.357343
2816.701527	91.055245
2818.032089	95.946154
2819.360872	89.982517
2820.690991	86.465734
2822.019332	83.057343
2823.347452	75.062937
2824.673794	72.004895
2826.001473	72.924476
2827.325818	67.411189
2828.651500	75.217483
2829.975406	77.093706
2831.299093	96.209091
2832.624115	98.199301
2833.945807	105.327273
2835.267281	101.828671
2836.588536	101.275524
2837.909572	100.029371
2839.228836	91.758741
2840.549435	81.564336
2841.868262	77.695804
2843.186871	85.279720
2844.503709	86.825874
2845.820330	86.644056
2847.136734	100.758042
2848.451368	97.467133
2849.767338	98.135664
2851.079987	99.642657
2852.393972	99.054545
2853.707739	103.355944
2855.021291	99.589510
2856.333075	100.103497
2857.643093	105.301399
2858.954446	111.404196
2860.262484	103.370629
2861.571857	103.692308
2862.881014	96.206294
2864.189956	91.103497
2865.497134	85.372028
2866.802550	79.956643
2868.109300	74.588112
2869.414287	78.734965
2870.719061	83.739860
2872.022073	93.834266
2873.327967	102.055245
2874.629005	108.791608
2875.931378	104.293007
2877.231991	99.895804
2878.533938	99.281119
2879.835672	103.968531
2881.134101	101.944755
2882.433865	107.568531
2883.731870	111.571329
2885.029664	114.260140
2886.325702	118.623077
2887.623073	114.962937
2888.918688	121.424476
2890.214092	118.332168
2891.509285	102.790210
2892.801181	98.850350
2894.095953	90.544755
2895.387428	81.764336
2896.680236	81.430769
2897.972834	84.021678
2899.262138	77.658042
2900.552774	79.387413
2901.841659	82.214685
2903.131877	81.113287
2904.418802	96.406294
2905.707061	97.896503
2906.993569	103.111189
2908.279870	101.102098
2909.565962	95.490210
2910.850306	99.353147
2912.137521	107.504196
2913.419910	109.339161
2914.703631	102.575524
2915.985606	105.120280
2917.267373	101.879720
2918.547396	105.899301
2919.830288	110.633566
2921.111435	102.992308
2922.389300	103.606294
2923.670034	101.920979
2924.947487	107.683217
2926.224734	110.141259
2927.500240	109.309790
2928.778613	104.457343
2930.052171	95.672028
2931.328597	92.291608
2932.603282	87.546853
2933.876227	90.716783
2935.150502	91.827972
2936.423038	87.132168
2937.695370	88.386014
2938.964428	99.713287
2940.236352	101.787413
2941.506538	102.423776
2942.776521	101.326573
2944.046300	103.467832
2945.314342	98.535664
2946.580649	99.341958
2947.846753	99.265035
2949.114187	106.578322
2950.379887	110.795804
2951.645384	109.106993
2952.910679	106.628671
2954.172709	107.365734
2955.436070	99.239860
2956.699228	95.708392
2957.960655	91.935664
2959.223411	86.717483
2960.484436	81.873427
2961.743729	89.193007
2963.002823	96.240559
2964.261716	100.497203
2965.520409	108.265734
2966.778902	107.360839
2968.035666	111.141259
2969.292230	110.411189
2970.547067	111.881119
2971.803232	111.288811
2973.056143	101.336364
2974.310383	98.020979
2975.564424	94.009091
2976.816739	88.630070
2978.068856	90.195804
2979.319247	82.823776
2980.572494	83.802098
2981.820964	79.413287
2983.072289	80.571329
2984.320364	81.125874
2985.568243	82.826573
2986.815924	88.253846
2988.063409	90.362937
2989.309171	87.720280
2990.554738	93.522378
2991.801632	90.255944
2993.045282	92.055245
2994.290260	84.158042
2995.531994	84.990210
2996.776580	77.646154
2998.019447	73.662238
2999.259073	71.340559
3000.501549	70.816783
3001.740786	84.770629
3002.981350	81.160140
3004.220197	74.318881
3005.458850	89.312587
3006.695787	86.000699
3007.934051	89.442657
3009.170601	93.862238
3010.406956	101.576224
3011.643118	95.325175
3012.877567	93.406993
3014.111822	92.827972
3015.345884	89.116084
3016.578234	91.489510
3017.808872	81.627273
3019.042356	83.792308
3020.274128	91.728671
3021.504190	85.150350
3022.734060	86.511189
3023.962220	93.680420
3025.191706	96.718881
3026.419484	91.589510
3027.647070	95.526573
3028.875982	94.906993
3030.100152	91.231469
3031.327165	86.830769
3032.550954	84.531469
3033.776070	88.623776
3034.999479	84.099301
3036.222698	77.376224
3037.444212	79.797203
3038.668567	80.546853
3039.888187	84.895105
3041.109133	85.948252
3042.329890	86.074126
3043.548943	88.188811
3044.769322	86.316084
3045.986484	77.568531
3047.204971	78.687413
3048.421756	87.002797
3049.638354	87.888811
3050.854763	89.396503
3052.067960	96.643357
3053.283994	97.145455
3054.496816	100.853846
3055.712475	100.741958
3056.923411	99.821678
3058.135672	108.648252
3059.347747	98.095105
3060.559635	93.376923
3061.769825	91.673427
3062.979829	89.658392
3064.189647	79.032867
3065.397770	72.591259
3066.605706	73.886014
3067.811948	67.564685
3069.019513	70.955944
3070.225384	72.738112
3071.431071	73.600699
3072.636572	85.168182
3073.840380	80.569231
3075.045512	85.761888
3076.248952	86.406294
3077.450699	92.252797
3078.652263	86.106993
3079.853642	85.414685
3081.054839	85.442657
3082.254344	79.607692
3083.453667	75.927273
3084.654313	66.281119
3085.853269	62.384615
3087.049031	64.991608
3088.247622	68.293007
3089.443019	74.620979
3090.639739	79.586713
3091.833267	92.106993
3093.029623	94.303497
3094.224293	99.123776
3095.415772	100.675524
3096.611582	91.279021
3097.802699	82.769231
3098.995138	79.019580
3100.184390	80.704196
3101.376468	81.880420
3102.566861	88.532168
3103.754069	82.183217
3104.942600	85.158042
3106.132452	93.048951
3107.319121	93.165035
3108.505610	89.353846
3109.691919	84.834965
3110.879550	73.101399
3112.064000	72.071329
3113.246769	77.541259
3114.432361	80.558042
3115.616274	79.362238
3116.798508	85.135664
3117.980563	85.532867
3119.162441	93.409091
3120.344140	97.261538
3121.524161	96.113287
3122.702506	94.453846
3123.883672	93.675524
3125.061662	87.787413
3126.239475	91.304196
3127.417111	93.741958
3128.593072	88.419580
3129.768856	84.313986
3130.945962	87.682517
3132.121393	87.280420
3133.295151	79.569930
3134.467237	79.632168
3135.640643	77.972727
3136.813874	81.253846
3137.985432	81.318182
3139.158311	78.528671
3140.328024	79.244755
3141.499056	80.366434
3142.668419	80.313986
3143.836112	78.882517
3145.006620	82.201399
3146.172469	81.332867
3147.342628	74.726573
3148.508129	79.823776
3149.673457	77.874825
3150.838611	83.542657
3152.003591	75.748951
3153.169892	72.381119
3154.331539	74.216084
3155.494506	80.032168
3156.657301	78.462937
3157.819923	72.797902
3158.980880	76.423077
3160.141664	78.006993
3161.302276	78.213287
3162.461225	80.397203
3163.620001	78.304895
3164.778606	82.181119
3165.937039	86.176224
3167.095300	77.775524
3168.251899	78.646154
3169.406837	79.332867
3170.563094	72.701399
3171.717690	71.127972
3172.872116	70.460140
3174.024882	67.779021
3175.177478	65.700699
3176.329903	64.800699
3177.482159	67.131469
3178.634244	70.881119
3179.783184	71.195804
3180.934930	62.046853
3182.085018	66.840559
3183.233450	69.412587
3184.381713	75.102098
3185.529806	77.029371
3186.677731	70.070629
3187.824001	69.807692
3188.970102	74.916783
3190.114548	75.662937
3191.258827	80.431469
3192.402938	80.529371
3193.548367	81.514685
3194.690656	82.524476
3195.832779	83.858042
3196.974734	81.269231
3198.116523	88.631469
3199.258144	86.100000
3200.396629	82.885315
3201.536432	78.032867
3202.677553	73.894406
3203.815539	70.980420
3204.951876	71.167832
3206.088047	77.588112
3207.225536	82.059441
3208.361375	82.474126
3209.498532	85.904895
3210.631076	86.348252
3211.767902	88.885315
3212.900116	87.706993
3214.033647	82.267133
3215.167014	69.852448
3216.297253	59.855245
3217.430290	57.065734
3218.560201	60.052448
3219.691428	64.937762
3220.819531	72.274825
3221.950430	79.618881
3223.079685	88.441958
3224.207297	89.909091
3225.331787	93.348252
3226.460551	103.496503
3227.586194	99.611888
3228.711675	94.907692
3229.835514	90.363636
3230.962147	88.093706
3232.084183	85.808392
3233.207535	81.047552
3234.330725	81.229371
3235.453753	77.175524
3236.575141	70.788112
3237.696368	68.583916
3238.815956	73.529371
3239.935383	75.950350
3241.053172	70.365734
3242.173754	76.650350
3243.291221	79.837063
3244.408528	78.772028
3245.525675	79.002797
3246.641186	75.202797
3247.758012	67.881119
3248.871727	65.281818
3249.988232	61.586014
3251.103103	69.345455
3252.214865	72.370629
3253.326468	71.825175
3254.439385	78.625874
3255.552144	80.481818
3256.661796	79.558741
3257.772762	78.281119
3258.883570	76.644056
3259.992747	69.999301
3261.100292	69.142657
3262.209151	71.238462
3263.317853	76.272028
3264.423452	90.183217
3265.530365	97.669231
3266.635649	101.192308
3267.742248	109.239860
3268.845746	103.551748
3269.950558	98.300000
3271.055213	96.269231
3272.156769	89.077622
3273.258170	80.227273
3274.360884	78.211888
3275.463441	71.606993
3276.562902	63.972028
3277.665147	66.050350
3278.764296	58.338462
3279.861821	53.813287
3280.959190	60.293706
3282.059342	56.027273
3283.156400	57.879021
3284.253303	67.562238
3285.350051	64.796503
3286.442241	66.015385
3287.538679	70.802098
3288.633495	76.095105
3289.728157	78.340559
3290.821197	79.855944
3291.914083	71.738462
3293.005348	72.570629
3294.097926	72.435664
3295.188883	63.650350
3296.278221	68.774126
3297.367406	67.303497
3298.457904	57.816084
3299.545317	53.901399
3300.632578	57.724476
3301.721151	63.530769
3302.809571	66.418881
3303.893444	63.813287
3304.981559	61.983916
3306.066593	69.698601
3307.150010	72.712587
3308.234740	70.567832
3309.317855	77.216084
3310.402281	74.376923
3311.483629	71.963636
3312.566289	63.500000
3313.647335	58.344056
3314.728230	53.326573
3315.807511	56.093007
3316.886643	51.424476
3317.967085	56.829371
3319.044454	68.693706
3320.123133	77.040559
3321.200202	77.888811
3322.277120	82.353846
3323.352427	84.405594
3324.427585	81.951748
3325.504054	79.380420
3326.577453	73.844056
3327.650703	71.448252
3328.725263	71.434266
3329.798215	60.461538
3330.869558	64.020280
3331.942213	63.835664
3333.011800	65.586713
3334.082698	61.144056
3335.151989	63.555944
3336.222591	63.657343
3337.291586	59.780420
3338.358975	65.929371
3339.424759	61.055245
3340.494769	63.463636
3341.561716	63.565035
3342.625601	60.912587
3343.692254	69.065734
3344.757302	70.175524
3345.820747	71.609091
3346.884046	72.183217
3347.947198	76.790909
3349.010204	71.239161
3350.073064	69.236364
3351.134322	70.657343
3352.192523	67.597203
3353.254945	66.455245
3354.314310	62.442657
3355.373530	65.741259
3356.434060	71.597203
3357.490080	75.424476
3358.548865	78.906993
3359.603142	83.755944
3360.660182	78.315385
3361.715625	76.223776
3362.772376	75.489510
3363.827529	77.148951
3364.881086	70.997203
3365.933045	60.668531
3366.987766	57.481119
3368.039438	57.948951
3369.090967	59.340559
3370.143804	64.746853
3371.193594	66.706993
3372.244693	71.776923
3373.292746	68.230070
3374.343559	70.432867
3375.391326	67.258042
3376.438951	67.466434
3377.486433	67.439161
3378.532323	63.016783
3379.579521	67.911888
3380.623677	69.206993
3381.670591	73.650350
3382.715913	83.479021
3383.758194	90.013287
3384.800335	92.912587
3385.843783	85.390210
3386.887091	76.781818
3387.928808	73.755944
3388.970384	68.320280
3390.011820	69.362238
3391.051666	64.593706
3392.089924	67.633566
3393.129491	66.951049
3394.168916	68.891608
3395.206754	74.848951
3396.243005	70.355245
3397.279117	67.563636
3398.316536	64.827273
3399.350922	61.756643
3400.386615	64.197203
3401.422169	60.235664
3402.454692	66.875524
3403.489968	70.809790
3404.522213	78.981119
3405.554320	79.911189
3406.584843	73.867133
3407.616673	71.437063
3408.648365	69.156643
3409.677030	68.848252
3410.705556	66.576923
3411.735390	65.102098
3412.765085	67.506993
3413.791755	68.662937
3414.819732	70.915385
3415.844684	74.290909
3416.872386	84.593706
3417.897065	83.155245
3418.923050	78.804895
3419.947455	79.809091
3420.971724	77.064336
3421.994414	70.327273
3423.016968	64.148951
3424.040828	61.676923
3425.061668	58.086014
3426.082373	53.225375
3427.104383	50.562363
3428.123375	51.177223
3429.142232	56.150200
3430.162394	66.561538
3431.179540	83.491484
