-118.077073	9.215934
-115.407473	2.817582
-112.740808	-1.074426
-110.074895	-2.973726
-107.411914	-3.393956
-104.747504	-2.848751
-102.086024	-1.851748
-99.423114	-1.953147
-96.765312	-0.857343
-94.106079	-5.486713
-91.447596	-7.805594
-88.792036	-7.630070
-86.135048	-6.241958
-83.483157	-4.964336
-80.829837	-2.355944
-78.179437	1.595105
-75.527607	5.556643
-72.880868	7.352448
-70.232699	8.094406
-67.585274	8.109091
-64.940762	5.746154
-62.294822	2.110490
-59.653963	2.972727
-57.011675	0.657343
-54.372295	0.948951
-51.731487	3.033566
-49.091419	0.669231
-46.456423	0.604196
-43.819999	-0.236364
-41.186477	0.352448
-38.551527	1.122378
-35.921642	2.015385
-33.288165	2.336364
-30.659750	3.729371
-28.032069	4.213986
-25.402959	0.206294
-22.778906	-12.639161
-20.151264	-70.539161
-17.528675	-209.543357
-14.906818	-148.235664
-12.285691	252.930070
-9.665294	876.881119
-7.047786	1408.132168
-4.428848	1776.788112
-1.812797	1974.011888
0.802526	2002.434266
3.417122	1865.295804
6.028835	1563.032867
8.641977	1107.032867
11.250085	533.680420
13.861775	-21.900699
16.468434	-248.196503
19.076521	-172.385315
21.683884	-22.893706
24.286222	6.397902
26.892138	3.959441
29.493032	-1.110490
32.095354	-2.303497
34.692659	-1.852448
37.293539	-0.516783
39.889405	0.601399
42.486698	0.873427
45.083272	1.617483
47.674837	2.642657
50.267830	1.646154
52.857962	1.017483
55.449522	0.031469
58.038222	-0.751049
60.628349	-1.997203
63.213478	-2.804196
65.800033	-2.303497
68.385875	-2.233566
70.968863	-1.818881
73.553277	0.295105
76.130563	1.457343
78.711415	2.453147
81.289418	0.590210
83.866711	3.553147
86.445430	3.506294
89.019168	4.030070
91.594332	0.434266
94.166653	1.053846
96.738266	3.472727
99.307039	0.481119
101.877239	2.716084
104.444601	2.533566
107.013388	0.844056
109.579339	3.088112
112.142455	4.134266
114.709127	5.620979
117.266578	5.947552
119.829714	6.852448
122.387891	8.310490
124.949621	13.979021
127.506395	23.375524
130.064596	32.244755
132.617844	51.758042
135.170393	71.734965
137.726493	97.923077
140.277646	127.330769
142.828100	158.269930
145.377857	184.614685
147.924796	206.567832
150.471038	224.148951
153.018706	235.470629
155.565678	242.734965
158.107715	244.550350
160.649058	241.990909
163.189708	242.262238
165.731784	235.718881
168.271048	230.884615
170.807504	228.262238
173.343268	228.421678
175.880458	223.372727
178.416957	222.454545
180.950650	224.354545
183.481540	224.418182
186.011741	227.036364
188.543367	227.183217
191.072192	226.542657
193.598218	227.665734
196.123558	222.789510
198.650324	220.832867
201.174292	220.199301
203.697576	215.651049
206.220175	211.659441
208.739981	211.401399
211.259104	208.816084
213.777544	206.309091
216.297408	206.704895
218.810271	207.581818
221.326665	208.231469
223.842377	211.811189
226.353199	215.527273
228.865447	216.813287
231.374911	219.709091
233.883697	221.537762
236.391805	221.525874
238.901336	219.617483
241.405987	215.949650
243.909962	212.893007
246.415362	213.404196
248.915886	214.286713
251.419933	214.874825
253.917010	216.266434
256.417609	221.038462
258.915437	222.359441
261.412592	228.976224
263.909074	235.939161
266.400693	242.756643
268.895832	253.011888
271.388205	265.194406
273.879907	280.357343
276.368845	290.905594
278.859208	289.888112
281.346808	278.257343
283.831649	295.095105
286.320005	476.648951
288.801421	927.434266
291.286351	1590.048252
293.766436	2248.116783
296.250033	2759.434266
298.728787	3064.767133
301.208965	3139.109790
303.686390	2981.286713
306.163152	2595.074126
308.639251	2030.635664
311.112601	1368.304196
313.585289	750.119580
316.057316	359.844056
318.528682	240.692308
320.997304	270.927273
323.465266	295.165734
325.934650	296.209091
328.399212	288.339161
330.867278	276.583217
333.330524	265.086713
335.793112	256.312587
338.255044	256.035664
340.716319	258.145455
343.174860	256.968531
345.634823	256.388112
348.092053	253.164336
350.548629	251.467133
353.004551	249.400000
355.457744	248.665734
357.912358	246.269231
360.362171	244.237063
362.815480	241.935664
365.263991	239.856643
367.711851	235.581119
370.161132	232.744056
372.605620	227.976923
375.051530	225.374126
377.496791	224.653147
379.939332	225.133566
382.381226	221.937762
384.822473	218.280420
387.261004	212.747552
389.700957	212.931469
392.138196	211.086014
394.572723	205.686713
397.010738	203.197203
399.443976	203.292308
401.878636	203.094406
404.308522	208.673427
406.741894	213.037063
409.170496	215.297203
411.598457	212.679021
414.027838	211.458042
416.452454	210.573427
418.878492	213.808392
421.303889	213.956643
423.728646	213.373427
426.148645	215.145455
428.570065	216.742657
430.988788	219.492308
433.408932	222.369231
435.826381	223.602797
438.245250	224.228671
440.661426	223.973427
443.072855	225.217483
445.487760	224.149650
447.899975	222.862238
450.311556	224.555245
452.722503	224.428671
455.130764	225.555944
457.538392	223.656643
459.945389	223.032867
462.351753	221.334266
464.755435	221.784615
467.158487	222.693706
469.560909	218.957343
471.962701	219.195105
474.361816	217.286014
476.762350	218.234965
479.162255	217.748252
481.557437	215.127273
483.956086	214.009790
486.350015	208.718881
488.743318	206.286713
491.135995	200.804895
493.528047	191.987413
495.921517	187.151748
498.310276	182.536364
500.696368	179.690210
503.083879	174.035664
505.470768	170.748951
507.854993	163.820979
510.240637	159.438462
512.623618	159.383217
515.003939	157.011888
517.385679	155.561538
519.764760	149.288811
522.145260	145.887413
524.523102	145.722378
526.898289	146.463636
529.272858	145.690210
531.648846	146.940559
534.022180	149.727972
536.396932	150.942657
538.766999	155.674126
541.136450	161.644755
543.507319	163.058042
545.873508	164.180420
548.241115	163.441259
550.606076	165.415385
552.970424	166.746154
555.334160	165.713287
557.699312	168.525874
560.059793	171.893007
562.421692	173.857343
564.780950	175.726573
567.137571	179.462238
569.497636	180.216783
571.851011	178.438462
574.207830	176.689510
576.562013	175.353846
578.915589	173.713287
581.268556	171.787413
583.618892	166.776224
585.970644	164.046154
588.315720	160.063636
590.666260	155.241259
593.010126	151.758741
595.359454	146.988112
597.704134	141.041958
600.046188	136.020280
602.389660	129.712587
604.730509	124.732168
607.070756	119.653846
609.408382	114.307692
611.749443	107.544056
614.085866	101.832168
616.423706	97.311189
618.758929	94.742657
621.091536	96.513287
623.425559	97.890909
625.756969	102.126573
628.087780	105.772028
630.417993	107.453846
632.747608	110.179021
635.072601	109.583217
637.403035	108.044755
639.728847	104.140559
642.052053	101.479021
644.376674	100.502797
646.698690	99.155245
649.020113	100.683217
651.338932	98.569231
653.659167	101.521678
655.978809	100.771329
658.295850	100.716084
660.612299	101.130769
662.926150	99.515385
665.241417	99.228671
667.554087	99.599301
669.868172	97.552448
672.177657	99.213986
674.488558	97.249650
676.796866	94.762937
679.104586	92.800000
681.413721	95.807692
683.718263	95.080420
686.022218	94.639161
688.325588	96.583916
690.630372	98.283217
692.930570	100.217483
695.232182	101.260839
697.533210	100.706993
699.829655	101.471329
702.127516	98.830070
704.424793	96.871329
706.721487	95.418182
709.013605	95.938462
711.309134	96.112587
713.600090	95.923077
715.892460	97.410490
718.182254	99.302098
720.471468	97.939161
722.760103	95.781119
725.046166	97.345455
727.333642	97.018881
729.618547	98.387413
731.902875	101.818182
734.184634	100.165035
736.467807	101.751049
738.750403	101.558042
741.028444	102.612587
743.307898	102.628671
745.586777	101.965035
747.865080	99.528671
750.138834	99.239860
752.414002	98.776224
754.688596	98.874825
756.960630	99.082517
759.234078	99.961538
761.504968	95.479021
763.773302	97.790210
766.043049	97.786713
768.310242	97.529371
770.576864	99.039860
772.842916	101.553846
775.106417	104.060140
777.371331	110.422378
779.635675	111.273427
781.895490	113.907692
784.156717	112.020280
786.417377	111.289510
788.675491	105.099301
790.931060	104.180420
793.190020	98.785315
795.442481	92.791608
797.700309	91.362238
799.953617	90.316084
802.204386	90.813986
804.456567	97.513986
806.706210	100.000699
808.957264	103.487413
811.203807	105.039161
813.451762	106.980420
815.697183	104.342657
817.944015	107.766434
820.190286	103.106993
822.432053	96.679021
824.677202	94.245455
826.915879	90.171329
829.157938	90.562937
831.395499	88.462937
833.634472	88.016084
835.870918	88.488811
838.108775	87.994406
840.344107	90.639860
842.576916	91.680420
844.811136	98.766434
847.042834	95.867133
849.273976	94.979720
851.504565	98.253147
853.734598	100.488811
855.964078	102.922378
858.189076	99.863636
860.417449	97.705594
862.641343	95.052448
864.866647	93.891608
867.087476	92.676923
869.311677	90.855245
871.531405	94.846853
873.752544	93.996503
875.973132	94.911888
878.191210	97.806993
880.410698	101.873427
882.625720	98.202797
884.840195	94.854545
887.054121	94.243357
889.267501	93.958042
891.480333	92.046154
893.692619	86.634965
895.902402	82.659441
898.111640	83.180420
900.320333	81.033566
902.526527	82.039860
904.734130	87.292308
906.939235	89.774126
909.143797	89.258741
911.345864	91.318881
913.549340	93.481119
915.750322	95.832867
917.950763	96.356643
920.152611	99.236364
922.348069	98.634266
924.546886	98.534965
926.741264	97.858042
928.939000	100.791608
931.132300	99.348252
933.327009	92.160839
935.519232	88.744755
937.710917	87.772028
939.902064	88.383217
942.090728	95.317483
944.278855	99.105594
946.464502	105.283916
948.653501	102.566434
950.838077	104.942657
953.022118	105.765035
955.209509	108.779720
957.388596	99.922378
959.571034	96.934266
961.752938	95.982517
963.932368	98.168531
966.109324	97.713287
968.287689	98.177622
970.467461	100.121678
972.640884	100.410490
974.817653	102.105594
976.990015	109.157343
979.163785	113.052448
981.333151	114.565734
983.505861	114.901399
985.676106	118.311888
987.845822	115.398601
990.015009	111.530769
992.179799	102.318182
994.347930	101.847552
996.511667	99.211189
998.676810	96.044056
1000.839495	99.752448
1003.001653	108.677622
1005.161355	103.992308
1007.320533	104.980420
1009.481117	111.335664
1011.639246	120.247552
1013.796851	123.510490
1015.953933	123.176923
1018.110492	121.290210
1020.262671	130.434266
1022.416256	134.199301
1024.569320	137.558741
1026.719936	139.674126
1028.871957	145.011189
1031.019605	136.193007
1033.170585	139.620280
1035.317194	126.551748
1037.463285	118.718881
1039.608856	114.093007
1041.755833	106.425175
1043.896521	108.625874
1046.040539	114.786014
1048.182116	118.172028
1050.323177	114.863636
1052.465642	126.586014
1054.601828	149.072727
1056.741340	151.272028
1058.876496	151.055245
1061.014977	137.457343
1063.149104	137.611888
1065.282718	141.340559
1067.417737	129.811888
1069.548406	132.302098
1071.680480	133.941259
1073.810125	127.533566
1075.939258	123.474825
1078.067879	131.009091
1080.195989	131.886014
1082.321673	125.161538
1084.446847	119.337063
1086.573425	123.745455
1088.695666	122.546154
1090.819310	111.355944
1092.938621	106.856643
1095.063160	108.034965
1097.181454	103.483916
1099.301153	100.808392
1101.418433	101.139860
1103.535207	100.583217
1105.651474	105.115385
1107.765326	110.511888
1109.880581	115.759441
1111.991513	130.258741
1114.105758	127.035664
1116.215682	125.150350
1118.327010	120.281818
1120.437833	110.802797
1122.544340	104.712587
1124.654157	108.002098
1126.759659	110.718881
1128.866564	105.418182
1130.967254	105.305594
1133.073156	99.705594
1135.174749	98.770629
1137.277745	96.295804
1139.380240	88.501399
1141.476528	88.409091
1143.578024	81.939161
1145.675216	89.104196
1147.771911	92.409790
1149.868107	95.257343
1151.963806	101.280420
1154.059006	94.598601
1156.151811	97.739860
1158.246017	94.684615
1160.334032	89.865035
1162.427245	87.182517
1164.514270	90.281818
1166.604594	99.782517
1168.690631	102.913287
1170.779965	108.447552
1172.863118	101.194406
1174.947673	99.557343
1177.033630	101.209790
1179.115305	98.971329
1181.198382	102.994406
1183.279073	96.497902
1185.359272	100.861538
1187.438980	107.196503
1189.518197	116.166434
1191.595032	120.208392
1193.669486	116.511189
1195.747231	111.509790
1197.820707	100.668531
1199.895583	97.460140
1201.966192	92.225175
1204.038203	94.728671
1206.107837	95.209091
1208.178872	92.631469
1210.249419	99.372028
1212.315705	100.418182
1214.383392	100.539161
1216.448707	100.306993
1218.515422	96.880420
1220.577881	97.147552
1222.643625	92.425175
1224.705116	89.189510
1226.768006	91.493007
1228.828529	93.960839
1230.888568	89.730769
1232.948125	89.181119
1235.005316	91.511888
1237.062026	98.106294
1239.116373	100.151049
1241.174000	104.052448
1243.229265	100.579021
1245.280289	99.716783
1247.332713	97.263636
1249.384657	99.815385
1251.434243	96.902797
1253.483350	86.711189
1255.531979	82.279720
1257.580129	80.304196
1259.627800	87.770629
1261.671242	93.649650
1263.717958	97.074825
1265.762321	99.956643
1267.806208	98.809091
1269.847743	99.499301
1271.886929	103.486713
1273.929388	106.945455
1275.967624	97.695105
1278.007259	93.609790
1280.046419	85.444755
1282.081360	79.486014
1284.117700	78.940559
1286.151696	77.483217
1288.187090	80.248951
1290.218270	81.593706
1292.250848	84.681119
1294.282955	87.139860
1296.312721	92.413986
1298.343885	97.586014
1300.370841	95.983217
1302.399195	96.882517
1304.423345	94.470629
1306.450759	96.255245
1308.473971	94.518881
1310.498581	97.148252
1312.520857	98.391608
1314.544530	96.901399
1316.565870	97.064336
1318.586742	95.530769
1320.607147	97.668531
1322.623359	100.223776
1324.640968	100.770629
1326.656249	101.937762
1328.674789	103.027273
1330.689140	100.981119
1332.701165	102.235664
1334.716447	107.211189
1336.727544	102.244056
1338.740038	99.246154
1340.748349	97.706993
1342.759916	94.036364
1344.765443	91.686713
1346.774226	87.832168
1348.778831	91.920979
1350.786690	91.876224
1352.794087	89.773427
1354.795453	86.971329
1356.798216	92.734965
1358.800518	93.683217
1360.802361	93.323077
1362.803744	97.610490
1364.802814	95.948951
1366.801425	99.244755
1368.799578	99.125175
1370.797272	100.918182
1372.790804	107.283217
1374.785732	107.484615
1376.780202	107.520280
1378.774217	104.588112
1380.765923	106.953846
1382.757175	106.051049
1384.746121	106.425874
1386.736462	102.767133
1388.726348	96.398601
1390.713931	98.188112
1392.701059	93.386713
1394.685886	90.488811
1396.672108	88.791608
1398.656030	92.023776
1400.639499	93.723077
1402.622515	94.472028
1404.603234	99.302797
1406.585347	98.802797
1408.565164	100.702098
1410.544529	100.332867
1412.519756	95.591608
1414.498222	97.587413
1416.474393	92.548951
1418.450116	89.163636
1420.425389	85.697203
1422.398371	88.955245
1424.370905	87.319580
1426.342992	86.560140
1428.314630	82.633566
1430.282140	83.041259
1432.254724	87.690210
1434.219503	91.576224
1436.189353	88.230769
1438.155080	89.722378
1440.122199	88.620280
1442.087035	88.316783
1444.047751	89.274825
1446.013536	90.014685
1447.973365	87.279021
1449.934587	84.464336
1451.897202	83.992308
1453.855702	88.276224
1455.813759	91.393007
1457.771375	92.689510
1459.728549	91.666434
1461.683447	95.604196
1463.639737	97.011888
1465.593753	97.063636
1467.547329	101.484615
1469.498632	101.980420
1471.451327	100.541259
1473.401751	99.061538
1475.351735	96.955245
1477.301281	92.425175
1479.248558	90.916783
1481.193568	84.770629
1483.139969	85.534965
1485.085933	83.606294
1487.031460	79.502098
1488.974722	74.002797
1490.917547	78.279720
1492.858109	81.676224
1494.800062	80.085315
1496.739753	84.934266
1498.679010	83.956643
1500.617831	85.034266
1502.554393	87.158042
1504.492346	84.984615
1506.428040	85.172727
1508.363301	88.127273
1510.296306	86.776923
1512.228878	88.828671
1514.161018	91.852448
1516.092726	92.171329
1518.022180	89.369231
1519.953025	91.064336
1521.883438	93.779720
1523.809779	95.735664
1525.737511	96.509790
1527.662992	97.479720
1529.588044	96.458741
1531.512667	101.589510
1533.436861	98.590909
1535.358807	97.281818
1537.282144	90.774825
1539.203235	85.146853
1541.122081	82.732168
1543.042316	84.663636
1544.960309	88.285315
1546.877875	91.116084
1548.793199	93.325874
1550.709913	100.395804
1552.622572	104.965734
1554.538435	111.193007
1556.452058	110.452448
1558.363444	106.874126
1560.276218	107.856643
1562.184943	102.256643
1564.095058	101.973427
1566.004748	100.669930
1567.914016	98.609091
1569.821050	92.933566
1571.725851	97.174825
1573.632041	104.181818
1575.535999	106.372727
1577.439537	108.165734
1579.342653	104.148951
1581.243540	103.915385
1583.145816	100.548252
1585.045864	100.506993
1586.947299	105.535664
1588.844701	110.637063
1590.741684	108.251049
1592.638249	102.969231
1594.536202	108.301399
1596.428320	103.881119
1598.323631	97.186713
1600.218525	95.113986
1602.111197	91.838462
1604.003453	94.313287
1605.893488	87.064336
1607.783109	94.817483
1609.672313	94.860140
1611.561103	99.399301
1613.447675	95.565035
1615.335635	93.525175
1617.219578	95.579021
1619.104909	104.381119
1620.989825	112.734965
1622.872528	117.528671
1624.756618	121.789510
1626.636697	122.920280
1628.518162	116.887413
1630.397417	115.779720
1632.278058	107.309091
1634.152895	103.797203
1636.032714	99.163636
1637.908527	95.134965
1639.783930	102.372727
1641.660719	108.146853
1643.531712	114.688811
1645.405886	118.644056
1647.276062	120.501399
1649.149418	121.804196
1651.020571	119.008392
1652.889522	115.533566
1654.759859	109.137762
1656.626202	110.381119
1658.493931	111.976923
1660.359461	111.574126
1662.226377	111.186014
1664.089304	102.458741
1665.953616	106.801399
1667.815732	96.302797
1669.677444	90.122378
1671.540540	89.400000
1673.401442	84.144056
1675.260150	74.522378
1677.118455	71.589510
1678.978145	80.160140
1680.832068	91.894406
1682.689163	98.262937
1684.545856	109.658741
1686.398573	117.404196
1688.254460	119.625874
1690.106374	110.567133
1691.957887	105.887413
1693.808999	97.118881
1695.659711	89.494406
1697.510022	80.830070
1699.358148	80.268531
1701.207659	87.900699
1703.051421	95.287413
1704.900132	94.480420
1706.743098	102.197902
1708.589229	104.302797
1710.431399	99.848252
1712.276733	100.213986
1714.116327	100.424476
1715.957305	102.786014
1717.799666	114.423077
1719.638071	114.701399
1721.477859	107.278322
1723.315472	102.621678
1725.152689	92.347552
1726.987733	76.993706
1728.824160	71.888811
1730.658415	63.995105
1732.492275	59.803497
1734.325742	68.862238
1736.155262	86.234965
1737.987941	102.419580
1739.816676	111.461538
1741.648568	108.762937
1743.476519	108.892308
1745.304077	107.139161
1747.131243	109.192308
1748.958018	98.763636
1750.784402	93.707692
1752.606848	80.007692
1754.432450	72.506294
1756.254117	70.737762
1758.077166	85.182517
1759.898053	92.769231
1761.718552	88.241958
1763.540432	99.300699
1765.356612	108.510490
1767.175944	106.493007
1768.991349	105.587413
1770.809904	104.804196
1772.624534	112.465734
1774.438778	108.430769
1776.252634	106.705594
1778.066104	108.270629
1779.877421	115.571329
1781.690119	114.188112
1783.502430	105.574825
1785.310824	106.683217
1787.120598	105.700699
1788.926458	96.812587
1790.735463	95.989510
1792.540555	93.752448
1794.347028	92.730070
1796.153117	91.544755
1797.955296	81.633566
1799.760618	90.731469
1801.562032	92.916783
1803.364826	94.389510
1805.163714	90.935664
1806.963983	91.681818
1808.763870	100.381818
1810.561616	101.745455
1812.358980	104.130769
1814.155965	94.604196
1815.952569	95.105594
1817.747034	99.516783
1819.542878	89.933566
1821.333068	105.151049
1823.128153	105.989510
1824.917587	108.808392
1826.710157	107.065035
1828.500592	108.251748
1830.288893	112.513287
1832.080329	116.725874
1833.866119	110.951049
1835.653289	100.011189
1837.438327	94.959441
1839.226499	94.232168
1841.010785	80.419580
1842.792942	77.967133
1844.576477	75.794406
1846.357884	76.984615
1848.140670	70.518182
1849.919575	72.079720
1851.699860	77.737063
1853.478018	82.496503
1855.257555	81.958741
1857.034967	84.393007
1858.810255	87.090210
1860.586922	91.978322
1862.361465	79.146853
1864.137387	75.946154
1865.907688	76.179720
1867.681117	71.571329
1869.452426	68.622378
1871.223365	66.774126
1872.995680	78.116084
1874.762382	86.725874
1876.532210	89.615385
1878.298174	94.313287
1880.067262	100.124476
1881.832488	100.611888
1883.597345	92.527273
1885.363580	94.386014
1887.125956	95.539860
1888.887965	95.678322
1890.649606	88.697902
1892.410881	90.683217
1894.171788	96.846853
1895.932329	100.134266
1897.690760	92.273427
1899.448826	94.023776
1901.204783	102.002797
1902.962117	98.206993
1904.719086	93.544056
1906.473949	89.393706
1908.226706	89.315385
1909.979100	86.306294
1911.732869	74.389510
1913.484535	85.420979
1915.234099	90.407692
1916.985038	89.006993
1918.735615	87.755245
1920.482352	97.171329
1922.230466	103.773427
1923.976480	104.283916
1925.723870	97.216084
1927.469161	96.448951
1929.212355	93.155245
1930.956924	90.439860
1932.699398	87.961538
1934.441511	94.327273
1936.183264	93.481119
1937.924658	86.722378
1939.663957	91.886713
1941.402898	98.060839
1943.141481	103.416783
1944.877971	104.041259
1946.614104	101.562937
1948.351611	104.352448
1950.085296	97.587413
1951.820356	102.442657
1953.553328	104.740559
1955.285942	102.273427
1957.018201	102.572028
1958.750103	97.639161
1960.479919	97.669930
1962.207650	94.088112
1963.936756	88.454545
1965.665507	79.034965
1967.392174	76.902098
1969.118487	75.653147
1970.846173	76.540559
1972.568323	79.637762
1974.293574	82.115385
1976.015019	82.981818
1977.739563	88.674126
1979.462028	87.846853
1981.180689	92.750350
1982.902449	90.386713
1984.620407	90.776224
1986.339738	99.499301
1988.055270	105.744755
1989.775622	111.075524
1991.492176	108.361538
1993.204933	107.116783
1994.920787	101.834266
1996.634567	96.534965
1998.347998	89.397902
2000.059358	82.577622
2001.772090	76.952448
2003.481032	74.514685
2005.193067	78.959441
2006.899592	84.514685
2008.609210	89.723776
2010.316760	93.634965
2012.023963	97.768531
2013.729100	101.350350
2015.433890	103.285315
2017.140052	101.593007
2018.842432	98.975524
2020.546184	97.974126
2022.247872	96.104196
2023.949216	97.077622
2025.650214	96.081119
2027.349151	94.685315
2029.049460	96.950350
2030.745994	93.384615
2032.443899	92.646853
2034.139745	89.023776
2035.838677	91.784615
2037.532123	88.376923
2039.226940	82.174126
2040.921415	80.954545
2042.612121	81.580420
2044.305911	79.064336
2045.995934	83.509790
2047.687328	84.930070
2049.376669	88.160140
2051.067380	88.002797
2052.754328	92.767832
2054.440937	95.153147
2056.128916	97.269930
2057.813135	96.576923
2059.498724	88.893007
2061.183974	83.925874
2062.867176	78.754545
2064.551747	74.179720
2066.230856	81.460140
2067.914750	79.822378
2069.593184	87.211888
2071.274694	90.263636
2072.952454	91.239161
2074.629876	90.837762
2076.308668	96.086014
2077.985418	99.631469
2079.660126	97.087413
2081.336203	94.658042
2083.010240	95.113287
2084.683941	99.829371
2086.357307	104.918182
2088.028635	99.968531
2089.699628	102.942657
2091.370287	98.002797
2093.040611	87.937063
2094.710602	85.927972
2096.378557	83.072727
2098.046179	84.593007
2099.711766	84.295105
2101.378723	85.875524
2103.043645	88.612587
2104.708236	92.750350
2106.370795	96.033566
2108.034722	95.940559
2109.696619	100.966434
2111.358184	101.027273
2113.019418	97.325874
2114.678624	97.074825
2116.337499	94.743357
2117.996045	97.570629
2119.654261	94.358741
2121.308753	91.459441
2122.966310	86.819580
2124.623538	87.420280
2126.277044	88.082517
2127.931918	84.900000
2129.583074	85.916783
2131.237291	84.856643
2132.887792	79.590210
2134.539659	77.204196
2136.186118	77.241259
2137.837332	88.762238
2139.484832	95.511888
2141.133699	92.579720
2142.780548	93.337063
2144.427070	96.274825
2146.073267	96.884615
2147.715756	96.305594
2149.361303	98.260839
2151.003143	100.360140
2152.648040	91.962238
2154.289232	93.363636
2155.930100	91.850350
2157.570644	99.479720
2159.209176	100.001399
2160.849074	96.570629
2162.485272	101.079021
2164.122837	103.567133
2165.760078	103.948252
2167.395310	103.548951
2169.030221	108.455245
2170.664810	106.518182
2172.299077	97.117483
2173.929651	98.786014
2175.563277	93.269930
2177.193211	96.974825
2178.824510	104.110490
2180.453804	101.649650
2182.082779	105.025175
2183.711434	107.065035
2185.339770	98.544056
2186.966104	91.440559
2188.592119	85.258042
2190.216133	73.930769
2191.841511	71.266434
2193.464890	69.499301
2195.089632	72.128671
2196.710694	77.289510
2198.331439	81.522378
2199.953549	79.423077
2201.573661	91.446154
2203.191776	96.581818
2204.809576	92.474126
2206.427061	96.251049
2208.044230	92.895804
2209.661084	92.555944
2211.277623	96.930769
2212.892168	96.703497
2214.504721	98.005594
2216.118638	95.000699
2217.730564	90.020979
2219.343853	87.318182
2220.955152	87.853846
2222.564461	82.246154
2224.175134	79.822378
2225.783818	80.564336
2227.392190	76.070629
2228.998574	74.378322
2230.606322	73.555944
2232.212083	79.795105
2233.817533	82.639860
2235.420998	84.418881
2237.025826	91.290909
2238.628670	93.754545
2240.229532	92.599301
2241.831755	92.390909
2243.431997	92.744755
2245.033601	86.106993
2246.631553	80.439161
2248.230867	75.830070
2249.828201	79.597902
2251.425226	83.839161
2253.023614	85.625175
2254.618353	87.270629
2256.211115	92.892308
2257.805240	96.000000
2259.400726	98.129371
2260.992568	97.142657
2262.584103	86.529371
2264.176999	84.353147
2265.764586	80.254545
2267.356870	79.281119
2268.943846	76.612587
2270.533851	72.813986
2272.118551	78.509790
2273.707944	81.703497
2275.292036	93.216783
2276.877489	112.371329
2278.460972	115.886713
2280.047482	116.179021
2281.630358	115.908392
2283.212930	121.711538
2284.795199	116.004196
2286.373839	107.566084
2287.955502	98.834266
2289.533537	92.834615
2291.114595	84.848951
2292.692026	81.872378
2294.267494	88.025175
2295.845984	87.801049
2297.420850	83.771329
2298.995415	89.251399
2300.569680	86.370629
2302.143644	87.313636
2303.717308	86.146154
2305.290671	78.769231
2306.860416	77.028671
2308.429862	75.699301
2310.002326	75.903497
2311.569516	73.669930
2313.139724	80.005594
2314.706317	77.626573
2316.274270	83.626573
2317.840267	89.037762
2319.405967	90.316084
2320.971370	95.311189
2322.534818	97.586713
2324.099626	98.109091
2325.660826	102.458741
2327.225040	101.146154
2328.783992	95.046154
2330.345959	89.619580
2331.905975	84.583916
2333.465695	75.727273
2335.023466	72.896503
2336.580942	71.587413
2338.138124	79.569930
2339.693358	92.846154
2341.248299	103.318881
2342.802946	100.316783
2344.357299	101.124476
2345.911358	98.698601
2347.465123	93.186014
2349.016945	82.889510
2350.566823	71.398601
2352.119709	69.718881
2353.667353	60.121678
2355.218004	68.982517
2356.765064	76.427273
2358.313483	88.173427
2359.861609	89.976923
2361.406147	86.324476
2362.952043	99.939860
2364.496001	104.446154
2366.041316	110.918881
2367.583046	111.574825
2369.126133	118.679720
2370.667285	126.488811
2372.208147	115.395105
2373.748719	121.198601
2375.289003	102.039161
2376.828998	96.358042
2378.365415	87.062937
2379.904833	82.432867
2381.440674	89.858042
2382.977871	90.074126
2384.511493	91.993706
2386.048116	89.181818
2387.582807	91.551049
2389.115569	92.996503
2390.648044	88.347552
2392.178591	92.328671
2393.712136	83.612587
2395.240470	92.479021
2396.770161	96.012587
2398.299566	90.477622
2399.828685	85.067133
2401.357520	87.618182
2402.881149	81.572028
2404.409415	77.101399
2405.932477	80.441259
2407.460173	79.808392
2408.981030	79.776923
2410.506520	80.604895
2412.028449	93.400000
2413.551734	98.228671
2415.073098	98.035664
2416.592542	89.819580
2418.113341	92.833566
2419.632221	98.695804
2421.150819	92.748252
2422.667500	88.222378
2424.185535	85.407692
2425.703289	76.313287
2427.217492	69.270629
2428.731414	72.718881
2430.245056	78.885315
2431.760053	65.326573
2433.271501	67.929371
2434.784304	69.039161
2436.295193	73.160140
2437.805804	76.413287
2439.314503	74.533566
2440.826188	76.507692
2442.334330	75.395804
2443.842194	78.173427
2445.349780	88.391608
2446.853825	100.914685
2448.360856	96.994406
2449.865978	98.641958
2451.370823	114.151748
2452.873760	113.773427
2454.376422	104.441958
2455.878807	105.528671
2457.379287	94.910490
2458.881120	87.779021
2460.381049	78.564336
2461.880702	77.460839
2463.380079	78.149650
2464.877554	88.523077
2466.373127	88.810490
2467.871680	93.600000
2469.366705	101.184615
2470.863082	98.507692
2472.355933	95.241259
2473.850137	98.309790
2475.344067	91.410490
2476.834473	84.367133
2478.327857	75.609790
2479.819343	75.951049
2481.308932	80.043357
2482.798249	89.356643
2484.285671	86.431469
2485.776068	77.927273
2487.262946	84.949650
2488.751176	92.590909
2490.235890	93.386014
2491.720333	92.503497
2493.206128	92.888811
2494.690030	92.596503
2496.175284	84.258741
2497.655403	84.930769
2499.138496	81.016783
2500.619698	75.637762
2502.100631	67.878322
2503.579675	62.997902
2505.058450	71.856643
2506.536957	68.319580
2508.015196	72.750350
2509.493166	73.006993
2510.967632	73.372727
2512.445066	77.153147
2513.918997	79.223077
2515.394278	79.643357
2516.869293	70.259441
2518.340806	74.191608
2519.813669	77.560839
2521.284650	87.271329
2522.756981	88.520280
2524.224199	80.356643
2525.694382	87.004196
2527.162685	80.913986
2528.630723	85.517483
2530.098496	90.100699
2531.566004	94.901399
2533.033247	88.776224
2534.496998	85.245455
2535.962099	83.726573
2537.425323	87.434266
2538.889897	93.589510
2540.350981	89.458741
2541.813415	88.006294
2543.275586	96.448951
2544.734271	97.858741
2546.197528	111.214685
2547.655688	112.944755
2549.115197	106.349650
2550.569613	102.748951
2552.028598	100.760839
2553.485712	86.484615
2554.940955	85.895105
2556.395937	78.966434
2557.849049	68.524476
2559.303510	61.459441
2560.756102	67.783217
2562.208434	79.075524
2563.658898	86.497902
2565.112318	77.793007
2566.560656	80.985315
2568.011950	90.523077
2569.461377	98.465035
2570.907332	103.426573
2572.356242	101.294406
2573.801682	98.837762
2575.248470	94.523776
2576.693394	95.916084
2578.138060	89.426573
2579.584075	90.346154
2581.026622	80.044755
2582.470517	70.074126
2583.910947	76.428671
2585.352724	79.160140
2586.792642	87.190909
2588.233907	86.697902
2589.671711	78.874825
2591.112464	85.286014
2592.548154	85.984615
2593.986794	81.241958
2595.423576	74.000699
2596.858503	78.167832
2598.296377	74.606294
2599.729194	64.974825
2601.163358	66.706993
2602.595668	72.204895
2604.029324	73.106993
2605.461127	68.898601
2606.892676	71.182517
2608.323973	77.392308
2609.753417	84.453147
2611.182609	85.097902
2612.609951	92.295105
2614.038638	90.668531
2615.467074	91.658741
2616.892062	93.151748
2618.318397	99.585315
2619.742883	104.000699
2621.168715	101.983217
2622.591103	92.006993
2624.014837	90.053147
2625.436724	91.055245
2626.858362	93.208392
2628.278154	84.194406
2629.699292	77.372727
2631.120180	78.617483
2632.537630	80.332168
2633.958019	83.117483
2635.374971	78.946154
2636.791674	68.892308
2638.208130	66.356643
2639.624336	59.913287
2641.040295	63.030070
2642.454413	65.872028
2643.868284	66.809091
2645.280315	60.160839
2646.693691	53.384615
2648.103637	63.656643
2649.516518	61.726573
2650.925971	60.927972
2652.335178	63.368531
2653.742549	63.606294
2655.152855	71.011888
2656.561324	68.174126
2657.967958	65.987413
2659.374347	68.190210
2660.778902	75.800000
2662.184801	71.779720
2663.588867	68.341958
2664.992688	76.960140
2666.396266	77.679720
2667.798011	79.276224
2669.201100	84.006993
2670.600771	83.374126
2672.001786	77.746154
2673.399385	71.723776
2674.799914	66.789510
2676.197028	66.202098
2677.595485	63.631469
2678.992114	60.047552
2680.388501	55.028671
2681.784647	62.618881
2683.178966	71.956643
2684.574628	76.008392
2685.966880	80.653147
2687.360475	82.697902
2688.752247	84.897203
2690.145360	86.491608
2691.536650	88.526573
2692.926117	87.392308
2694.315344	77.792308
2695.704332	71.708392
2697.094662	56.646853
2698.480007	59.818182
2699.868276	57.318182
2701.254725	49.371329
2702.640935	46.534266
2704.026907	41.172727
2705.409479	54.423776
2706.793394	64.437762
2708.177071	80.851748
2709.560510	91.583916
2710.940553	98.618182
2712.321938	104.827972
2713.701507	101.843357
2715.082418	107.462238
2716.461513	100.618881
2717.838795	91.538462
2719.217418	84.227273
2720.594228	74.167133
2721.970802	70.693007
2723.347140	69.588811
2724.721666	71.938462
2726.097533	69.798601
2727.470013	70.071329
2728.845409	66.825874
2730.215845	69.309091
2731.587622	73.295105
2732.959164	78.246154
2734.328898	86.650350
2735.699973	89.100000
2737.069239	91.377622
2738.438273	88.455245
2739.805499	92.790909
2741.172493	94.244755
2742.539254	88.577622
2743.905782	89.294406
2745.270505	91.297203
2746.634997	92.734965
2747.999256	84.864336
2749.363283	88.455944
2750.727079	89.254545
2752.087501	83.702797
2753.450834	81.913986
2754.809224	82.355944
2756.170524	78.751748
2757.528453	78.226573
2758.889291	75.821678
2760.248330	85.331469
2761.604000	85.223776
2762.962578	76.354545
2764.317789	65.018182
2765.672772	65.306993
2767.025957	65.258741
2768.382049	61.947552
2769.734777	58.072727
2771.087276	60.394406
2772.439547	57.786713
2773.793157	62.264336
2775.143405	67.887413
2776.491860	64.880420
2777.843219	65.941958
2779.191219	68.039860
2780.540557	71.185315
2781.888104	75.645455
2783.235423	80.926573
2784.582516	77.183916
2785.927818	72.804196
2787.272894	78.172727
2788.617743	80.900699
2789.962367	79.541958
2791.303639	80.772028
2792.646249	77.523077
2793.988633	72.633566
2795.330793	73.118182
2796.669603	66.378322
2798.011312	63.739161
2799.349674	68.873427
2800.689373	59.216783
2802.027286	61.430769
2803.363415	64.629371
2804.699320	69.832867
2806.036563	69.090909
2807.372022	76.844056
2808.707258	70.639161
2810.040711	61.811189
2811.375502	66.587413
2812.706951	58.848951
2814.041296	69.152448
2815.370743	66.576923
2816.701527	59.286713
2818.032089	57.245455
2819.360872	57.597902
2820.690991	62.451049
2822.019332	70.806993
2823.347452	75.127972
2824.673794	80.334965
2826.001473	86.804895
2827.325818	97.873427
2828.651500	90.707692
2829.975406	90.698601
2831.299093	80.399301
2832.624115	79.294406
2833.945807	63.010490
2835.267281	61.420979
2836.588536	61.346154
2837.909572	71.218881
2839.228836	67.910490
2840.549435	71.300000
2841.868262	72.902098
2843.186871	88.455944
2844.503709	78.081818
2845.820330	76.390210
2847.136734	80.151748
2848.451368	81.520280
2849.767338	73.167133
2851.079987	74.341958
2852.393972	75.397203
2853.707739	73.696503
2855.021291	65.972727
2856.333075	66.725874
2857.643093	77.683217
2858.954446	90.956643
2860.262484	87.370629
2861.571857	86.655245
2862.881014	84.669930
2864.189956	82.210490
2865.497134	76.483916
2866.802550	75.766434
2868.109300	72.089510
2869.414287	64.190210
2870.719061	55.621678
2872.022073	60.865734
2873.327967	66.097902
2874.629005	69.464336
2875.931378	67.074825
2877.231991	61.232867
2878.533938	63.934965
2879.835672	70.834965
2881.134101	65.198601
2882.433865	59.214685
2883.731870	57.500699
2885.029664	58.239161
2886.325702	56.144755
2887.623073	62.779720
2888.918688	63.132867
2890.214092	65.724476
2891.509285	67.015385
2892.801181	70.055245
2894.095953	76.930769
2895.387428	68.889510
2896.680236	55.446853
2897.972834	44.400000
2899.262138	45.586713
2900.552774	47.047552
2901.841659	51.352448
2903.131877	56.357343
2904.418802	61.986713
2905.707061	60.437063
2906.993569	71.241259
2908.279870	81.039860
2909.565962	80.623077
2910.850306	74.871329
2912.137521	74.095105
2913.419910	71.613986
2914.703631	69.683916
2915.985606	66.306993
2917.267373	63.025175
2918.547396	62.242657
2919.830288	59.118182
2921.111435	54.639860
2922.389300	57.104196
2923.670034	47.236364
2924.947487	43.622378
2926.224734	38.288811
2927.500240	33.011888
2928.778613	38.511189
2930.052171	40.211189
2931.328597	45.958042
2932.603282	53.308392
2933.876227	61.147552
2935.150502	71.794406
2936.423038	75.009790
2937.695370	72.317483
2938.964428	71.642657
2940.236352	75.948951
2941.506538	71.652448
2942.776521	66.535664
2944.046300	66.866434
2945.314342	68.181818
2946.580649	67.007692
2947.846753	65.162238
2949.114187	66.441259
2950.379887	69.934266
2951.645384	67.669231
2952.910679	66.662238
2954.172709	70.366434
2955.436070	66.803497
2956.699228	58.937762
2957.960655	54.369930
2959.223411	54.339161
2960.484436	56.201399
2961.743729	50.530769
2963.002823	50.523077
2964.261716	48.983916
2965.520409	48.348951
2966.778902	51.351748
2968.035666	52.367133
2969.292230	60.035664
2970.547067	61.435664
2971.803232	66.830769
2973.056143	71.490210
2974.310383	72.841259
2975.564424	66.284615
2976.816739	60.333566
2978.068856	54.527972
2979.319247	55.241259
2980.572494	61.974825
2981.820964	62.581818
2983.072289	64.917483
2984.320364	64.759441
2985.568243	59.288811
2986.815924	56.934266
2988.063409	45.589510
2989.309171	37.690909
2990.554738	37.700000
2991.801632	40.298601
2993.045282	45.145455
2994.290260	53.329371
2995.531994	64.637762
2996.776580	63.993007
2998.019447	62.121678
2999.259073	63.757343
3000.501549	62.419580
3001.740786	66.434965
3002.981350	62.477622
3004.220197	63.002797
3005.458850	66.911888
3006.695787	63.223776
3007.934051	63.761538
3009.170601	62.003497
3010.406956	67.301399
3011.643118	61.032168
3012.877567	58.698601
3014.111822	62.046154
3015.345884	59.527972
3016.578234	67.097203
3017.808872	70.513986
3019.042356	71.916084
3020.274128	73.043357
3021.504190	74.102098
3022.734060	80.838462
3023.962220	79.323077
3025.191706	79.715385
3026.419484	75.430070
3027.647070	67.998601
3028.875982	71.149650
3030.100152	68.173427
3031.327165	69.054545
3032.550954	68.591608
3033.776070	69.127972
3034.999479	66.329371
3036.222698	70.795105
3037.444212	75.223077
3038.668567	66.498601
3039.888187	64.932867
3041.109133	59.712587
3042.329890	56.270629
3043.548943	58.405594
3044.769322	54.470629
3045.986484	52.953147
3047.204971	55.616084
3048.421756	57.618881
3049.638354	51.908392
3050.854763	56.620979
3052.067960	57.193706
3053.283994	51.218182
3054.496816	52.234965
3055.712475	46.536364
3056.923411	47.490210
3058.135672	48.451748
3059.347747	56.068531
3060.559635	57.171329
3061.769825	63.091608
3062.979829	66.467832
3064.189647	66.234965
3065.397770	68.594406
3066.605706	74.086014
3067.811948	68.946853
3069.019513	66.685315
3070.225384	62.587413
3071.431071	63.997203
3072.636572	67.219580
3073.840380	72.148951
3075.045512	70.197203
3076.248952	75.090909
3077.450699	71.652448
3078.652263	66.500699
3079.853642	61.045455
3081.054839	55.994406
3082.254344	47.618182
3083.453667	46.579720
3084.654313	48.241958
3085.853269	54.469231
3087.049031	61.197203
3088.247622	68.637063
3089.443019	68.954545
3090.639739	67.846853
3091.833267	61.679021
3093.029623	56.460140
3094.224293	54.012587
3095.415772	52.574825
3096.611582	57.065035
3097.802699	55.506294
3098.995138	54.351049
3100.184390	54.884615
3101.376468	57.395804
3102.566861	54.930070
3103.754069	47.766434
3104.942600	38.709091
3106.132452	32.993706
3107.319121	29.062238
3108.505610	31.661538
3109.691919	34.793007
3110.879550	40.667133
3112.064000	41.479021
3113.246769	47.600699
3114.432361	51.181119
3115.616274	57.401399
3116.798508	54.183916
3117.980563	56.144056
3119.162441	53.708392
3120.344140	54.853846
3121.524161	55.937762
3122.702506	59.030070
3123.883672	60.233566
3125.061662	63.044755
3126.239475	63.125874
3127.417111	57.011189
3128.593072	54.826573
3129.768856	52.000699
3130.945962	48.012587
3132.121393	53.755944
3133.295151	44.263636
3134.467237	47.832168
3135.640643	48.575524
3136.813874	45.490210
3137.985432	45.715385
3139.158311	42.539161
3140.328024	44.700000
3141.499056	43.479021
3142.668419	51.160839
3143.836112	49.513986
3145.006620	48.567133
3146.172469	53.885315
3147.342628	48.432867
3148.508129	54.205594
3149.673457	49.477622
3150.838611	47.623077
3152.003591	45.493007
3153.169892	37.565035
3154.331539	36.595804
3155.494506	34.448252
3156.657301	34.082517
3157.819923	39.035664
3158.980880	46.496503
3160.141664	56.776224
3161.302276	61.353846
3162.461225	62.681119
3163.620001	68.816084
3164.778606	68.234965
3165.937039	63.443357
3167.095300	55.573427
3168.251899	46.168531
3169.406837	45.058741
3170.563094	50.025175
3171.717690	51.395804
3172.872116	56.474126
3174.024882	56.828671
3175.177478	48.736364
3176.329903	46.092308
3177.482159	54.946154
3178.634244	51.715385
3179.783184	50.599301
3180.934930	51.141259
3182.085018	49.993007
3183.233450	56.002098
3184.381713	58.188112
3185.529806	58.006993
3186.677731	60.213287
3187.824001	60.583217
3188.970102	56.287413
3190.114548	59.739860
3191.258827	61.001399
3192.402938	61.143357
3193.548367	61.417483
3194.690656	65.142657
3195.832779	60.679720
3196.974734	56.283217
3198.116523	52.383217
3199.258144	54.737762
3200.396629	53.432867
3201.536432	49.387413
3202.677553	47.583217
3203.815539	48.345455
3204.951876	43.782517
3206.088047	54.536364
3207.225536	56.690210
3208.361375	57.559441
3209.498532	55.077622
3210.631076	53.612587
3211.767902	57.574825
3212.900116	53.070629
3214.033647	50.481818
3215.167014	41.783916
3216.297253	43.688112
3217.430290	37.594406
3218.560201	29.197902
3219.691428	33.318881
3220.819531	26.357343
3221.950430	24.320280
3223.079685	25.482517
3224.207297	27.474825
3225.331787	35.265734
3226.460551	40.625175
3227.586194	48.646853
3228.711675	56.406294
3229.835514	63.536364
3230.962147	58.841259
3232.084183	57.708392
3233.207535	56.343357
3234.330725	44.662937
3235.453753	38.785315
3236.575141	28.579021
3237.696368	29.626573
3238.815956	38.631469
3239.935383	50.077622
3241.053172	53.034266
3242.173754	62.306993
3243.291221	68.730070
3244.408528	69.005594
3245.525675	65.402098
3246.641186	58.183916
3247.758012	52.647552
3248.871727	48.373427
3249.988232	44.609790
3251.103103	52.781818
3252.214865	50.525874
3253.326468	48.453846
3254.439385	44.590909
3255.552144	47.391608
3256.661796	46.258741
3257.772762	44.808392
3258.883570	41.588112
3259.992747	48.602797
3261.100292	51.084615
3262.209151	51.062937
3263.317853	58.023776
3264.423452	61.651049
3265.530365	55.551748
3266.635649	61.875524
3267.742248	56.508392
3268.845746	52.242657
3269.950558	47.983217
3271.055213	45.480420
3272.156769	39.766434
3273.258170	42.306993
3274.360884	32.266434
3275.463441	34.374825
3276.562902	34.965035
3277.665147	38.585315
3278.764296	35.213287
3279.861821	39.139860
3280.959190	32.167133
3282.059342	37.351748
3283.156400	44.893007
3284.253303	47.500699
3285.350051	42.294406
3286.442241	45.716783
3287.538679	51.085315
3288.633495	55.299301
3289.728157	54.378322
3290.821197	50.039161
3291.914083	40.248951
3293.005348	39.465734
3294.097926	41.868531
3295.188883	44.323077
3296.278221	51.715385
3297.367406	48.481818
3298.457904	40.731469
3299.545317	44.184615
3300.632578	53.369930
3301.721151	52.483916
3302.809571	50.199301
3303.893444	48.976224
3304.981559	51.447552
3306.066593	51.156643
3307.150010	46.736364
3308.234740	40.049650
3309.317855	43.179021
3310.402281	37.074126
3311.483629	40.569231
3312.566289	48.020280
3313.647335	51.669930
3314.728230	50.869930
3315.807511	49.032168
3316.886643	55.146154
3317.967085	52.513287
3319.044454	46.920280
3320.123133	40.144755
3321.200202	36.768531
3322.277120	33.145455
3323.352427	36.730769
3324.427585	48.823776
3325.504054	51.815385
3326.577453	51.291608
3327.650703	52.851049
3328.725263	58.829371
3329.798215	60.123776
3330.869558	54.446853
3331.942213	60.911189
3333.011800	57.401399
3334.082698	54.888811
3335.151989	48.451049
3336.222591	48.364336
3337.291586	46.962238
3338.358975	40.692308
3339.424759	39.091608
3340.494769	47.694406
3341.561716	48.341259
3342.625601	50.369231
3343.692254	49.535664
3344.757302	56.862238
3345.820747	55.955245
3346.884046	59.881119
3347.947198	52.582517
3349.010204	51.735664
3350.073064	51.872727
3351.134322	58.719580
3352.192523	57.513287
3353.254945	65.223776
3354.314310	59.193007
3355.373530	60.196503
3356.434060	53.038462
3357.490080	56.296503
3358.548865	56.717483
3359.603142	57.862238
3360.660182	52.806294
3361.715625	53.534965
3362.772376	52.727273
3363.827529	58.695804
3364.881086	54.089510
3365.933045	57.628671
3366.987766	53.792308
3368.039438	50.755944
3369.090967	46.510490
3370.143804	48.577622
3371.193594	42.283916
3372.244693	41.527273
3373.292746	44.993007
3374.343559	41.625175
3375.391326	47.551049
3376.438951	53.233566
3377.486433	59.800699
3378.532323	63.361538
3379.579521	60.414685
3380.623677	60.253147
3381.670591	52.453846
3382.715913	45.485315
3383.758194	36.750350
3384.800335	37.339161
3385.843783	39.779720
3386.887091	36.765035
3387.928808	41.932168
3388.970384	44.498601
3390.011820	51.167832
3391.051666	53.211888
3392.089924	52.193706
3393.129491	50.944755
3394.168916	46.270629
3395.206754	41.772028
3396.243005	41.605594
3397.279117	45.264336
3398.316536	41.979021
3399.350922	40.953846
3400.386615	43.708392
3401.422169	42.606294
3402.454692	43.091608
3403.489968	43.421678
3404.522213	45.588811
3405.554320	45.908392
3406.584843	46.462238
3407.616673	43.774825
3408.648365	47.760140
3409.677030	50.992308
3410.705556	50.979021
3411.735390	49.293706
3412.765085	49.973427
3413.791755	50.120280
3414.819732	46.083916
3415.844684	50.430070
3416.872386	56.046154
3417.897065	58.196503
3418.923050	55.557343
3419.947455	54.811888
3420.971724	50.923077
3421.994414	49.966434
3423.016968	46.886014
3424.040828	43.298601
3425.061668	43.632867
3426.082373	44.212388
3427.104383	44.362213
3428.123375	43.465035
3429.142232	40.903546
3430.162394	36.060440
3431.179540	28.318407
