-118.077073	-3.089835
-115.407473	-8.778022
-112.740808	-10.346204
-110.074895	-8.731968
-107.411914	-4.872902
-104.747504	0.293407
-102.086024	5.829371
-99.423114	8.046853
-96.765312	10.844056
-94.106079	11.257343
-91.447596	11.637063
-88.792036	7.536364
-86.135048	5.516084
-83.483157	3.787413
-80.829837	4.301399
-78.179437	5.381119
-75.527607	6.358741
-72.880868	6.618182
-70.232699	5.993007
-67.585274	4.582517
-64.940762	4.892308
-62.294822	4.825175
-59.653963	1.839161
-57.011675	-1.756643
-54.372295	-1.510490
-51.731487	-2.226573
-49.091419	0.921678
-46.456423	-0.014685
-43.819999	0.567133
-41.186477	-0.506294
-38.551527	-0.639161
-35.921642	0.712587
-33.288165	-0.100000
-30.659750	1.526573
-28.032069	0.839860
-25.402959	0.197203
-22.778906	-20.004895
-20.151264	-94.290909
-17.528675	-274.067133
-14.906818	-204.805594
-12.285691	337.427972
-9.665294	1178.758741
-7.047786	1878.410490
-4.428848	2358.860839
-1.812797	2618.116084
0.802526	2652.511189
3.417122	2462.161538
6.028835	2057.326573
8.641977	1443.768531
11.250085	682.069930
13.861775	-59.327273
16.468434	-360.665035
19.076521	-239.888112
21.683884	-28.726573
24.286222	3.612587
26.892138	2.745455
29.493032	1.739161
32.095354	-0.120280
34.692659	-1.985315
37.293539	0.393007
39.889405	0.982517
42.486698	4.060140
45.083272	5.439860
47.674837	6.234965
50.267830	4.609790
52.857962	3.020979
55.449522	2.413986
58.038222	0.614685
60.628349	0.751748
63.213478	4.787413
65.800033	4.013287
68.385875	4.000000
70.968863	4.958042
73.553277	6.782517
76.130563	5.558741
78.711415	3.772028
81.289418	-0.558042
83.866711	-0.981119
86.445430	-1.883217
89.019168	-2.508392
91.594332	-2.850350
94.166653	-2.532867
96.738266	-3.732867
99.307039	-3.116084
101.877239	-0.643357
104.444601	2.394406
107.013388	2.504196
109.579339	4.579021
112.142455	8.651049
114.709127	10.195804
117.266578	10.085315
119.829714	12.252448
122.387891	15.708392
124.949621	23.756643
127.506395	37.823077
130.064596	59.852448
132.617844	87.634965
135.170393	124.381119
137.726493	162.823776
140.277646	205.539161
142.828100	250.222378
145.377857	289.591608
147.924796	320.980420
150.471038	348.262937
153.018706	369.118881
155.565678	377.866434
158.107715	383.272028
160.649058	386.506993
163.189708	379.970629
165.731784	378.179720
168.271048	372.727273
170.807504	365.857343
173.343268	362.851049
175.880458	359.713986
178.416957	355.271329
180.950650	352.771329
183.481540	352.225874
186.011741	349.053846
188.543367	349.842657
191.072192	349.148951
193.598218	346.272727
196.123558	350.913287
198.650324	348.646154
201.174292	345.027273
203.697576	344.411189
206.220175	342.702797
208.739981	339.898601
211.259104	336.213986
213.777544	337.092308
216.297408	335.012587
218.810271	338.391608
221.326665	340.547552
223.842377	344.934266
226.353199	345.392308
228.865447	342.670629
231.374911	341.606993
233.883697	339.986713
236.391805	337.557343
238.901336	331.918182
241.405987	328.416783
243.909962	327.730769
246.415362	326.716783
248.915886	330.910490
251.419933	336.734266
253.917010	344.765035
256.417609	350.959441
258.915437	359.900000
261.412592	368.952448
263.909074	377.348951
266.400693	388.252448
268.895832	403.244755
271.388205	426.268531
273.879907	441.793706
276.368845	451.860140
278.859208	453.151748
281.346808	461.833566
283.831649	546.908392
286.320005	854.385315
288.801421	1446.795105
291.286351	2203.403497
293.766436	2902.662937
296.250033	3414.377622
298.728787	3683.353147
301.208965	3688.059441
303.686390	3417.760140
306.163152	2910.097902
308.639251	2226.188811
311.112601	1479.452448
313.585289	847.758042
316.057316	488.748951
318.528682	401.986014
320.997304	430.505594
323.465266	451.007692
325.934650	447.220979
328.399212	436.037063
330.867278	425.035664
333.330524	409.565035
335.793112	398.271329
338.255044	396.345455
340.716319	397.195105
343.174860	402.883916
345.634823	399.669231
348.092053	399.159441
350.548629	398.200000
353.004551	398.525175
355.457744	392.808392
357.912358	391.406993
360.362171	387.841958
362.815480	379.662937
365.263991	373.355944
367.711851	368.179720
370.161132	363.476923
372.605620	363.862937
375.051530	353.058741
377.496791	349.066434
379.939332	348.403497
382.381226	345.336364
384.822473	344.016084
387.261004	345.894406
389.700957	343.388811
392.138196	342.074126
394.572723	341.667133
397.010738	341.700000
399.443976	341.405594
401.878636	344.181818
404.308522	342.323776
406.741894	343.814685
409.170496	344.498601
411.598457	344.178322
414.027838	344.640559
416.452454	346.000699
418.878492	343.444755
421.303889	346.869930
423.728646	349.088811
426.148645	348.349650
428.570065	349.159441
430.988788	350.330070
433.408932	350.641958
435.826381	347.699301
438.245250	346.430070
440.661426	348.125175
443.072855	348.664336
445.487760	351.081119
447.899975	350.379021
450.311556	355.117483
452.722503	355.279021
455.130764	355.810490
457.538392	357.634266
459.945389	360.204196
462.351753	361.591608
464.755435	360.193706
467.158487	360.683916
469.560909	360.341958
471.962701	357.888112
474.361816	354.639860
476.762350	349.109790
479.162255	345.743357
481.557437	340.094406
483.956086	338.890909
486.350015	333.648252
488.743318	329.614685
491.135995	325.072727
493.528047	320.904895
495.921517	311.669231
498.310276	300.279720
500.696368	290.836364
503.083879	282.160140
505.470768	274.058741
507.854993	268.453147
510.240637	262.984615
512.623618	259.269930
515.003939	254.952448
517.385679	253.400699
519.764760	255.162937
522.145260	252.704895
524.523102	247.773427
526.898289	245.707692
529.272858	244.088811
531.648846	248.012587
534.022180	251.438462
536.396932	254.518881
538.766999	258.655245
541.136450	266.004895
543.507319	272.030070
545.873508	276.637762
548.241115	276.969930
550.606076	276.127972
552.970424	276.434266
555.334160	275.200699
557.699312	274.669231
560.059793	279.035664
562.421692	282.219580
564.780950	282.814685
567.137571	285.231469
569.497636	290.423776
571.851011	287.206993
574.207830	285.453846
576.562013	277.560839
578.915589	274.029371
581.268556	268.358042
583.618892	263.369930
585.970644	257.900699
588.315720	251.579021
590.666260	245.995804
593.010126	238.568531
595.359454	232.946853
597.704134	230.502098
600.046188	225.267832
602.389660	221.185315
604.730509	214.132867
607.070756	210.500000
609.408382	206.621678
611.749443	204.690210
614.085866	199.048951
616.423706	193.862238
618.758929	191.125175
621.091536	189.031469
623.425559	189.643357
625.756969	191.309790
628.087780	191.224476
630.417993	193.002098
632.747608	193.131469
635.072601	194.067133
637.403035	193.472028
639.728847	194.045455
642.052053	189.721678
644.376674	188.223776
646.698690	189.383916
649.020113	190.069231
651.338932	189.992308
653.659167	192.110490
655.978809	191.530769
658.295850	192.309790
660.612299	190.357343
662.926150	191.830769
665.241417	189.946853
667.554087	187.740559
669.868172	181.915385
672.177657	181.394406
674.488558	181.812587
676.796866	183.494406
679.104586	183.848252
681.413721	186.495105
683.718263	184.177622
686.022218	180.654545
688.325588	179.804895
690.630372	180.121678
692.930570	179.341958
695.232182	178.083916
697.533210	175.726573
699.829655	176.306294
702.127516	179.083916
704.424793	180.744056
706.721487	184.004895
709.013605	186.235664
711.309134	186.034965
713.600090	184.523077
715.892460	184.461538
718.182254	183.365734
720.471468	183.800000
722.760103	183.505594
725.046166	184.172028
727.333642	183.642657
729.618547	186.297902
731.902875	188.244056
734.184634	191.672727
736.467807	190.875524
738.750403	190.980420
741.028444	188.913986
743.307898	188.639161
745.586777	187.313287
747.865080	185.436364
750.138834	184.832168
752.414002	185.786713
754.688596	183.545455
756.960630	182.576224
759.234078	184.952448
761.504968	187.216084
763.773302	188.012587
766.043049	189.546853
768.310242	192.067133
770.576864	195.227273
772.842916	197.451748
775.106417	197.472727
777.371331	199.746853
779.635675	198.626573
781.895490	194.647552
784.156717	190.523077
786.417377	190.169930
788.675491	186.247552
790.931060	185.253147
793.190020	183.609091
795.442481	185.323776
797.700309	185.613986
799.953617	188.550350
802.204386	192.071329
804.456567	198.712587
806.706210	201.444056
808.957264	197.651748
811.203807	197.076923
813.451762	193.119580
815.697183	187.811888
817.944015	186.767832
820.190286	183.025175
822.432053	182.111189
824.677202	179.600699
826.915879	181.067133
829.157938	183.659441
831.395499	184.985315
833.634472	185.424476
835.870918	181.390210
838.108775	180.413287
840.344107	176.430070
842.576916	174.018881
844.811136	173.664336
847.042834	174.950350
849.273976	175.176923
851.504565	176.241958
853.734598	182.767832
855.964078	182.902797
858.189076	180.455245
860.417449	183.032168
862.641343	183.793706
864.866647	186.935664
867.087476	187.481818
869.311677	187.258741
871.531405	190.228671
873.752544	189.755245
875.973132	186.550350
878.191210	187.452448
880.410698	185.392308
882.625720	178.324476
884.840195	173.317483
887.054121	169.259441
889.267501	165.911189
891.480333	167.132867
893.692619	165.939860
895.902402	166.035664
898.111640	172.646853
900.320333	178.013287
902.526527	178.542657
904.734130	183.130769
906.939235	185.732867
909.143797	185.186713
911.345864	178.672028
913.549340	170.088112
915.750322	166.139860
917.950763	166.141259
920.152611	169.046154
922.348069	171.148252
924.546886	177.264336
926.741264	179.449650
928.939000	180.896503
931.132300	186.097902
933.327009	193.467133
935.519232	190.021678
937.710917	186.499301
939.902064	185.997902
942.090728	188.916084
944.278855	193.081818
946.464502	197.433566
948.653501	197.918881
950.838077	194.088112
953.022118	186.870629
955.209509	187.267133
957.388596	190.717483
959.571034	193.027273
961.752938	192.234266
963.932368	198.577622
966.109324	203.885315
968.287689	204.976923
970.467461	208.930769
972.640884	208.129371
974.817653	203.145455
976.990015	195.410490
979.163785	188.940559
981.333151	187.146853
983.505861	193.507692
985.676106	198.497203
987.845822	209.169231
990.015009	219.931469
992.179799	220.742657
994.347930	226.793007
996.511667	228.769930
998.676810	224.839161
1000.839495	221.566434
1003.001653	214.782517
1005.161355	212.690210
1007.320533	212.418881
1009.481117	211.384615
1011.639246	212.081818
1013.796851	210.556643
1015.953933	204.586713
1018.110492	209.443357
1020.262671	216.825175
1022.416256	213.372028
1024.569320	214.423077
1026.719936	216.659441
1028.871957	225.779720
1031.019605	228.686713
1033.170585	230.564336
1035.317194	234.448252
1037.463285	237.293007
1039.608856	246.844755
1041.755833	252.809091
1043.896521	271.006993
1046.040539	267.583916
1048.182116	258.642657
1050.323177	264.195105
1052.465642	252.802797
1054.601828	252.072727
1056.741340	229.727273
1058.876496	224.318182
1061.014977	218.886713
1063.149104	207.455944
1065.282718	208.083916
1067.417737	216.954545
1069.548406	225.304895
1071.680480	238.443357
1073.810125	245.027972
1075.939258	248.040559
1078.067879	234.197203
1080.195989	228.316783
1082.321673	213.660839
1084.446847	204.942657
1086.573425	196.763636
1088.695666	187.944755
1090.819310	191.011189
1092.938621	206.646154
1095.063160	214.625874
1097.181454	237.800000
1099.301153	232.902098
1101.418433	227.239161
1103.535207	228.843357
1105.651474	222.137063
1107.765326	226.195105
1109.880581	229.381119
1111.991513	230.127273
1114.105758	227.482517
1116.215682	225.049650
1118.327010	223.469231
1120.437833	217.404196
1122.544340	215.755944
1124.654157	204.139161
1126.759659	201.562238
1128.866564	193.290909
1130.967254	193.483217
1133.073156	200.876923
1135.174749	201.210490
1137.277745	197.204895
1139.380240	199.228671
1141.476528	199.397902
1143.578024	201.417483
1145.675216	200.856643
1147.771911	204.086713
1149.868107	199.256643
1151.963806	193.739161
1154.059006	178.970629
1156.151811	176.889510
1158.246017	176.129371
1160.334032	173.970629
1162.427245	174.223077
1164.514270	173.878322
1166.604594	176.583916
1168.690631	181.214685
1170.779965	187.042657
1172.863118	193.432867
1174.947673	194.247552
1177.033630	190.642657
1179.115305	179.890210
1181.198382	182.518881
1183.279073	192.530769
1185.359272	186.710490
1187.438980	185.127972
1189.518197	184.148951
1191.595032	186.258042
1193.669486	192.401399
1195.747231	194.157343
1197.820707	194.568531
1199.895583	193.887413
1201.966192	190.142657
1204.038203	184.062238
1206.107837	187.551748
1208.178872	186.879720
1210.249419	177.134266
1212.315705	180.819580
1214.383392	179.918182
1216.448707	178.977622
1218.515422	179.368531
1220.577881	180.114685
1222.643625	184.837063
1224.705116	181.446853
1226.768006	184.388112
1228.828529	186.034266
1230.888568	192.502098
1232.948125	193.433566
1235.005316	192.920979
1237.062026	196.588811
1239.116373	197.965035
1241.174000	199.169930
1243.229265	198.438462
1245.280289	200.454545
1247.332713	199.330070
1249.384657	192.659441
1251.434243	195.333566
1253.483350	197.347552
1255.531979	201.779021
1257.580129	196.587413
1259.627800	192.311888
1261.671242	192.684615
1263.717958	199.030769
1265.762321	200.562238
1267.806208	197.345455
1269.847743	188.795105
1271.886929	188.717483
1273.929388	189.186713
1275.967624	190.655944
1278.007259	190.956643
1280.046419	191.185315
1282.081360	183.248252
1284.117700	181.203497
1286.151696	181.095804
1288.187090	188.897902
1290.218270	192.225874
1292.250848	185.724476
1294.282955	184.058042
1296.312721	185.455944
1298.343885	192.970629
1300.370841	199.102098
1302.399195	200.454545
1304.423345	199.548252
1306.450759	190.297902
1308.473971	186.797902
1310.498581	181.578322
1312.520857	186.644755
1314.544530	182.331469
1316.565870	177.371329
1318.586742	175.461538
1320.607147	173.458741
1322.623359	182.800699
1324.640968	182.817483
1326.656249	185.521678
1328.674789	186.179021
1330.689140	182.590909
1332.701165	183.174825
1334.716447	183.872028
1336.727544	189.741259
1338.740038	185.958042
1340.748349	186.165035
1342.759916	185.900000
1344.765443	187.688112
1346.774226	189.002098
1348.778831	190.562937
1350.786690	193.119580
1352.794087	197.127273
1354.795453	192.706294
1356.798216	188.396503
1358.800518	189.777622
1360.802361	189.793706
1362.803744	184.035664
1364.802814	182.940559
1366.801425	185.873427
1368.799578	185.061538
1370.797272	187.916783
1372.790804	195.253147
1374.785732	191.062238
1376.780202	193.319580
1378.774217	186.974825
1380.765923	186.725874
1382.757175	185.424476
1384.746121	181.360839
1386.736462	176.335664
1388.726348	177.796503
1390.713931	179.019580
1392.701059	176.653846
1394.685886	176.588811
1396.672108	184.390210
1398.656030	185.439161
1400.639499	191.790909
1402.622515	194.624476
1404.603234	196.405594
1406.585347	195.740559
1408.565164	191.400000
1410.544529	188.962937
1412.519756	187.920280
1414.498222	183.298601
1416.474393	180.826573
1418.450116	177.471329
1420.425389	181.972727
1422.398371	186.100000
1424.370905	184.619580
1426.342992	188.771329
1428.314630	188.049650
1430.282140	190.576923
1432.254724	188.474825
1434.219503	189.351748
1436.189353	190.212587
1438.155080	191.816783
1440.122199	191.701399
1442.087035	184.765035
1444.047751	185.833566
1446.013536	179.565035
1447.973365	174.134965
1449.934587	173.498601
1451.897202	167.706294
1453.855702	172.793007
1455.813759	182.116084
1457.771375	188.402797
1459.728549	191.879720
1461.683447	198.007692
1463.639737	197.751748
1465.593753	196.826573
1467.547329	200.332168
1469.498632	190.025874
1471.451327	183.933566
1473.401751	179.699301
1475.351735	170.835664
1477.301281	174.741958
1479.248558	176.334266
1481.193568	174.283916
1483.139969	169.449650
1485.085933	170.642657
1487.031460	173.877622
1488.974722	179.469930
1490.917547	182.046154
1492.858109	184.323077
1494.800062	184.895804
1496.739753	189.986014
1498.679010	190.404196
1500.617831	194.466434
1502.554393	193.034266
1504.492346	191.861538
1506.428040	185.426573
1508.363301	188.527972
1510.296306	196.030070
1512.228878	192.851049
1514.161018	190.841958
1516.092726	191.183217
1518.022180	184.638462
1519.953025	179.781119
1521.883438	175.902797
1523.809779	174.716084
1525.737511	173.797902
1527.662992	173.176224
1529.588044	170.872727
1531.512667	178.216783
1533.436861	181.067133
1535.358807	181.481119
1537.282144	187.237762
1539.203235	183.333566
1541.122081	180.030070
1543.042316	178.996503
1544.960309	180.738462
1546.877875	188.834266
1548.793199	198.261538
1550.709913	197.831469
1552.622572	203.355245
1554.538435	209.053147
1556.452058	207.022378
1558.363444	209.625175
1560.276218	205.326573
1562.184943	195.558042
1564.095058	190.004196
1566.004748	187.309091
1567.914016	187.174126
1569.821050	189.973427
1571.725851	191.515385
1573.632041	192.960839
1575.535999	199.725175
1577.439537	199.884615
1579.342653	194.754545
1581.243540	189.233566
1583.145816	182.386014
1585.045864	182.881119
1586.947299	174.124476
1588.844701	172.095804
1590.741684	173.646154
1592.638249	177.604196
1594.536202	180.765035
1596.428320	191.831469
1598.323631	194.883916
1600.218525	191.908392
1602.111197	191.202797
1604.003453	188.571329
1605.893488	189.634266
1607.783109	188.793007
1609.672313	177.194406
1611.561103	182.617483
1613.447675	188.836364
1615.335635	197.306294
1617.219578	200.552448
1619.104909	207.151748
1620.989825	206.429371
1622.872528	199.579021
1624.756618	202.074126
1626.636697	196.591608
1628.518162	194.272028
1630.397417	189.834965
1632.278058	184.792308
1634.152895	187.044056
1636.032714	186.443357
1637.908527	188.032168
1639.783930	184.698601
1641.660719	184.850350
1643.531712	181.327273
1645.405886	175.815385
1647.276062	176.698601
1649.149418	168.718182
1651.020571	169.163636
1652.889522	166.548951
1654.759859	168.109790
1656.626202	169.789510
1658.493931	178.551049
1660.359461	185.699301
1662.226377	192.032867
1664.089304	195.086014
1665.953616	191.492308
1667.815732	185.774126
1669.677444	188.295105
1671.540540	177.734965
1673.401442	174.128671
1675.260150	175.908392
1677.118455	177.865035
1678.978145	175.420979
1680.832068	175.613287
1682.689163	177.379720
1684.545856	174.547552
1686.398573	165.986014
1688.254460	165.552448
1690.106374	164.509091
1691.957887	182.723776
1693.808999	182.974126
1695.659711	175.866434
1697.510022	175.313287
1699.358148	163.156643
1701.207659	161.097902
1703.051421	149.455245
1704.900132	146.966434
1706.743098	139.252448
1708.589229	140.727972
1710.431399	149.897902
1712.276733	157.118881
1714.116327	162.497902
1715.957305	166.370629
1717.799666	163.900000
1719.638071	163.727972
1721.477859	170.927972
1723.315472	182.783916
1725.152689	177.107692
1726.987733	177.576224
1728.824160	176.606993
1730.658415	183.260140
1732.492275	186.832168
1734.325742	185.927273
1736.155262	187.106294
1737.987941	204.081119
1739.816676	198.082517
1741.648568	190.191608
1743.476519	189.179021
1745.304077	181.246853
1747.131243	172.977622
1748.958018	171.417483
1750.784402	168.901399
1752.606848	177.025175
1754.432450	182.172028
1756.254117	186.277622
1758.077166	189.211189
1759.898053	191.833566
1761.718552	179.181818
1763.540432	174.051049
1765.356612	172.962238
1767.175944	167.430769
1768.991349	169.103497
1770.809904	168.887413
1772.624534	165.659441
1774.438778	171.898601
1776.252634	175.543357
1778.066104	165.651049
1779.877421	164.911189
1781.690119	164.997902
1783.502430	159.853846
1785.310824	165.861538
1787.120598	181.004895
1788.926458	184.772028
1790.735463	191.515385
1792.540555	193.792308
1794.347028	190.665734
1796.153117	191.376923
1797.955296	192.975524
1799.760618	187.961538
1801.562032	196.165035
1803.364826	191.899301
1805.163714	191.672028
1806.963983	197.638462
1808.763870	214.380420
1810.561616	222.408392
1812.358980	218.931469
1814.155965	204.588811
1815.952569	182.430070
1817.747034	168.073427
1819.542878	155.112587
1821.333068	147.712587
1823.128153	142.895804
1824.917587	145.973427
1826.710157	150.701399
1828.500592	163.528671
1830.288893	172.212587
1832.080329	193.660839
1833.866119	193.939161
1835.653289	193.055245
1837.438327	197.000699
1839.226499	190.488112
1841.010785	178.730070
1842.792942	170.462937
1844.576477	169.027273
1846.357884	175.356643
1848.140670	169.666434
1849.919575	166.200000
1851.699860	157.646154
1853.478018	172.578322
1855.257555	167.858741
1857.034967	174.057343
1858.810255	179.622378
1860.586922	175.579720
1862.361465	178.541958
1864.137387	180.419580
1865.907688	183.764336
1867.681117	184.426573
1869.452426	180.526573
1871.223365	179.381119
1872.995680	181.254545
1874.762382	188.581818
1876.532210	186.881818
1878.298174	186.450350
1880.067262	181.492308
1881.832488	178.426573
1883.597345	177.406993
1885.363580	165.755944
1887.125956	162.332867
1888.887965	155.376224
1890.649606	151.697203
1892.410881	149.108392
1894.171788	161.038462
1895.932329	165.406294
1897.690760	165.678322
1899.448826	165.123077
1901.204783	166.972028
1902.962117	167.932168
1904.719086	168.701399
1906.473949	170.043357
1908.226706	173.793007
1909.979100	170.569930
1911.732869	170.513986
1913.484535	173.219580
1915.234099	179.789510
1916.985038	174.052448
1918.735615	175.666434
1920.482352	175.251748
1922.230466	175.418881
1923.976480	165.078322
1925.723870	162.487413
1927.469161	157.951748
1929.212355	154.534965
1930.956924	153.325874
1932.699398	148.325874
1934.441511	152.025874
1936.183264	154.382867
1937.924658	157.555245
1939.663957	164.364685
1941.402898	171.980420
1943.141481	173.684965
1944.877971	174.995105
1946.614104	179.258392
1948.351611	178.255245
1950.085296	180.338112
1951.820356	180.902797
1953.553328	182.912238
1955.285942	185.797902
1957.018201	180.536713
1958.750103	177.353846
1960.479919	174.741958
1962.207650	175.776224
1963.936756	173.482517
1965.665507	178.051049
1967.392174	177.959441
1969.118487	174.563636
1970.846173	176.000000
1972.568323	181.866434
1974.293574	184.018881
1976.015019	184.624476
1977.739563	180.892308
1979.462028	183.495804
1981.180689	182.027273
1982.902449	179.039161
1984.620407	173.424476
1986.339738	170.727273
1988.055270	164.074126
1989.775622	160.523077
1991.492176	164.157343
1993.204933	167.286713
1994.920787	172.959441
1996.634567	185.353846
1998.347998	191.155944
2000.059358	201.403497
2001.772090	196.116783
2003.481032	190.925175
2005.193067	177.600699
2006.899592	172.365734
2008.609210	166.973427
2010.316760	167.311888
2012.023963	169.232168
2013.729100	174.268531
2015.433890	184.523077
2017.140052	193.016084
2018.842432	193.039860
2020.546184	192.844056
2022.247872	186.803497
2023.949216	182.741259
2025.650214	173.897203
2027.349151	166.488112
2029.049460	165.581818
2030.745994	169.880420
2032.443899	174.676224
2034.139745	176.075524
2035.838677	180.395804
2037.532123	182.500699
2039.226940	180.703497
2040.921415	178.304196
2042.612121	177.846853
2044.305911	171.239860
2045.995934	165.331469
2047.687328	160.981818
2049.376669	169.124476
2051.067380	168.884615
2052.754328	169.781119
2054.440937	173.924476
2056.128916	181.019580
2057.813135	186.793007
2059.498724	190.065035
2061.183974	187.229371
2062.867176	182.769930
2064.551747	181.609790
2066.230856	180.158741
2067.914750	184.256643
2069.593184	180.254545
2071.274694	175.638462
2072.952454	180.012587
2074.629876	184.088112
2076.308668	188.091608
2077.985418	192.881119
2079.660126	191.755245
2081.336203	185.875524
2083.010240	184.029371
2084.683941	181.875524
2086.357307	180.700699
2088.028635	176.183217
2089.699628	168.773427
2091.370287	166.804895
2093.040611	166.255944
2094.710602	164.451748
2096.378557	168.665734
2098.046179	173.397902
2099.711766	169.833566
2101.378723	169.965035
2103.043645	170.107692
2104.708236	165.428671
2106.370795	165.484615
2108.034722	163.744755
2109.696619	162.604196
2111.358184	162.551748
2113.019418	159.439860
2114.678624	161.126573
2116.337499	161.200699
2117.996045	164.032168
2119.654261	164.611888
2121.308753	168.122378
2122.966310	172.814685
2124.623538	171.940559
2126.277044	169.604895
2127.931918	164.976224
2129.583074	163.997902
2131.237291	168.399301
2132.887792	168.076923
2134.539659	163.692308
2136.186118	157.375524
2137.837332	162.365734
2139.484832	170.261538
2141.133699	172.883916
2142.780548	178.876923
2144.427070	177.331469
2146.073267	175.745455
2147.715756	173.337762
2149.361303	174.546154
2151.003143	180.867133
2152.648040	179.564336
2154.289232	178.651748
2155.930100	183.062238
2157.570644	190.648252
2159.209176	195.335664
2160.849074	191.725175
2162.485272	191.265035
2164.122837	191.096503
2165.760078	189.609091
2167.395310	184.011888
2169.030221	174.995105
2170.664810	168.137063
2172.299077	162.301399
2173.929651	166.004196
2175.563277	167.786713
2177.193211	174.130070
2178.824510	173.379021
2180.453804	172.397902
2182.082779	178.432867
2183.711434	180.893706
2185.339770	188.184615
2186.966104	186.814685
2188.592119	177.305594
2190.216133	162.337063
2191.841511	160.809790
2193.464890	160.774126
2195.089632	154.546154
2196.710694	156.902797
2198.331439	148.558741
2199.953549	146.206294
2201.573661	148.456643
2203.191776	150.795105
2204.809576	165.453147
2206.427061	164.125874
2208.044230	163.546154
2209.661084	166.426573
2211.277623	172.827972
2212.892168	170.504895
2214.504721	163.975524
2216.118638	164.737762
2217.730564	159.735664
2219.343853	160.925175
2220.955152	159.816783
2222.564461	163.014685
2224.175134	162.867133
2225.783818	161.516783
2227.392190	171.257343
2228.998574	176.890210
2230.606322	178.934266
2232.212083	174.247552
2233.817533	178.428671
2235.420998	181.295804
2237.025826	185.028671
2238.628670	186.463636
2240.229532	182.432168
2241.831755	182.865734
2243.431997	179.725175
2245.033601	181.835664
2246.631553	176.715385
2248.230867	170.534266
2249.828201	167.043357
2251.425226	164.450350
2253.023614	170.948951
2254.618353	167.529371
2256.211115	165.409790
2257.805240	166.973427
2259.400726	173.071329
2260.992568	183.639161
2262.584103	187.558042
2264.176999	184.348252
2265.764586	173.888112
2267.356870	171.165734
2268.943846	176.978322
2270.533851	180.641958
2272.118551	177.081119
2273.707944	174.548951
2275.292036	175.865734
2276.877489	180.634965
2278.460972	184.684615
2280.047482	184.246154
2281.630358	179.987413
2283.212930	173.747552
2284.795199	168.594406
2286.373839	164.627273
2287.955502	174.544056
2289.533537	173.463636
2291.114595	174.637063
2292.692026	175.667832
2294.267494	179.748252
2295.845984	175.437762
2297.420850	173.579720
2298.995415	168.281119
2300.569680	162.522378
2302.143644	156.602098
2303.717308	147.616783
2305.290671	139.051049
2306.860416	147.437762
2308.429862	142.786713
2310.002326	142.883217
2311.569516	138.837063
2313.139724	143.234266
2314.706317	151.923776
2316.274270	163.031469
2317.840267	172.841958
2319.405967	178.325175
2320.971370	185.404895
2322.534818	188.567133
2324.099626	193.481818
2325.660826	202.899301
2327.225040	188.782517
2328.783992	176.537762
2330.345959	161.430070
2331.905975	154.079720
2333.465695	160.805594
2335.023466	157.192308
2336.580942	155.173427
2338.138124	158.342657
2339.693358	166.920979
2341.248299	175.597902
2342.802946	185.295105
2344.357299	195.343357
2345.911358	182.602797
2347.465123	170.964336
2349.016945	164.547552
2350.566823	164.031469
2352.119709	164.952448
2353.667353	159.371329
2355.218004	152.726573
2356.765064	148.419580
2358.313483	148.136364
2359.861609	145.972028
2361.406147	153.803497
2362.952043	151.256643
2364.496001	145.258741
2366.041316	151.681119
2367.583046	161.952448
2369.126133	165.694406
2370.667285	165.880420
2372.208147	164.358741
2373.748719	165.585315
2375.289003	167.767832
2376.828998	159.532168
2378.365415	157.369930
2379.904833	164.927273
2381.440674	158.065734
2382.977871	151.788112
2384.511493	153.966434
2386.048116	152.558042
2387.582807	145.720979
2389.115569	137.900000
2390.648044	141.838462
2392.178591	142.013287
2393.712136	144.395804
2395.240470	141.613986
2396.770161	155.729371
2398.299566	167.449650
2399.828685	173.678322
2401.357520	178.384615
2402.881149	186.472727
2404.409415	188.984615
2405.932477	185.686713
2407.460173	177.259441
2408.981030	184.579021
2410.506520	174.287413
2412.028449	161.704196
2413.551734	151.557343
2415.073098	139.365035
2416.592542	139.460839
2418.113341	146.038462
2419.632221	151.466434
2421.150819	152.279021
2422.667500	156.483916
2424.185535	162.018182
2425.703289	172.698601
2427.217492	185.486713
2428.731414	184.286713
2430.245056	176.155944
2431.760053	169.882517
2433.271501	170.518182
2434.784304	171.488112
2436.295193	179.123077
2437.805804	173.651049
2439.314503	173.319580
2440.826188	172.400000
2442.334330	168.886014
2443.842194	175.072727
2445.349780	167.425874
2446.853825	161.462937
2448.360856	169.309091
2449.865978	164.762937
2451.370823	166.948951
2452.873760	159.591608
2454.376422	171.484615
2455.878807	169.409790
2457.379287	182.622378
2458.881120	181.697203
2460.381049	181.204895
2461.880702	186.357343
2463.380079	184.799301
2464.877554	181.616084
2466.373127	185.426573
2467.871680	175.288112
2469.366705	168.606294
2470.863082	163.104196
2472.355933	167.404196
2473.850137	167.130769
2475.344067	167.969930
2476.834473	166.455944
2478.327857	164.201399
2479.819343	161.244755
2481.308932	158.800699
2482.798249	149.456643
2484.285671	156.730070
2485.776068	163.246853
2487.262946	167.672028
2488.751176	173.149650
2490.235890	179.894406
2491.720333	180.343357
2493.206128	183.170629
2494.690030	185.437762
2496.175284	182.799301
2497.655403	180.500000
2499.138496	173.939860
2500.619698	171.874126
2502.100631	177.656643
2503.579675	173.860140
2505.058450	172.831469
2506.536957	165.304196
2508.015196	160.762937
2509.493166	151.462238
2510.967632	147.313287
2512.445066	148.265734
2513.918997	142.714685
2515.394278	140.411189
2516.869293	140.982517
2518.340806	150.009091
2519.813669	158.458042
2521.284650	157.389510
2522.756981	159.115385
2524.224199	160.936364
2525.694382	160.835664
2527.162685	157.275524
2528.630723	158.165734
2530.098496	162.430769
2531.566004	152.479021
2533.033247	149.321678
2534.496998	147.434266
2535.962099	149.560140
2537.425323	149.588811
2538.889897	138.181119
2540.350981	147.594406
2541.813415	158.955944
2543.275586	160.468531
2544.734271	167.984615
2546.197528	170.061538
2547.655688	172.220280
2549.115197	166.937063
2550.569613	158.289510
2552.028598	149.559441
2553.485712	149.221678
2554.940955	146.346154
2556.395937	143.621678
2557.849049	161.251049
2559.303510	157.271329
2560.756102	156.351748
2562.208434	157.111888
2563.658898	158.370629
2565.112318	156.047552
2566.560656	153.966434
2568.011950	149.646853
2569.461377	155.168531
2570.907332	162.083217
2572.356242	161.267133
2573.801682	166.682517
2575.248470	169.058741
2576.693394	163.052448
2578.138060	155.906294
2579.584075	152.279720
2581.026622	152.586713
2582.470517	146.992308
2583.910947	149.002797
2585.352724	146.781818
2586.792642	152.851748
2588.233907	153.376224
2589.671711	158.579720
2591.112464	171.665734
2592.548154	167.762937
2593.986794	170.434965
2595.423576	158.747552
2596.858503	150.316084
2598.296377	142.547552
2599.729194	140.303497
2601.163358	137.506294
2602.595668	137.481119
2604.029324	142.903497
2605.461127	146.731469
2606.892676	157.977622
2608.323973	161.065734
2609.753417	151.975524
2611.182609	155.681818
2612.609951	151.821678
2614.038638	142.858741
2615.467074	139.927972
2616.892062	145.145455
2618.318397	143.226573
2619.742883	142.411888
2621.168715	149.588811
2622.591103	148.534965
2624.014837	156.759441
2625.436724	152.261538
2626.858362	146.448951
2628.278154	142.611189
2629.699292	138.815385
2631.120180	140.388811
2632.537630	142.886014
2633.958019	153.883916
2635.374971	155.369930
2636.791674	150.290210
2638.208130	152.218881
2639.624336	147.072028
2641.040295	145.455944
2642.454413	138.955245
2643.868284	130.067133
2645.280315	125.068531
2646.693691	129.723776
2648.103637	140.240559
2649.516518	145.558741
2650.925971	155.277622
2652.335178	168.695804
2653.742549	168.418182
2655.152855	173.690909
2656.561324	170.639860
2657.967958	170.055944
2659.374347	169.873427
2660.778902	167.458042
2662.184801	171.294406
2663.588867	170.774825
2664.992688	169.863636
2666.396266	161.683916
2667.798011	155.814685
2669.201100	161.958042
2670.600771	156.616084
2672.001786	157.678322
2673.399385	151.387413
2674.799914	144.622378
2676.197028	142.523776
2677.595485	147.278322
2678.992114	148.823077
2680.388501	154.239161
2681.784647	155.684615
2683.178966	154.802797
2684.574628	152.576224
2685.966880	149.348252
2687.360475	145.358741
2688.752247	140.399301
2690.145360	130.632168
2691.536650	126.059441
2692.926117	134.067133
2694.315344	141.475524
2695.704332	141.632867
2697.094662	150.027972
2698.480007	148.349650
2699.868276	149.359441
2701.254725	144.239161
2702.640935	142.924476
2704.026907	149.484615
2705.409479	142.749650
2706.793394	141.651748
2708.177071	147.883217
2709.560510	156.867133
2710.940553	155.721678
2712.321938	157.082517
2713.701507	151.833566
2715.082418	143.913986
2716.461513	141.716084
2717.838795	137.725874
2719.217418	139.674126
2720.594228	140.337762
2721.970802	132.080420
2723.347140	125.984615
2724.721666	125.858042
2726.097533	121.260839
2727.470013	117.781119
2728.845409	124.020280
2730.215845	131.079720
2731.587622	132.683217
2732.959164	145.169930
2734.328898	149.331469
2735.699973	154.920979
2737.069239	157.957343
2738.438273	156.442657
2739.805499	144.800699
2741.172493	140.108392
2742.539254	136.374825
2743.905782	137.527972
2745.270505	139.303497
2746.634997	141.581119
2747.999256	134.792308
2749.363283	142.174825
2750.727079	138.998601
2752.087501	140.991608
2753.450834	143.927972
2754.809224	140.437063
2756.170524	132.074825
2757.528453	126.644755
2758.889291	131.809091
2760.248330	126.093706
2761.604000	122.371329
2762.962578	112.393706
2764.317789	118.504196
2765.672772	123.160140
2767.025957	122.351748
2768.382049	129.423776
2769.734777	133.039860
2771.087276	137.869231
2772.439547	131.728671
2773.793157	135.407692
2775.143405	139.446154
2776.491860	132.306294
2777.843219	136.757343
2779.191219	128.491608
2780.540557	138.720280
2781.888104	142.376224
2783.235423	145.039161
2784.582516	142.397203
2785.927818	142.981818
2787.272894	139.489510
2788.617743	133.347552
2789.962367	143.151049
2791.303639	137.872727
2792.646249	130.010490
2793.988633	132.215385
2795.330793	127.498601
2796.669603	136.834266
2798.011312	135.788811
2799.349674	132.365734
2800.689373	130.920979
2802.027286	134.901399
2803.363415	130.402098
2804.699320	134.416783
2806.036563	136.929371
2807.372022	138.732168
2808.707258	133.994406
2810.040711	130.982517
2811.375502	133.714685
2812.706951	133.979021
2814.041296	130.574126
2815.370743	130.739161
2816.701527	128.065035
2818.032089	122.391608
2819.360872	123.771329
2820.690991	118.951748
2822.019332	120.106993
2823.347452	121.817483
2824.673794	115.590210
2826.001473	109.867832
2827.325818	112.515385
2828.651500	114.316783
2829.975406	122.550350
2831.299093	123.285315
2832.624115	118.532168
2833.945807	123.251748
2835.267281	127.262238
2836.588536	125.997902
2837.909572	129.809091
2839.228836	133.269231
2840.549435	137.443357
2841.868262	134.971329
2843.186871	138.803497
2844.503709	145.560839
2845.820330	158.434965
2847.136734	162.868531
2848.451368	157.687413
2849.767338	158.258042
2851.079987	148.103497
2852.393972	139.329371
2853.707739	128.255944
2855.021291	124.554545
2856.333075	122.161538
2857.643093	107.521678
2858.954446	107.007692
2860.262484	117.770629
2861.571857	127.428671
2862.881014	127.535664
2864.189956	126.339860
2865.497134	140.176923
2866.802550	139.450350
2868.109300	136.456643
2869.414287	136.338462
2870.719061	136.750350
2872.022073	131.291608
2873.327967	127.167133
2874.629005	125.128671
2875.931378	132.576224
2877.231991	126.732867
2878.533938	121.906294
2879.835672	125.312587
2881.134101	129.988112
2882.433865	128.532867
2883.731870	120.467133
2885.029664	126.021678
2886.325702	119.430070
2887.623073	110.290210
2888.918688	112.413986
2890.214092	99.850350
2891.509285	104.061538
2892.801181	102.472028
2894.095953	111.069231
2895.387428	122.164336
2896.680236	122.097902
2897.972834	130.219580
2899.262138	126.510490
2900.552774	143.502797
2901.841659	137.746853
2903.131877	128.260140
2904.418802	128.709091
2905.707061	128.033566
2906.993569	138.361538
2908.279870	145.695105
2909.565962	149.019580
2910.850306	141.280420
2912.137521	126.718881
2913.419910	125.448252
2914.703631	122.409790
2915.985606	125.612587
2917.267373	119.496503
2918.547396	120.751049
2919.830288	123.310490
2921.111435	122.717483
2922.389300	123.616783
2923.670034	125.613986
2924.947487	122.806993
2926.224734	119.365035
2927.500240	117.647552
2928.778613	120.201399
2930.052171	115.372727
2931.328597	121.525175
2932.603282	122.260140
2933.876227	122.816084
2935.150502	115.552448
2936.423038	114.775524
2937.695370	114.764336
2938.964428	127.280420
2940.236352	134.502797
2941.506538	132.479720
2942.776521	130.200000
2944.046300	135.174126
2945.314342	136.380420
2946.580649	136.379720
2947.846753	132.246853
2949.114187	125.816084
2950.379887	124.312587
2951.645384	126.425874
2952.910679	118.662238
2954.172709	112.035664
2955.436070	110.533566
2956.699228	104.515385
2957.960655	113.355245
2959.223411	125.313287
2960.484436	128.971329
2961.743729	128.111189
2963.002823	137.819580
2964.261716	136.369231
2965.520409	138.979720
2966.778902	133.246154
2968.035666	126.126573
2969.292230	118.783217
2970.547067	119.848951
2971.803232	122.529371
2973.056143	123.206294
2974.310383	124.345455
2975.564424	123.681818
2976.816739	122.748252
2978.068856	123.621678
2979.319247	129.155944
2980.572494	127.845455
2981.820964	123.912587
2983.072289	126.799301
2984.320364	127.183916
2985.568243	119.882517
2986.815924	120.069930
2988.063409	111.649650
2989.309171	112.806993
2990.554738	113.527972
2991.801632	111.622378
2993.045282	111.386713
2994.290260	125.993706
2995.531994	128.041958
2996.776580	130.141259
2998.019447	129.200699
2999.259073	125.374126
3000.501549	117.286713
3001.740786	113.162937
3002.981350	110.743357
3004.220197	105.998601
3005.458850	101.998601
3006.695787	100.831469
3007.934051	107.844755
3009.170601	121.190909
3010.406956	123.049650
3011.643118	127.403497
3012.877567	125.654545
3014.111822	128.655944
3015.345884	127.202098
3016.578234	127.076224
3017.808872	120.784615
3019.042356	115.146853
3020.274128	113.844755
3021.504190	116.262238
3022.734060	116.548951
3023.962220	112.714685
3025.191706	107.362937
3026.419484	110.149650
3027.647070	109.316783
3028.875982	109.722378
3030.100152	107.674825
3031.327165	111.751748
3032.550954	114.555245
3033.776070	123.939161
3034.999479	130.948951
3036.222698	134.723077
3037.444212	136.028671
3038.668567	130.660140
3039.888187	125.138462
3041.109133	130.302098
3042.329890	123.246853
3043.548943	117.647552
3044.769322	117.727972
3045.986484	122.002797
3047.204971	122.276923
3048.421756	130.493706
3049.638354	134.906294
3050.854763	140.010490
3052.067960	142.417483
3053.283994	141.332867
3054.496816	135.679720
3055.712475	140.234266
3056.923411	125.044755
3058.135672	121.887413
3059.347747	116.570629
3060.559635	109.595105
3061.769825	105.537762
3062.979829	107.857692
3064.189647	104.162937
3065.397770	106.199650
3066.605706	110.423077
3067.811948	114.781469
3069.019513	107.304895
3070.225384	117.295455
3071.431071	113.539860
3072.636572	117.419231
3073.840380	113.288811
3075.045512	110.140909
3076.248952	112.312587
3077.450699	113.181469
3078.652263	110.934266
3079.853642	113.481818
3081.054839	119.970629
3082.254344	116.630070
3083.453667	112.797902
3084.654313	113.328671
3085.853269	110.384615
3087.049031	111.103497
3088.247622	103.339161
3089.443019	100.896503
3090.639739	100.571329
3091.833267	102.829371
3093.029623	101.694406
3094.224293	103.911888
3095.415772	103.393706
3096.611582	99.776923
3097.802699	105.684615
3098.995138	104.961538
3100.184390	111.498601
3101.376468	114.249650
3102.566861	116.349650
3103.754069	115.629371
3104.942600	110.237063
3106.132452	106.638462
3107.319121	102.308392
3108.505610	95.605594
3109.691919	95.126573
3110.879550	94.350350
3112.064000	101.958042
3113.246769	100.714685
3114.432361	97.626573
3115.616274	98.144755
3116.798508	101.853147
3117.980563	97.246154
3119.162441	93.847552
3120.344140	93.606993
3121.524161	93.990210
3122.702506	90.627273
3123.883672	93.689510
3125.061662	93.551748
3126.239475	98.767133
3127.417111	99.814685
3128.593072	95.331469
3129.768856	96.212587
3130.945962	97.330769
3132.121393	92.004196
3133.295151	88.479720
3134.467237	82.853147
3135.640643	76.158741
3136.813874	76.375524
3137.985432	79.037063
3139.158311	84.727273
3140.328024	90.310490
3141.499056	95.520280
3142.668419	97.444056
3143.836112	102.593706
3145.006620	108.801399
3146.172469	105.189510
3147.342628	102.739161
3148.508129	94.969231
3149.673457	98.013287
3150.838611	107.093706
3152.003591	105.950350
3153.169892	106.387413
3154.331539	108.777622
3155.494506	104.855944
3156.657301	104.677622
3157.819923	103.751748
3158.980880	102.537762
3160.141664	95.163636
3161.302276	91.497902
3162.461225	86.994406
3163.620001	95.053147
3164.778606	100.504895
3165.937039	102.083916
3167.095300	102.241958
3168.251899	103.939860
3169.406837	101.841958
3170.563094	104.760140
3171.717690	96.312587
3172.872116	93.620280
3174.024882	92.283217
3175.177478	94.221678
3176.329903	96.441958
3177.482159	100.483916
3178.634244	99.667133
3179.783184	97.262238
3180.934930	93.454545
3182.085018	94.237762
3183.233450	98.567832
3184.381713	100.878322
3185.529806	99.988811
3186.677731	102.904895
3187.824001	100.048951
3188.970102	102.251049
3190.114548	101.080420
3191.258827	91.265035
3192.402938	88.827273
3193.548367	86.686014
3194.690656	86.551748
3195.832779	90.532867
3196.974734	90.288112
3198.116523	93.013986
3199.258144	99.118182
3200.396629	100.168531
3201.536432	105.551049
3202.677553	108.304895
3203.815539	100.250350
3204.951876	98.895105
3206.088047	101.748951
3207.225536	97.862238
3208.361375	95.802797
3209.498532	95.859441
3210.631076	92.879021
3211.767902	94.070629
3212.900116	94.466434
3214.033647	99.146853
3215.167014	105.503497
3216.297253	102.646154
3217.430290	96.442657
3218.560201	104.055245
3219.691428	99.337762
3220.819531	93.846154
3221.950430	92.197203
3223.079685	86.288112
3224.207297	83.967832
3225.331787	82.542657
3226.460551	81.449650
3227.586194	91.320280
3228.711675	93.075524
3229.835514	95.940559
3230.962147	101.069930
3232.084183	115.405594
3233.207535	112.295804
3234.330725	115.441259
3235.453753	111.802098
3236.575141	101.313287
3237.696368	93.723776
3238.815956	89.587413
3239.935383	84.889510
3241.053172	83.409790
3242.173754	76.306294
3243.291221	79.197203
3244.408528	86.253147
3245.525675	89.012587
3246.641186	88.085315
3247.758012	99.093706
3248.871727	98.799301
3249.988232	98.873427
3251.103103	99.367832
3252.214865	101.790909
3253.326468	102.883217
3254.439385	102.747552
3255.552144	99.210490
3256.661796	101.393706
3257.772762	105.940559
3258.883570	105.283916
3259.992747	106.324476
3261.100292	105.900699
3262.209151	103.400699
3263.317853	98.583217
3264.423452	98.091608
3265.530365	97.257343
3266.635649	95.877622
3267.742248	97.049650
3268.845746	94.870629
3269.950558	101.444056
3271.055213	103.224476
3272.156769	104.044056
3273.258170	95.784615
3274.360884	87.626573
3275.463441	87.930769
3276.562902	85.880420
3277.665147	85.729371
3278.764296	84.318881
3279.861821	83.392308
3280.959190	82.518182
3282.059342	79.362937
3283.156400	79.661538
3284.253303	74.801399
3285.350051	72.939860
3286.442241	68.313287
3287.538679	72.690210
3288.633495	77.458741
3289.728157	84.551049
3290.821197	88.832168
3291.914083	90.143357
3293.005348	90.594406
3294.097926	86.936364
3295.188883	91.992308
3296.278221	93.753147
3297.367406	90.801399
3298.457904	90.569231
3299.545317	91.122378
3300.632578	90.857343
3301.721151	85.885315
3302.809571	86.071329
3303.893444	87.176923
3304.981559	80.104196
3306.066593	79.188811
3307.150010	72.601399
3308.234740	72.104895
3309.317855	66.188811
3310.402281	66.488811
3311.483629	76.118881
3312.566289	77.870629
3313.647335	80.094406
3314.728230	86.114685
3315.807511	89.672727
3316.886643	94.255245
3317.967085	90.272727
3319.044454	92.329371
3320.123133	87.476923
3321.200202	84.613986
3322.277120	81.149650
3323.352427	87.379720
3324.427585	91.024476
3325.504054	87.077622
3326.577453	83.983217
3327.650703	84.167832
3328.725263	84.299301
3329.798215	88.009091
3330.869558	87.889510
3331.942213	91.054545
3333.011800	89.300000
3334.082698	85.981818
3335.151989	88.709790
3336.222591	89.751049
3337.291586	88.439860
3338.358975	80.666434
3339.424759	79.030769
3340.494769	83.406294
3341.561716	84.595105
3342.625601	93.367832
3343.692254	96.625175
3344.757302	100.683217
3345.820747	97.226573
3346.884046	100.860140
3347.947198	99.293706
3349.010204	98.422378
3350.073064	96.071329
3351.134322	84.636364
3352.192523	85.990210
3353.254945	83.029371
3354.314310	74.231469
3355.373530	73.774126
3356.434060	70.127972
3357.490080	75.186713
3358.548865	75.867133
3359.603142	90.482517
3360.660182	97.282517
3361.715625	103.185315
3362.772376	103.369930
3363.827529	103.276224
3364.881086	104.592308
3365.933045	95.623077
3366.987766	83.215385
3368.039438	75.336364
3369.090967	75.964336
3370.143804	75.951748
3371.193594	77.707692
3372.244693	85.641259
3373.292746	86.018881
3374.343559	83.334965
3375.391326	90.241259
3376.438951	90.804895
3377.486433	90.464336
3378.532323	88.380420
3379.579521	80.465734
3380.623677	81.063636
3381.670591	84.949650
3382.715913	82.542657
3383.758194	79.861538
3384.800335	73.250350
3385.843783	70.907692
3386.887091	74.030769
3387.928808	82.176923
3388.970384	86.912587
3390.011820	97.409790
3391.051666	101.067832
3392.089924	98.020280
3393.129491	100.302098
3394.168916	99.593007
3395.206754	99.224476
3396.243005	85.039860
3397.279117	80.513287
3398.316536	74.713986
3399.350922	77.327972
3400.386615	82.130070
3401.422169	82.984615
3402.454692	86.723077
3403.489968	90.127273
3404.522213	101.231469
3405.554320	104.025874
3406.584843	102.200000
3407.616673	100.024476
3408.648365	95.434266
3409.677030	97.748951
3410.705556	88.945455
3411.735390	86.482517
3412.765085	80.430070
3413.791755	70.590909
3414.819732	68.599301
3415.844684	68.067832
3416.872386	72.532867
3417.897065	69.080420
3418.923050	69.151049
3419.947455	71.775524
3420.971724	73.862238
3421.994414	75.274825
3423.016968	74.297203
3424.040828	73.903497
3425.061668	74.605594
3426.082373	73.378721
3427.104383	73.234865
3428.123375	74.913886
3429.142232	79.155644
3430.162394	86.700000
3431.179540	98.286813
