-116.654669	4.027000
-113.985068	3.287000
-111.318403	5.568000
-108.652490	5.097000
-105.989510	6.227000
-103.325099	4.654000
-100.663619	4.508000
-98.000710	4.043000
-95.342908	4.479000
-92.683675	3.455000
-90.025191	4.748000
-87.369632	3.788000
-84.712643	5.917000
-82.060753	3.498000
-79.407433	3.240000
-76.757032	5.484000
-74.105203	4.816000
-71.458464	4.233000
-68.810295	5.382000
-66.162870	3.006000
-63.518358	4.500000
-60.872417	3.263000
-58.231559	5.430000
-55.589270	3.665000
-52.949891	4.809000
-50.309083	4.634000
-47.669014	2.518000
-45.034019	4.736000
-42.397594	4.431000
-39.764073	7.288000
-37.129122	3.949000
-34.499238	5.943000
-31.865760	4.707000
-29.237345	4.823000
-26.609664	5.362000
-23.980555	4.976000
-21.356502	4.220000
-18.728859	5.709000
-16.106271	5.848000
-13.484413	4.807000
-10.863286	5.848000
-8.242890	6.304000
-5.625381	12.751000
-3.006444	30.255000
-0.390393	57.956000
2.224931	60.527000
4.839526	32.578000
7.451240	9.242000
10.064381	5.453000
12.672490	5.485000
15.284179	7.145000
17.890838	6.624000
20.498925	7.061000
23.106288	7.084000
25.708626	6.305000
28.314542	5.266000
30.915437	5.701000
33.517759	6.737000
36.115063	5.991000
38.715943	6.881000
41.311809	7.782000
43.909102	6.417000
46.505676	6.933000
49.097241	5.294000
51.690235	6.546000
54.280367	7.241000
56.871926	5.750000
59.460626	6.160000
62.050754	7.441000
64.635882	9.558000
67.222438	7.836000
69.808279	6.319000
72.391267	9.235000
74.975682	8.725000
77.552967	7.678000
80.133819	8.687000
82.711822	8.321000
85.289115	8.199000
87.867835	10.561000
90.441572	9.262000
93.016736	10.181000
95.589057	10.998000
98.160671	10.927000
100.729444	10.436000
103.299644	11.986000
105.867005	14.312000
108.435793	13.353000
111.001744	17.402000
113.564859	21.126000
116.131532	24.620000
118.688982	33.108000
121.252118	44.088000
123.810295	62.550000
126.372026	88.362000
128.928800	130.147000
131.487000	196.263000
134.040248	293.815000
136.592797	430.034000
139.148898	607.968000
141.700050	811.625000
144.250505	1023.582000
146.800262	1196.009000
149.347200	1335.476000
151.893443	1412.277000
154.441111	1464.129000
156.988083	1494.495000
159.530119	1489.624000
162.071463	1492.345000
164.612113	1499.257000
167.154188	1497.188000
169.693453	1507.148000
172.229908	1503.549000
174.765673	1503.166000
177.302863	1499.902000
179.839362	1494.914000
182.373055	1497.730000
184.903944	1489.463000
187.434145	1482.469000
189.965771	1483.089000
192.494597	1491.865000
195.020623	1489.193000
197.545963	1485.532000
200.072728	1491.804000
202.596697	1491.351000
205.119980	1487.535000
207.642579	1488.463000
210.162385	1481.350000
212.681508	1473.851000
215.199948	1468.589000
217.719813	1465.612000
220.232675	1464.558000
222.749069	1469.244000
225.264782	1469.201000
227.775604	1461.746000
230.287851	1466.978000
232.797315	1463.230000
235.306101	1461.859000
237.814209	1468.284000
240.323741	1461.475000
242.828392	1462.743000
245.332367	1453.535000
247.837766	1456.756000
250.338290	1458.276000
252.842337	1461.823000
255.339414	1457.189000
257.840013	1457.304000
260.337841	1458.479000
262.834996	1446.639000
265.331479	1450.403000
267.823098	1445.012000
270.318236	1445.320000
272.810609	1439.078000
275.302311	1444.403000
277.791250	1441.737000
280.281612	1433.077000
282.769213	1423.086000
285.254054	1426.256000
287.742410	1418.295000
290.223826	1410.537000
292.708756	1410.022000
295.188840	1410.997000
297.672437	1400.046000
300.151192	1404.967000
302.631369	1401.949000
305.108795	1398.849000
307.585557	1388.776000
310.061655	1386.821000
312.535005	1376.572000
315.007694	1379.414000
317.479721	1372.742000
319.951086	1383.645000
322.419708	1383.663000
324.887670	1389.781000
327.357055	1382.545000
329.821617	1382.761000
332.289683	1384.217000
334.752928	1382.585000
337.215517	1387.677000
339.677448	1376.811000
342.138724	1383.534000
344.597264	1381.787000
347.057227	1371.712000
349.514458	1373.602000
351.971034	1367.753000
354.426955	1363.821000
356.880148	1352.516000
359.334763	1351.793000
361.784576	1349.023000
364.237885	1346.388000
366.686395	1338.677000
369.134255	1331.832000
371.583536	1334.427000
374.028024	1334.271000
376.473934	1324.979000
378.919195	1318.439000
381.361737	1324.588000
383.803631	1318.216000
386.244877	1319.230000
388.683408	1320.524000
391.123361	1313.072000
393.560600	1319.708000
395.995127	1310.749000
398.433142	1327.338000
400.866381	1320.551000
403.301040	1312.982000
405.730927	1318.870000
408.164299	1317.557000
410.592901	1323.990000
413.020861	1308.602000
415.450242	1311.536000
417.874859	1318.512000
420.300896	1310.510000
422.726294	1306.283000
425.151051	1302.285000
427.571049	1300.848000
429.992469	1301.319000
432.411192	1295.258000
434.831336	1294.745000
437.248785	1297.025000
439.667655	1298.639000
442.083830	1302.700000
444.495259	1301.916000
446.910164	1301.154000
449.322379	1300.607000
451.733960	1307.488000
454.144908	1303.875000
456.553168	1302.989000
458.960797	1294.452000
461.367793	1297.256000
463.774157	1287.820000
466.177840	1294.670000
468.580892	1287.037000
470.983314	1288.842000
473.385106	1285.480000
475.784220	1284.477000
478.184754	1282.293000
480.584659	1282.296000
482.979842	1274.932000
485.378490	1281.463000
487.772419	1268.011000
490.165722	1267.270000
492.558399	1261.705000
494.950451	1264.481000
497.343922	1252.443000
499.732680	1256.173000
502.118772	1259.543000
504.506284	1252.190000
506.893173	1249.797000
509.277397	1248.472000
511.663041	1251.458000
514.046022	1246.863000
516.426343	1246.211000
518.808083	1255.830000
521.187165	1243.413000
523.567664	1247.076000
525.945506	1241.228000
528.320693	1246.928000
530.695262	1238.317000
533.071250	1243.008000
535.444584	1237.503000
537.819337	1238.914000
540.189403	1236.127000
542.558854	1235.676000
544.929724	1235.560000
547.295912	1228.528000
549.663519	1236.099000
552.028480	1228.294000
554.392829	1227.792000
556.756564	1229.171000
559.121717	1230.826000
561.482198	1232.593000
563.844096	1237.034000
566.203355	1228.608000
568.559975	1228.539000
570.920041	1233.430000
573.273415	1226.278000
575.630234	1235.395000
577.984418	1228.226000
580.337993	1225.877000
582.690961	1221.935000
585.041296	1218.994000
587.393049	1218.895000
589.738124	1216.841000
592.088664	1210.623000
594.432531	1208.735000
596.781859	1204.994000
599.126538	1198.861000
601.468593	1202.661000
603.812065	1196.218000
606.152914	1192.886000
608.493160	1187.494000
610.830786	1192.022000
613.171847	1178.291000
615.508271	1179.733000
617.846111	1174.198000
620.181333	1164.378000
622.513940	1169.656000
624.847964	1168.374000
627.179373	1170.088000
629.510184	1165.208000
631.840397	1159.723000
634.170013	1160.546000
636.495005	1162.298000
638.825439	1163.856000
641.151251	1158.870000
643.474457	1168.495000
645.799079	1166.446000
648.121095	1166.065000
650.442517	1165.190000
652.761336	1170.842000
655.081571	1166.436000
657.401213	1166.545000
659.718255	1168.883000
662.034704	1168.998000
664.348555	1162.389000
666.663822	1167.909000
668.976491	1170.132000
671.290576	1161.031000
673.600062	1172.727000
675.910962	1172.610000
678.219270	1165.924000
680.526990	1170.776000
682.836125	1172.143000
685.140667	1174.348000
687.444623	1163.692000
689.747992	1164.203000
692.052777	1166.514000
694.352974	1156.139000
696.654587	1166.262000
698.955614	1152.341000
701.252060	1151.417000
703.549920	1150.390000
705.847198	1141.615000
708.143891	1142.985000
710.436010	1137.845000
712.731538	1134.428000
715.022494	1144.906000
717.314864	1136.470000
719.604658	1135.186000
721.893873	1132.466000
724.182508	1128.378000
726.468570	1130.362000
728.756046	1136.167000
731.040952	1126.371000
733.325280	1132.153000
735.607039	1130.530000
737.890212	1123.486000
740.172808	1122.936000
742.450848	1122.674000
744.730302	1121.703000
747.009181	1128.257000
749.287485	1130.473000
751.561238	1128.898000
753.836406	1125.344000
756.111000	1127.778000
758.383035	1117.364000
760.656483	1124.931000
762.927373	1123.165000
765.195707	1116.417000
767.465454	1119.907000
769.732646	1116.354000
771.999269	1119.516000
774.265321	1119.264000
776.528822	1109.628000
778.793735	1111.625000
781.058080	1114.387000
783.317894	1110.057000
785.579122	1106.385000
787.839782	1111.359000
790.097895	1112.099000
792.353465	1107.398000
794.612424	1108.645000
796.864885	1105.537000
799.122713	1105.151000
801.376022	1101.757000
803.626790	1099.765000
805.878972	1094.991000
808.128614	1095.838000
810.379668	1093.637000
812.626211	1086.673000
814.874167	1086.933000
817.119587	1094.712000
819.366420	1088.011000
821.612690	1086.247000
823.854457	1088.895000
826.099606	1087.828000
828.338284	1085.817000
830.580343	1084.257000
832.817904	1083.249000
835.056877	1087.392000
837.293323	1082.310000
839.531180	1079.138000
841.766512	1076.761000
843.999320	1085.642000
846.233540	1079.690000
848.465238	1079.351000
850.696381	1078.688000
852.926969	1076.880000
855.157003	1080.852000
857.386482	1074.429000
859.611481	1075.828000
861.839853	1072.730000
864.063747	1072.643000
866.289052	1068.009000
868.509880	1071.314000
870.734082	1068.326000
872.953810	1062.321000
875.174948	1060.675000
877.395536	1063.882000
879.613615	1063.496000
881.833103	1059.199000
884.048125	1058.807000
886.262599	1054.211000
888.476526	1056.797000
890.689905	1049.161000
892.902738	1043.094000
895.115023	1039.700000
897.324807	1045.786000
899.534045	1040.492000
901.742737	1043.126000
903.948931	1040.319000
906.156534	1038.527000
908.361640	1039.284000
910.566202	1041.966000
912.768269	1042.668000
914.971745	1038.875000
917.172727	1046.848000
919.373167	1043.625000
921.575016	1046.756000
923.770474	1044.587000
925.969290	1048.118000
928.163669	1052.701000
930.361405	1047.376000
932.554705	1052.929000
934.749413	1057.217000
936.941636	1049.684000
939.133321	1051.888000
941.324468	1053.009000
943.513132	1058.035000
945.701259	1064.147000
947.886906	1055.718000
950.075906	1060.758000
952.260481	1064.851000
954.444522	1067.065000
956.631914	1064.354000
958.811001	1069.791000
960.993439	1073.699000
963.175342	1072.461000
965.354772	1078.690000
967.531729	1081.795000
969.710094	1086.111000
971.889865	1089.831000
974.063288	1085.909000
976.240058	1089.361000
978.412420	1088.801000
980.586190	1089.163000
982.755556	1087.634000
984.928266	1092.032000
987.098510	1089.793000
989.268226	1086.380000
991.437413	1086.293000
993.602203	1086.273000
995.770335	1088.197000
997.934071	1082.221000
1000.099215	1082.310000
1002.261899	1084.777000
1004.424058	1081.922000
1006.583759	1093.626000
1008.742937	1080.410000
1010.903521	1078.801000
1013.061650	1072.597000
1015.219256	1075.436000
1017.376337	1068.380000
1019.532896	1064.841000
1021.685075	1072.746000
1023.838661	1063.946000
1025.991725	1066.022000
1028.142340	1065.364000
1030.294361	1065.367000
1032.442010	1064.447000
1034.592990	1067.600000
1036.739599	1061.242000
1038.885689	1062.737000
1041.031261	1060.686000
1043.178238	1056.459000
1045.318926	1057.198000
1047.462943	1047.505000
1049.604521	1050.612000
1051.745581	1047.561000
1053.888047	1043.208000
1056.024232	1041.827000
1058.163744	1037.863000
1060.298900	1033.833000
1062.437381	1034.050000
1064.571509	1024.731000
1066.705123	1023.234000
1068.840141	1016.394000
1070.970810	1018.960000
1073.102885	1017.047000
1075.232529	1010.016000
1077.361662	1010.929000
1079.490284	1004.413000
1081.618394	1004.046000
1083.744078	1000.849000
1085.869252	1002.312000
1087.995830	999.812000
1090.118070	995.839000
1092.241715	997.087000
1094.361025	993.841000
1096.485564	988.329000
1098.603859	984.605000
1100.723557	988.261000
1102.840838	987.415000
1104.957611	980.716000
1107.073878	984.713000
1109.187730	982.183000
1111.302985	975.448000
1113.413918	975.263000
1115.528163	969.394000
1117.638087	970.985000
1119.749414	965.233000
1121.860238	962.396000
1123.966745	954.221000
1126.076561	961.506000
1128.182063	957.984000
1130.288969	955.834000
1132.389659	949.477000
1134.495560	952.712000
1136.597154	952.690000
1138.700149	951.431000
1140.802644	944.517000
1142.898933	940.058000
1145.000428	943.158000
1147.097621	941.414000
1149.194315	936.592000
1151.290512	942.153000
1153.386210	942.720000
1155.481411	936.256000
1157.574215	934.562000
1159.668421	938.570000
1161.756436	936.359000
1163.849649	939.407000
1165.936674	935.384000
1168.026999	931.508000
1170.113035	936.758000
1172.202369	935.283000
1174.285522	933.790000
1176.370078	937.303000
1178.456035	932.349000
1180.537710	934.356000
1182.620786	935.262000
1184.701477	935.494000
1186.781677	936.741000
1188.861385	935.614000
1190.940602	937.443000
1193.017436	932.483000
1195.091890	936.580000
1197.169636	933.119000
1199.243111	929.466000
1201.317988	934.050000
1203.388597	936.049000
1205.460607	931.890000
1207.530241	932.355000
1209.601276	925.161000
1211.671823	932.044000
1213.738110	927.943000
1215.805797	928.617000
1217.871111	928.241000
1219.937826	930.174000
1222.000285	930.085000
1224.066030	924.508000
1226.127520	933.926000
1228.190410	932.795000
1230.250933	930.295000
1232.310973	924.003000
1234.370529	929.082000
1236.427721	934.543000
1238.484430	933.090000
1240.538777	931.648000
1242.596404	931.604000
1244.651669	934.381000
1246.702693	933.816000
1248.755118	930.628000
1250.807062	933.246000
1252.856648	934.805000
1254.905755	935.102000
1256.954383	936.712000
1259.002533	937.052000
1261.050205	937.938000
1263.093646	942.671000
1265.140362	933.193000
1267.184726	937.258000
1269.228612	941.047000
1271.270148	941.914000
1273.309334	939.498000
1275.351792	937.669000
1277.390029	943.513000
1279.429663	944.721000
1281.468823	945.114000
1283.503765	952.491000
1285.540105	953.518000
1287.574100	964.961000
1289.609494	968.163000
1291.640674	973.042000
1293.673253	983.944000
1295.705360	998.529000
1297.735126	1004.331000
1299.766289	1017.236000
1301.793245	1034.308000
1303.821599	1046.891000
1305.845749	1067.668000
1307.873164	1086.043000
1309.896376	1109.451000
1311.920986	1143.198000
1313.943261	1186.872000
1315.966934	1246.459000
1317.988274	1335.872000
1320.009147	1510.674000
1322.029552	1808.873000
1324.045764	2490.253000
1326.063373	4072.563000
1328.078654	8080.590000
1330.097194	15423.159000
1332.111544	21076.517000
1334.123569	17946.938000
1336.138852	9531.254000
1338.149949	3844.533000
1340.162442	2109.454000
1342.170753	1573.749000
1344.182320	1303.814000
1346.187848	1178.125000
1348.196631	1102.190000
1350.201236	1058.152000
1352.209095	1019.251000
1354.216492	997.012000
1356.217857	966.360000
1358.220620	959.561000
1360.222923	948.998000
1362.224766	935.254000
1364.226149	928.102000
1366.225218	925.486000
1368.223829	918.359000
1370.221982	914.467000
1372.219677	906.101000
1374.213208	899.550000
1376.208136	905.106000
1378.202607	902.464000
1380.196621	905.959000
1382.188328	907.328000
1384.179579	904.788000
1386.168525	905.769000
1388.158866	907.891000
1390.148752	902.463000
1392.136335	910.873000
1394.123464	905.646000
1396.108291	911.190000
1398.094513	909.716000
1400.078434	906.430000
1402.061903	917.108000
1404.044920	917.826000
1406.025639	920.570000
1408.007752	914.019000
1409.987568	919.304000
1411.966934	910.933000
1413.942161	923.603000
1415.920626	918.125000
1417.896798	919.949000
1419.872520	923.601000
1421.847793	924.231000
1423.820776	926.711000
1425.793310	930.990000
1427.765396	924.830000
1429.737034	926.718000
1431.704545	927.159000
1433.677129	930.979000
1435.641907	927.828000
1437.611758	932.055000
1439.577484	930.495000
1441.544604	934.857000
1443.509440	925.474000
1445.470156	928.118000
1447.435940	927.942000
1449.395769	928.312000
1451.356991	929.903000
1453.319606	928.750000
1455.278106	926.391000
1457.236164	930.152000
1459.193779	929.609000
1461.150953	918.110000
1463.105851	923.996000
1465.062141	920.376000
1467.016158	917.718000
1468.969733	913.245000
1470.921036	915.067000
1472.873731	914.981000
1474.824155	905.087000
1476.774140	902.873000
1478.723686	907.376000
1480.670962	904.100000
1482.615972	900.046000
1484.562374	903.625000
1486.508338	904.767000
1488.453865	909.927000
1490.397126	902.759000
1492.339951	907.558000
1494.280513	898.371000
1496.222467	900.830000
1498.162158	903.961000
1500.101414	907.627000
1502.040236	907.681000
1503.976798	902.773000
1505.914751	906.426000
1507.850445	901.859000
1509.785706	897.970000
1511.718710	892.369000
1513.651282	893.357000
1515.583422	900.965000
1517.515130	896.532000
1519.444585	901.952000
1521.375430	896.513000
1523.305843	903.359000
1525.232184	902.055000
1527.159915	905.903000
1529.085396	903.593000
1531.010449	900.701000
1532.935071	899.780000
1534.859265	903.995000
1536.781212	901.500000
1538.704548	898.619000
1540.625639	904.891000
1542.544485	901.358000
1544.464721	905.579000
1546.382713	899.192000
1548.300279	895.415000
1550.215604	900.704000
1552.132317	891.821000
1554.044976	887.171000
1555.960839	884.416000
1557.874463	885.125000
1559.785848	880.995000
1561.698623	873.713000
1563.607348	874.858000
1565.517462	879.351000
1567.427153	867.687000
1569.336421	873.966000
1571.243454	869.424000
1573.148255	865.580000
1575.054445	866.865000
1576.958404	865.982000
1578.861941	861.411000
1580.765057	860.477000
1582.665945	865.654000
1584.568221	858.782000
1586.468268	860.900000
1588.369704	863.327000
1590.267105	859.403000
1592.164089	865.315000
1594.060654	854.063000
1595.958606	864.582000
1597.850724	860.132000
1599.746036	857.248000
1601.640929	859.930000
1603.533602	853.405000
1605.425857	853.873000
1607.315893	847.798000
1609.205513	846.800000
1611.094718	844.734000
1612.983507	847.747000
1614.870080	844.917000
1616.758040	848.371000
1618.641983	844.208000
1620.527313	846.161000
1622.412230	843.146000
1624.294933	837.188000
1626.179023	836.751000
1628.059101	839.053000
1629.940566	840.947000
1631.819821	835.767000
1633.700462	833.205000
1635.575300	831.584000
1637.455118	833.735000
1639.330931	829.619000
1641.206335	828.775000
1643.083124	828.840000
1644.954116	828.103000
1646.828291	826.079000
1648.698466	823.164000
1650.571822	823.499000
1652.442975	821.467000
1654.311926	818.433000
1656.182263	821.391000
1658.048606	809.277000
1659.916336	811.457000
1661.781866	807.912000
1663.648782	805.301000
1665.511708	803.196000
1667.376020	795.910000
1669.238137	801.509000
1671.099848	794.615000
1672.962944	792.784000
1674.823846	797.012000
1676.682555	789.839000
1678.540860	787.526000
1680.400549	789.566000
1682.254472	786.039000
1684.111568	791.705000
1685.968260	791.536000
1687.820977	784.152000
1689.676865	788.420000
1691.528779	785.428000
1693.380292	783.570000
1695.231404	778.523000
1697.082115	780.616000
1698.932426	779.296000
1700.780553	778.856000
1702.630064	772.523000
1704.473825	769.516000
1706.322537	770.555000
1708.165502	766.556000
1710.011633	765.226000
1711.853803	761.221000
1713.699137	762.442000
1715.538731	762.303000
1717.379709	754.450000
1719.222071	758.204000
1721.060475	751.634000
1722.900263	751.652000
1724.737876	746.269000
1726.575093	748.262000
1728.410137	745.601000
1730.246565	744.125000
1732.080819	738.458000
1733.914680	733.090000
1735.748146	734.419000
1737.577666	733.644000
1739.410345	727.392000
1741.239080	730.847000
1743.070973	725.839000
1744.898923	730.640000
1746.726481	717.579000
1748.553648	715.799000
1750.380423	721.148000
1752.206806	713.526000
1754.029253	712.462000
1755.854855	708.069000
1757.676521	711.091000
1759.499570	709.570000
1761.320458	706.371000
1763.140956	708.604000
1764.962836	706.061000
1766.779016	704.410000
1768.598348	704.025000
1770.413753	701.126000
1772.232309	699.798000
1774.046939	702.875000
1775.861182	698.836000
1777.675039	694.600000
1779.488509	698.750000
1781.299825	695.330000
1783.112523	697.071000
1784.924834	700.260000
1786.733228	691.364000
1788.543003	696.814000
1790.348862	692.304000
1792.157868	692.799000
1793.962960	691.061000
1795.769432	690.349000
1797.575521	686.387000
1799.377700	690.168000
1801.183022	689.108000
1802.984436	689.809000
1804.787230	692.595000
1806.586119	689.035000
1808.386387	688.663000
1810.186275	686.207000
1811.984020	688.286000
1813.781385	687.138000
1815.578369	685.406000
1817.374973	686.600000
1819.169438	684.703000
1820.965283	683.856000
1822.755472	684.199000
1824.550558	685.212000
1826.339991	684.456000
1828.132562	683.915000
1829.922997	680.250000
1831.711297	679.287000
1833.502733	682.255000
1835.288524	681.103000
1837.075693	681.316000
1838.860732	678.329000
1840.648903	676.863000
1842.433189	675.318000
1844.215346	678.077000
1845.998882	677.173000
1847.780289	674.372000
1849.563074	681.054000
1851.341980	679.783000
1853.122264	676.233000
1854.900423	680.081000
1856.679959	673.364000
1858.457371	674.927000
1860.232660	676.716000
1862.009326	677.075000
1863.783870	674.211000
1865.559791	676.348000
1867.330093	676.974000
1869.103522	677.902000
1870.874831	677.263000
1872.645769	676.562000
1874.418084	678.995000
1876.184787	679.717000
1877.954614	677.494000
1879.720578	680.832000
1881.489666	679.670000
1883.254892	676.684000
1885.019750	677.680000
1886.785984	674.836000
1888.548360	677.177000
1890.310369	672.892000
1892.072011	674.355000
1893.833285	673.655000
1895.594193	675.021000
1897.354733	672.496000
1899.113165	677.535000
1900.871230	671.577000
1902.627188	673.944000
1904.384522	674.112000
1906.141491	674.769000
1907.896353	675.013000
1909.649110	675.007000
1911.401504	676.534000
1913.155274	675.625000
1914.906940	675.124000
1916.656503	676.216000
1918.407443	670.703000
1920.158019	676.269000
1921.904757	679.944000
1923.652870	678.550000
1925.398884	678.204000
1927.146274	679.531000
1928.891565	678.508000
1930.634759	679.991000
1932.379329	678.480000
1934.121802	679.039000
1935.863915	682.065000
1937.605669	682.120000
1939.347062	683.312000
1941.086362	683.456000
1942.825303	681.959000
1944.563885	687.850000
1946.300376	686.341000
1948.036508	686.603000
1949.774015	686.865000
1951.507701	688.940000
1953.242761	688.337000
1954.975732	691.298000
1956.708347	689.904000
1958.440605	688.651000
1960.172507	693.954000
1961.902323	697.535000
1963.630055	694.703000
1965.359161	700.097000
1967.087911	696.540000
1968.814578	702.795000
1970.540891	699.537000
1972.268578	703.435000
1973.990728	705.078000
1975.715979	705.440000
1977.437423	707.979000
1979.161967	708.621000
1980.884432	707.975000
1982.603093	712.198000
1984.324853	714.219000
1986.042811	714.026000
1987.762143	709.843000
1989.477674	714.317000
1991.198027	717.386000
1992.914581	715.561000
1994.627338	716.022000
1996.343191	716.818000
1998.056972	714.610000
1999.770403	721.113000
2001.481763	717.634000
2003.194495	722.607000
2004.903436	718.977000
2006.615471	724.484000
2008.321996	721.930000
2010.031614	725.395000
2011.739164	727.809000
2013.446367	727.053000
2015.151504	724.796000
2016.856294	722.881000
2018.562457	723.905000
2020.264836	726.761000
2021.968588	731.988000
2023.670277	721.101000
2025.371620	728.143000
2027.072619	723.656000
2028.771556	725.734000
2030.471865	726.784000
2032.168398	725.727000
2033.866303	729.130000
2035.562150	725.921000
2037.261082	728.773000
2038.954528	726.760000
2040.649345	727.843000
2042.343819	729.706000
2044.034525	730.228000
2045.728315	726.319000
2047.418338	732.132000
2049.109732	725.209000
2050.799073	729.739000
2052.489784	722.545000
2054.176733	727.624000
2055.863341	726.654000
2057.551320	727.139000
2059.235539	724.621000
2060.921128	723.246000
2062.606378	728.384000
2064.289580	720.630000
2065.974152	724.299000
2067.653260	717.553000
2069.337155	722.279000
2071.015588	716.960000
2072.697099	717.631000
2074.374858	719.292000
2076.052281	720.984000
2077.731073	717.510000
2079.407822	717.775000
2081.082530	719.652000
2082.758607	721.432000
2084.432644	719.424000
2086.106345	718.119000
2087.779712	718.274000
2089.451039	716.659000
2091.122032	713.099000
2092.792691	714.851000
2094.463016	715.996000
2096.133006	715.859000
2097.800961	713.200000
2099.468583	714.831000
2101.134171	713.459000
2102.801127	720.735000
2104.466050	717.289000
2106.130640	723.501000
2107.793199	719.845000
2109.457127	726.334000
2111.119023	722.179000
2112.780588	725.218000
2114.441823	725.387000
2116.101028	727.113000
2117.759904	728.152000
2119.418449	727.890000
2121.076665	731.557000
2122.731158	727.013000
2124.388715	723.216000
2126.045942	727.837000
2127.699449	724.838000
2129.354323	724.111000
2131.005478	725.639000
2132.659696	726.178000
2134.310196	720.343000
2135.962064	726.189000
2137.608523	716.288000
2139.259736	720.393000
2140.907237	723.476000
2142.556104	726.124000
2144.202952	726.142000
2145.849475	723.575000
2147.495672	727.920000
2149.138160	724.387000
2150.783707	727.665000
2152.425547	726.428000
2154.070444	727.546000
2155.711636	723.137000
2157.352504	725.216000
2158.993049	723.915000
2160.631581	723.750000
2162.271479	726.504000
2163.907677	723.581000
2165.545241	719.867000
2167.182483	721.668000
2168.817715	718.414000
2170.452625	723.794000
2172.087214	722.350000
2173.721482	725.908000
2175.352056	722.734000
2176.985682	722.407000
2178.615615	724.556000
2180.246915	721.031000
2181.876209	725.203000
2183.505184	723.520000
2185.133839	724.299000
2186.762175	726.298000
2188.388508	724.354000
2190.014523	720.983000
2191.638537	723.130000
2193.263916	722.046000
2194.887294	718.669000
2196.512037	718.377000
2198.133098	716.724000
2199.753844	719.934000
2201.375953	715.897000
2202.996065	715.772000
2204.614181	711.231000
2206.231981	715.313000
2207.849465	709.770000
2209.466634	715.034000
2211.083488	712.592000
2212.700027	713.245000
2214.314572	715.252000
2215.927126	715.453000
2217.541043	718.976000
2219.152969	715.956000
2220.766258	712.766000
2222.377556	716.027000
2223.986866	712.868000
2225.597538	714.388000
2227.206222	712.344000
2228.814594	713.828000
2230.420979	711.986000
2232.028726	712.311000
2233.634488	714.742000
2235.239938	717.303000
2236.843403	714.962000
2238.448231	717.250000
2240.051075	714.689000
2241.651936	719.962000
2243.254160	717.322000
2244.854402	721.565000
2246.456006	718.421000
2248.053957	718.555000
2249.653271	721.326000
2251.250605	725.127000
2252.847631	721.303000
2254.446018	722.358000
2256.040757	722.219000
2257.633520	721.801000
2259.227644	717.976000
2260.823131	717.192000
2262.414972	710.397000
2264.006507	714.904000
2265.599403	711.570000
2267.186990	712.229000
2268.779274	712.072000
2270.366250	714.009000
2271.956255	714.135000
2273.540955	708.452000
2275.130349	713.710000
2276.714440	709.560000
2278.299893	709.468000
2279.883377	708.398000
2281.469886	701.857000
2283.052762	703.819000
2284.635334	698.987000
2286.217604	703.238000
2287.796243	708.514000
2289.377907	704.532000
2290.955942	705.520000
2292.537000	705.622000
2294.114431	702.066500
2295.689899	698.511000
2297.268389	698.960000
2298.843254	698.232000
2300.417820	696.290000
2301.992084	696.454000
2303.566048	697.896000
2305.139712	697.455000
2306.713076	697.320000
2308.282820	694.970000
2309.852266	701.639000
2311.424731	701.379000
2312.991921	700.028000
2314.562128	696.636000
2316.128722	699.687000
2317.696674	699.019000
2319.262672	698.057000
2320.828372	696.787000
2322.393774	701.957000
2323.957223	698.301000
2325.522031	702.990000
2327.083230	703.794000
2328.647444	699.820000
2330.206397	703.143000
2331.768363	706.660000
2333.328379	706.682000
2334.888099	701.845000
2336.445870	709.736000
2338.003347	704.754000
2339.560528	708.987000
2341.115763	710.358000
2342.670703	709.714000
2344.225350	707.834000
2345.779703	710.643000
2347.333762	708.306000
2348.887528	708.459000
2350.439349	705.356000
2351.989227	705.475000
2353.542113	706.817000
2355.089757	707.942000
2356.640408	704.122000
2358.187469	700.532000
2359.735887	700.755000
2361.284013	698.419000
2362.828552	701.451000
2364.374448	699.253000
2365.918405	697.808000
2367.463720	695.564000
2369.005450	696.404000
2370.548538	698.302000
2372.089689	695.754000
2373.630551	695.334000
2375.171124	696.684000
2376.711408	695.228000
2378.251403	694.501000
2379.787819	696.929000
2381.327237	694.810000
2382.863078	697.689000
2384.400276	692.385000
2385.933898	694.223000
2387.470520	694.506000
2389.005212	697.732000
2390.537973	693.141000
2392.070449	695.799000
2393.600996	693.751000
2395.134541	698.593000
2396.662875	701.241000
2398.192565	697.264000
2399.721970	698.737000
2401.251090	697.415000
2402.779924	699.855000
2404.303554	703.488000
2405.831819	705.004000
2407.354881	700.610000
2408.882578	704.720000
2410.403434	701.078000
2411.928924	704.825000
2413.450854	708.271000
2414.974138	705.064000
2416.495502	709.886000
2418.014946	707.112000
2419.535745	711.135000
2421.054625	709.567000
2422.573224	708.587000
2424.089904	706.876000
2425.607940	710.581000
2427.125694	712.487000
2428.639896	714.010000
2430.153818	712.122000
2431.667461	715.591000
2433.182457	717.120000
2434.693906	717.212000
2436.206708	720.043000
2437.717598	722.307000
2439.228208	719.391000
2440.736907	720.027000
2442.248593	721.646000
2443.756735	723.956000
2445.264599	725.455000
2446.772184	726.009000
2448.276230	731.112000
2449.783260	727.369000
2451.288382	734.559000
2452.793227	737.547000
2454.296165	736.289000
2455.798826	733.849000
2457.301212	734.659000
2458.801691	735.238000
2460.303524	729.430000
2461.803453	730.100000
2463.303106	729.483000
2464.802484	729.750000
2466.299959	729.496000
2467.795532	725.010000
2469.294085	725.054000
2470.789110	728.747000
2472.285487	726.943000
2473.778338	723.860000
2475.272541	726.005000
2476.766472	722.343000
2478.256878	717.474000
2479.750262	723.075000
2481.241748	715.154000
2482.731337	724.874000
2484.220654	719.304000
2485.708075	720.379000
2487.198472	719.296000
2488.685350	722.692000
2490.173581	719.200000
2491.658294	721.327000
2493.142737	716.657000
2494.628532	721.769000
2496.112434	719.967000
2497.597688	719.598000
2499.077808	721.868000
2500.560900	719.969000
2502.042103	719.166000
2503.523035	721.911000
2505.002079	719.943000
2506.480855	719.628000
2507.959362	714.796000
2509.437600	719.432000
2510.915571	720.542000
2512.390036	716.096000
2513.867470	715.757000
2515.341401	718.346000
2516.816683	720.099000
2518.291697	717.717000
2519.763210	717.528000
2521.236074	720.814000
2522.707055	713.295000
2524.179386	718.409000
2525.646603	720.051000
2527.116787	715.711000
2528.585090	716.044000
2530.053127	717.389000
2531.520900	717.721000
2532.988408	714.242000
2534.455652	720.004000
2535.919403	722.729000
2537.384504	722.356000
2538.847728	722.220000
2540.312301	720.631000
2541.773386	724.441000
2543.235820	722.494000
2544.697991	725.620000
2546.156675	723.945000
2547.619932	722.732000
2549.078092	729.153000
2550.537601	727.968000
2551.992017	724.494000
2553.451003	727.799000
2554.908116	723.992000
2556.363359	727.055000
2557.818341	722.919000
2559.271453	725.906000
2560.725914	722.871000
2562.178506	726.144000
2563.630838	720.068000
2565.081302	725.274000
2566.534723	725.915000
2567.983061	722.402000
2569.434354	726.336000
2570.883781	725.558000
2572.329737	728.972000
2573.778647	725.623000
2575.224086	728.174000
2576.670874	727.447000
2578.115798	724.776000
2579.560465	729.194000
2581.006479	725.407000
2582.449026	724.967000
2583.892921	722.450000
2585.333351	724.618000
2586.775129	718.446000
2588.215047	720.751000
2589.656312	719.210000
2591.094115	721.722000
2592.534868	724.962000
2593.970558	719.773000
2595.409198	725.552000
2596.845981	726.641000
2598.280907	727.267000
2599.718782	722.396000
2601.151599	731.608000
2602.585763	724.125000
2604.018072	732.808000
2605.451729	729.241000
2606.883531	724.214000
2608.315081	728.145000
2609.746377	726.721000
2611.175822	730.536000
2612.605014	727.502000
2614.032355	727.757000
2615.461043	727.480000
2616.889478	730.127000
2618.314467	729.079000
2619.740801	727.527000
2621.165287	728.098000
2622.591119	728.800000
2624.013507	733.275000
2625.437241	729.539000
2626.859129	731.192000
2628.280766	730.735000
2629.700559	724.076000
2631.121696	730.248000
2632.542584	724.855000
2633.960034	725.696000
2635.380423	729.752000
2636.797375	725.377000
2638.214079	728.341000
2639.630534	723.861000
2641.046741	732.418000
2642.462699	720.764000
2643.876818	729.167000
2645.290688	733.496000
2646.702719	724.402000
2648.116095	725.277000
2649.526041	726.246000
2650.938923	727.349000
2652.348376	731.611000
2653.757583	735.689000
2655.164954	730.666000
2656.575259	733.481000
2657.983728	731.012000
2659.390362	735.742000
2660.796751	731.551000
2662.201306	736.462000
2663.607205	739.788000
2665.011271	738.502000
2666.415093	742.348000
2667.818670	733.926000
2669.220416	740.535000
2670.623505	741.601000
2672.023176	736.177000
2673.424191	732.243000
2674.821790	733.056000
2676.222318	729.070000
2677.619432	728.914000
2679.017889	726.722000
2680.414518	728.252000
2681.810906	726.319000
2683.207051	728.948000
2684.601370	722.795000
2685.997032	722.043000
2687.389284	725.644000
2688.782880	721.451000
2690.174651	727.506000
2691.567764	722.640000
2692.959054	719.948000
2694.348521	722.494000
2695.737749	721.005000
2697.126736	720.396000
2698.517066	722.582000
2699.902412	725.737000
2701.290681	722.597000
2702.677130	719.283000
2704.063340	722.184000
2705.449311	717.871000
2706.831884	723.345000
2708.215799	721.275000
2709.599475	718.978000
2710.982914	724.760000
2712.362957	718.459000
2713.744342	728.130000
2715.123911	726.683000
2716.504822	721.038000
2717.883918	728.540000
2719.261200	725.580000
2720.639823	728.103000
2722.016632	727.068000
2723.393206	725.519000
2724.769544	728.876000
2726.144070	729.483000
2727.519937	730.408000
2728.892417	729.754000
2730.267814	729.854000
2731.638250	731.223000
2733.010026	732.113000
2734.381569	729.527000
2735.751303	731.264000
2737.122377	733.532000
2738.491644	731.599000
2739.860677	731.547000
2741.227903	734.899000
2742.594897	732.476000
2743.961658	729.876000
2745.328186	732.853000
2746.692910	734.463000
2748.057401	736.088000
2749.421660	733.611000
2750.785688	739.927000
2752.149483	736.698000
2753.509905	738.003000
2754.873238	737.081000
2756.231628	736.523000
2757.592928	734.671000
2758.950857	736.640000
2760.311696	732.303000
2761.670734	731.349000
2763.026404	733.703000
2764.384983	730.339000
2765.740194	732.885000
2767.095176	732.703000
2768.448361	735.966000
2769.804453	738.689000
2771.157181	736.067000
2772.509680	736.815000
2773.861952	738.021000
2775.215561	735.790000
2776.565809	735.269000
2777.914264	738.644000
2779.265623	734.110000
2780.613623	735.926000
2781.962962	736.004000
2783.310508	738.208000
2784.657828	737.006000
2786.004920	737.737000
2787.350222	735.850000
2788.695298	735.525000
2790.040148	734.180000
2791.384772	735.176000
2792.726043	734.957000
2794.068653	741.118000
2795.411038	737.838000
2796.753197	740.862000
2798.092007	740.183000
2799.433717	744.236000
2800.772078	743.906000
2802.111777	744.929000
2803.449690	743.730000
2804.785819	743.907000
2806.121725	747.406000
2807.458967	745.341000
2808.794426	745.202000
2810.129662	749.591000
2811.463116	746.932000
2812.797906	752.928000
2814.129355	751.870000
2815.463700	749.683000
2816.793147	746.902000
2818.123931	757.663000
2819.454493	747.511000
2820.783276	749.106000
2822.113396	751.546000
2823.441737	749.972000
2824.769856	753.536000
2826.096199	748.161000
2827.423877	748.339000
2828.748223	754.588000
2830.073905	748.510000
2831.397811	748.456000
2832.721497	749.326000
2834.046519	750.981000
2835.368212	748.069000
2836.689685	748.979000
2838.010940	750.027000
2839.331976	753.349000
2840.651240	751.145000
2841.971839	758.152000
2843.290666	749.497000
2844.609275	752.271000
2845.926114	747.154000
2847.242735	748.723000
2848.559139	747.280000
2849.873773	747.998000
2851.189742	750.383000
2852.502392	752.419000
2853.816376	752.182000
2855.130144	755.659000
2856.443695	751.539000
2857.755479	751.404000
2859.065498	755.753000
2860.376851	758.069000
2861.684888	756.558000
2862.994261	758.507000
2864.303418	760.259000
2865.612360	755.043000
2866.919539	761.550000
2868.224954	765.140000
2869.531704	767.372000
2870.836692	765.301000
2872.141465	765.156000
2873.444478	769.512000
2874.750371	765.084000
2876.051410	764.672000
2877.353782	766.173000
2878.654395	773.502000
2879.956342	768.760000
2881.258076	771.441000
2882.556506	775.454000
2883.856269	769.460000
2885.154275	772.510000
2886.452069	773.814000
2887.748106	770.774000
2889.045477	773.396000
2890.341093	770.096000
2891.636497	771.622000
2892.931690	773.386000
2894.223585	773.041000
2895.518357	773.111000
2896.809833	778.675000
2898.102641	774.833000
2899.395239	773.225000
2900.684542	776.294000
2901.975179	771.102000
2903.264064	774.575000
2904.554281	774.852000
2905.841207	777.729000
2907.129465	782.368000
2908.415974	776.442000
2909.702274	779.016000
2910.988366	780.062000
2912.272710	774.334000
2913.559926	779.813000
2914.842315	781.118000
2916.126036	778.024000
2917.408010	777.984000
2918.689778	777.456000
2919.969800	779.220000
2921.252692	782.578000
2922.533839	778.211000
2923.811704	782.569000
2925.092438	782.379000
2926.369891	778.564000
2927.647139	779.526000
2928.922644	775.707000
2930.201017	784.605000
2931.474576	771.878000
2932.751001	776.892000
2934.025686	777.789000
2935.298631	775.745000
2936.572907	780.666000
2937.845442	781.377000
2939.117774	776.782000
2940.386833	780.206000
2941.658757	776.769000
2942.928943	777.304000
2944.198925	774.276000
2945.468704	778.039000
2946.736746	780.658000
2948.003053	774.884000
2949.269157	778.410000
2950.536592	781.929000
2951.802291	782.175000
2953.067788	782.247000
2954.333084	780.355000
2955.595114	776.741000
2956.858474	781.462000
2958.121633	781.221000
2959.383059	789.420000
2960.645816	775.271000
2961.906840	785.308000
2963.166134	781.451000
2964.425227	784.204000
2965.684120	784.570000
2966.942813	787.501000
2968.201306	781.480000
2969.458070	784.500000
2970.714635	782.702000
2971.969471	780.804000
2973.225637	785.906000
2974.478547	791.352000
2975.732787	786.890000
2976.986828	791.147000
2978.239143	784.691000
2979.491260	790.013000
2980.741652	788.817000
2981.994899	790.528000
2983.243369	784.880000
2984.494694	795.557000
2985.742769	793.266000
2986.990647	789.487000
2988.238329	789.165000
2989.485813	792.135000
2990.731576	794.827000
2991.977142	790.743000
2993.224037	797.806000
2994.467687	792.288000
2995.712664	800.238000
2996.954399	801.020000
2998.198985	801.099000
2999.441852	798.474000
3000.681477	802.782000
3001.923954	804.638000
3003.163190	801.366000
3004.403754	804.247000
3005.642601	809.935000
3006.881254	804.113000
3008.118191	807.056000
3009.356456	804.835000
3010.593005	815.035000
3011.829361	808.592000
3013.065523	812.490000
3014.299971	813.663000
3015.534226	814.540000
3016.768288	818.451000
3018.000638	813.026000
3019.231276	814.932000
3020.464760	812.971000
3021.696533	818.925000
3022.926594	818.923000
3024.156464	820.356000
3025.384624	817.981000
3026.614111	822.998000
3027.841888	826.620000
3029.069474	825.721000
3030.298386	822.814000
3031.522556	824.151000
3032.749569	825.973000
3033.973359	822.955000
3035.198474	827.305000
3036.421884	826.616000
3037.645103	828.264000
3038.866617	829.364000
3040.090972	827.145000
3041.310592	829.568000
3042.531538	831.320000
3043.752294	830.201000
3044.971348	836.521000
3046.191726	836.248000
3047.408888	831.018000
3048.627375	831.467000
3049.844161	838.223000
3051.060758	839.605000
3052.277168	835.868000
3053.490364	838.809000
3054.706398	843.476000
3055.919220	835.644000
3057.134879	840.186000
3058.345815	841.385000
3059.558077	839.184000
3060.770151	842.605000
3061.982039	842.506000
3063.192229	846.287000
3064.402234	845.209000
3065.612052	842.119000
3066.820174	845.735000
3068.028111	845.036000
3069.234352	848.494000
3070.441918	850.288000
3071.647789	849.373000
3072.853475	848.458000
3074.058977	856.209000
3075.262785	852.420000
3076.467917	851.095000
3077.671356	867.905000
3078.873103	856.581000
3080.074667	855.692000
3081.276047	863.165000
3082.477243	860.650000
3083.676749	858.647000
3084.876072	861.375000
3086.076717	860.810000
3087.275674	863.517000
3088.471435	862.373000
3089.670026	864.995000
3090.865423	863.850000
3092.062144	865.585000
3093.255672	860.162000
3094.452028	865.325000
3095.646697	864.803000
3096.838176	862.023000
3098.033986	864.933000
3099.225103	863.274000
3100.417543	867.761000
3101.606794	863.759000
3102.798872	867.653000
3103.989266	862.436000
3105.176474	873.437000
3106.365004	866.937000
3107.554857	872.590000
3108.741525	865.025000
3109.928014	870.211000
3111.114323	867.512000
3112.301955	863.822000
3113.486404	868.450000
3114.669173	863.612000
3115.854766	866.495000
3117.038679	864.973000
3118.220912	869.758000
3119.402968	865.463000
3120.584845	867.199000
3121.766544	869.192000
3122.946566	868.511000
3124.124911	869.514000
3125.306076	871.767000
3126.484066	871.058000
3127.661879	870.360000
3128.839515	868.707000
3130.015476	867.685000
3131.191261	869.884000
3132.368366	873.382000
3133.543798	872.198000
3134.717556	863.304000
3135.889641	871.112000
3137.063047	874.410000
3138.236278	880.119000
3139.407837	871.057000
3140.580716	880.050000
3141.750428	876.847000
3142.921461	881.133000
3144.090823	889.562000
3145.258516	882.412000
3146.429024	880.736000
3147.594873	880.934000
3148.765032	875.718000
3149.930533	879.235000
3151.095861	875.519000
3152.261015	878.497000
3153.425996	883.390000
3154.592296	875.896000
3155.753943	874.877000
3156.916911	868.392000
3158.079706	865.509000
3159.242327	865.483000
3160.403284	852.828000
3161.564069	858.166000
3162.724681	858.766000
3163.883629	849.915000
3165.042405	852.233000
3166.201010	859.012000
3167.359443	847.546000
3168.517704	858.262000
3169.674304	858.674000
3170.829241	854.359000
3171.985499	854.821000
3173.140095	853.510000
3174.294521	856.902000
3175.447286	854.695000
3176.599882	855.699000
3177.752308	857.387000
3178.904563	861.721000
3180.056649	855.085000
3181.205588	855.804000
3182.357334	863.658000
3183.507423	861.179000
3184.655854	869.374000
3185.804117	863.848000
3186.952211	874.661000
3188.100136	871.513000
3189.246405	874.753000
3190.392506	882.087000
3191.536953	880.528000
3192.681231	882.613000
3193.825342	884.513000
3194.970771	876.174000
3196.113061	881.755000
3197.255183	879.145000
3198.397139	885.012000
3199.538927	879.313000
3200.680548	881.850000
3201.819033	882.823000
3202.958837	882.219000
3204.099957	880.614000
3205.237943	882.816000
3206.374280	886.697000
3207.510451	885.269000
3208.647940	885.496000
3209.783780	883.352000
3210.920937	885.756000
3212.053481	883.868000
3213.190306	890.955000
3214.322520	885.047000
3215.456052	885.558000
3216.589418	879.129000
3217.719657	883.738000
3218.852695	881.112000
3219.982605	874.268000
3221.113833	869.860000
3222.241935	868.318000
3223.372835	869.006000
3224.502090	868.766000
3225.629702	866.789000
3226.754191	866.505000
3227.882956	872.896000
3229.008599	865.528000
3230.134079	869.915000
3231.257918	868.714000
3232.384552	868.957000
3233.506587	872.692000
3234.629940	869.027000
3235.753129	872.627000
3236.876157	866.978000
3237.997545	865.901000
3239.118772	868.935000
3240.238360	870.844000
3241.357787	864.932000
3242.475577	874.321000
3243.596158	870.060000
3244.713626	874.707000
3245.830933	881.128000
3246.948079	879.360000
3248.063590	882.564000
3249.180416	889.460000
3250.294131	887.447000
3251.410637	890.967000
3252.525507	886.090000
3253.637269	889.667000
3254.748872	892.150000
3255.861790	889.936000
3256.974548	890.797000
3258.084200	888.275000
3259.195167	890.337000
3260.305975	881.990000
3261.415151	889.318000
3262.522696	893.710000
3263.631556	886.406000
3264.740257	892.780000
3265.845856	890.733000
3266.952770	894.832000
3268.058054	895.064000
3269.164652	901.859000
3270.268150	895.123000
3271.372962	895.654000
3272.477617	894.391000
3273.579174	894.608000
3274.680574	895.217000
3275.783288	896.969000
3276.885846	897.362000
3277.985307	899.582000
3279.087551	896.971000
3280.186701	896.110000
3281.284225	894.612000
3282.381595	898.175000
3283.481746	895.755000
3284.578804	895.543000
3285.675708	896.751000
3286.772456	891.787000
3287.864645	894.604000
3288.961084	890.376000
3290.055900	887.977000
3291.150561	899.688000
3292.243601	885.772000
3293.336487	897.708000
3294.427752	892.229000
3295.520330	890.160000
3296.611288	900.792000
3297.700626	893.327000
3298.789811	891.941000
3299.880308	890.230000
3300.967721	892.382000
3302.054982	896.433000
3303.143555	893.234000
3304.231975	896.670000
3305.315849	894.056000
3306.403963	900.846000
3307.488997	905.111000
3308.572415	903.203000
3309.657145	898.858000
3310.740259	907.776000
3311.824685	908.111000
3312.906033	903.501000
3313.988693	913.764000
3315.069739	901.668000
3316.150634	912.944000
3317.229916	905.661000
3318.309047	912.217000
3319.389490	908.360000
3320.466858	914.672000
3321.545538	916.506000
3322.622606	916.181000
3323.699524	921.878000
3324.774832	911.933000
3325.849990	919.176000
3326.926459	919.530000
3327.999857	919.698000
3329.073107	922.525000
3330.147668	921.466000
3331.220620	917.367000
3332.291963	919.837000
3333.364617	919.894000
3334.434204	914.885000
3335.505102	915.528000
3336.574394	913.229000
3337.644995	914.660000
3338.713990	914.423000
3339.781380	910.719000
3340.847164	911.073000
3341.917174	913.897000
3342.984120	906.552000
3344.048005	913.433000
3345.114658	914.399000
3346.179707	907.235000
3347.243152	912.858000
3348.306450	915.349000
3349.369603	910.253000
3350.432609	913.134000
3351.495469	912.203000
3352.556726	913.511000
3353.614927	912.434000
3354.677349	916.925000
3355.736715	911.502000
3356.795935	919.206000
3357.856464	912.724000
3358.912484	919.975000
3359.971269	925.467000
3361.025546	924.699000
3362.082587	928.805000
3363.138029	934.874000
3364.194780	931.173000
3365.249934	929.988000
3366.303490	931.583000
3367.355449	935.766000
3368.410171	935.366000
3369.461843	936.313000
3370.513371	931.439000
3371.566209	937.336000
3372.615999	937.820000
3373.667098	931.538000
3374.715150	933.700000
3375.765963	936.436000
3376.813730	937.150000
3377.861355	941.234000
3378.908838	936.083000
3379.954728	938.524000
3381.001926	935.711000
3382.046081	937.447000
3383.092995	936.987000
3384.138318	934.937000
3385.180599	937.792000
3386.222739	939.441000
3387.266188	941.476000
3388.309495	936.847000
3389.351212	937.509000
3390.392789	940.035000
3391.434224	941.072000
3392.474071	943.438000
3393.512329	938.995000
3394.551895	947.410000
3395.591321	949.907000
3396.629159	946.711000
3397.665410	947.692000
3398.701521	945.904000
3399.738940	948.098000
3400.773326	940.726000
3401.809020	943.923000
3402.844574	950.022000
3403.877096	948.381000
3404.912372	949.576000
3405.944618	946.207000
3406.976724	951.184000
3408.007248	951.563000
3409.039078	952.560000
3410.070770	951.315000
3411.099434	950.731000
3412.127961	953.696000
3413.157794	950.659000
3414.187490	949.217000
3415.214160	947.711000
3416.242136	953.480000
3417.267088	948.336000
3418.294791	949.779000
3419.319469	958.716000
3420.345454	955.930000
3421.369860	959.067000
3422.394129	953.169000
3423.416819	959.218000
3424.439373	951.261000
3425.463233	953.010000
3426.484073	955.705000
3427.504777	946.101000
3428.526787	951.239000
3429.545779	944.055000
3430.564636	946.459000
3431.584799	946.991000
3432.601944	953.359000
