-116.654669	13.346000
-113.985068	14.570000
-111.318403	13.786000
-108.652490	12.095000
-105.989510	12.030000
-103.325099	13.124000
-100.663619	11.523000
-98.000710	14.804000
-95.342908	12.603000
-92.683675	13.254000
-90.025191	15.201000
-87.369632	12.554000
-84.712643	14.465000
-82.060753	13.683000
-79.407433	14.144000
-76.757032	14.252000
-74.105203	13.767000
-71.458464	14.617000
-68.810295	15.794000
-66.162870	15.283000
-63.518358	12.395000
-60.872417	13.721000
-58.231559	15.239000
-55.589270	14.428000
-52.949891	15.427000
-50.309083	15.367000
-47.669014	14.688000
-45.034019	15.138000
-42.397594	15.610000
-39.764073	13.954000
-37.129122	15.407000
-34.499238	17.417000
-31.865760	16.311000
-29.237345	14.025000
-26.609664	15.523000
-23.980555	14.934000
-21.356502	15.804000
-18.728859	17.265000
-16.106271	16.430000
-13.484413	18.741000
-10.863286	18.492000
-8.242890	21.636000
-5.625381	30.822000
-3.006444	56.725000
-0.390393	102.196000
2.224931	106.135000
4.839526	57.890000
7.451240	21.150000
10.064381	19.832000
12.672490	21.547000
15.284179	18.287000
17.890838	19.250000
20.498925	20.379000
23.106288	19.787000
25.708626	20.057000
28.314542	20.530000
30.915437	22.328000
33.517759	22.193000
36.115063	23.739000
38.715943	21.886000
41.311809	23.256000
43.909102	21.585000
46.505676	24.095000
49.097241	22.522000
51.690235	23.389000
54.280367	23.579000
56.871926	23.612000
59.460626	25.337000
62.050754	24.189000
64.635882	25.708000
67.222438	26.017000
69.808279	27.973000
72.391267	26.953000
74.975682	27.836000
77.552967	28.482000
80.133819	29.144000
82.711822	30.817000
85.289115	30.003000
87.867835	32.667000
90.441572	32.922000
93.016736	33.155000
95.589057	34.930000
98.160671	37.415000
100.729444	41.530000
103.299644	43.409000
105.867005	46.106000
108.435793	51.292000
111.001744	61.548000
113.564859	71.638000
116.131532	86.178000
118.688982	109.736000
121.252118	146.638000
123.810295	202.762000
126.372026	292.706000
128.928800	434.645000
131.487000	650.391000
134.040248	964.039000
136.592797	1415.337000
139.148898	1998.691000
141.700050	2694.281000
144.250505	3418.739000
146.800262	4012.425000
149.347200	4515.846000
151.893443	4798.057000
154.441111	4981.615000
156.988083	5072.565000
159.530119	5053.617000
162.071463	5064.201000
164.612113	5087.324000
167.154188	5064.815000
169.693453	5112.440000
172.229908	5083.706000
174.765673	5081.478000
177.302863	5084.284000
179.839362	5048.888000
182.373055	5070.436000
184.903944	5031.237000
187.434145	5033.737000
189.965771	5039.925000
192.494597	5057.858000
195.020623	5058.146000
197.545963	5060.440000
200.072728	5070.902000
202.596697	5083.082000
205.119980	5068.023000
207.642579	5083.518000
210.162385	5064.200000
212.681508	5053.057000
215.199948	5043.398000
217.719813	5048.202000
220.232675	5046.307000
222.749069	5058.784000
225.264782	5062.365000
227.775604	5041.180000
230.287851	5051.485000
232.797315	5028.942000
235.306101	5019.710000
237.814209	5034.074000
240.323741	5016.045000
242.828392	5014.611000
245.332367	4983.539000
247.837766	4987.887000
250.338290	4989.747000
252.842337	4985.017000
255.339414	4970.800000
257.840013	4973.416000
260.337841	4973.417000
262.834996	4937.568000
265.331479	4951.214000
267.823098	4934.324000
270.318236	4927.342000
272.810609	4895.804000
275.302311	4898.132000
277.791250	4893.040000
280.281612	4854.623000
282.769213	4818.917000
285.254054	4830.413000
287.742410	4804.403000
290.223826	4785.182000
292.708756	4771.399000
295.188840	4785.885000
297.672437	4744.177000
300.151192	4760.341000
302.631369	4748.546000
305.108795	4736.416000
307.585557	4712.774000
310.061655	4704.367000
312.535005	4690.563000
315.007694	4701.848000
317.479721	4683.628000
319.951086	4709.400000
322.419708	4714.091000
324.887670	4742.844000
327.357055	4711.464000
329.821617	4724.958000
332.289683	4727.880000
334.752928	4726.547000
337.215517	4747.083000
339.677448	4707.461000
342.138724	4733.278000
344.597264	4726.823000
347.057227	4693.856000
349.514458	4696.020000
351.971034	4678.467000
354.426955	4662.020000
356.880148	4636.995000
359.334763	4622.965000
361.784576	4618.213000
364.237885	4595.241000
366.686395	4567.425000
369.134255	4558.308000
371.583536	4544.715000
374.028024	4543.911000
376.473934	4519.131000
378.919195	4496.008000
381.361737	4515.000000
383.803631	4498.109000
386.244877	4508.768000
388.683408	4501.899000
391.123361	4477.625000
393.560600	4502.313000
395.995127	4466.697000
398.433142	4503.612000
400.866381	4494.869000
403.301040	4472.308000
405.730927	4485.004000
408.164299	4491.238000
410.592901	4504.301000
413.020861	4453.922000
415.450242	4469.331000
417.874859	4490.570000
420.300896	4453.004000
422.726294	4443.333000
425.151051	4442.828000
427.571049	4427.114000
429.992469	4448.903000
432.411192	4429.153000
434.831336	4438.337000
437.248785	4442.918000
439.667655	4438.574000
442.083830	4453.349000
444.495259	4459.326000
446.910164	4453.693000
449.322379	4448.388000
451.733960	4478.063000
454.144908	4475.372000
456.553168	4482.375000
458.960797	4461.950000
461.367793	4485.045000
463.774157	4451.027000
466.177840	4466.406000
468.580892	4447.551000
470.983314	4447.961000
473.385106	4441.554000
475.784220	4438.958000
478.184754	4409.042000
480.584659	4414.106000
482.979842	4392.682000
485.378490	4391.179000
487.772419	4351.811000
490.165722	4340.779000
492.558399	4326.543000
494.950451	4331.468000
497.343922	4289.966000
499.732680	4300.205000
502.118772	4300.177000
504.506284	4273.287000
506.893173	4271.903000
509.277397	4269.003000
511.663041	4269.465000
514.046022	4261.513000
516.426343	4261.066000
518.808083	4303.356000
521.187165	4263.874000
523.567664	4274.156000
525.945506	4256.080000
528.320693	4283.081000
530.695262	4251.829000
533.071250	4259.768000
535.444584	4244.596000
537.819337	4245.075000
540.189403	4236.763000
542.558854	4228.275000
544.929724	4220.758000
547.295912	4186.205000
549.663519	4211.559000
552.028480	4183.274000
554.392829	4185.483000
556.756564	4187.421000
559.121717	4185.102000
561.482198	4190.812000
563.844096	4213.012000
566.203355	4187.718000
568.559975	4197.225000
570.920041	4214.339000
573.273415	4191.677000
575.630234	4217.416000
577.984418	4195.332000
580.337993	4187.341000
582.690961	4170.617000
585.041296	4150.258000
587.393049	4164.715000
589.738124	4146.186000
592.088664	4120.447000
594.432531	4120.955000
596.781859	4110.867000
599.126538	4088.500000
601.468593	4087.896000
603.812065	4059.808000
606.152914	4049.158000
608.493160	4024.110000
610.830786	4046.638000
613.171847	3993.821000
615.508271	3994.961000
617.846111	3966.142000
620.181333	3941.235000
622.513940	3936.409000
624.847964	3942.131000
627.179373	3936.611000
629.510184	3920.619000
631.840397	3899.480000
634.170013	3905.267000
636.495005	3901.354000
638.825439	3908.210000
641.151251	3904.331000
643.474457	3922.477000
645.799079	3911.820000
648.121095	3907.629000
650.442517	3906.487000
652.761336	3917.747000
655.081571	3906.365000
657.401213	3919.530000
659.718255	3916.010000
662.034704	3923.412000
664.348555	3907.151000
666.663822	3930.287000
668.976491	3938.286000
671.290576	3908.578000
673.600062	3949.344000
675.910962	3968.555000
678.219270	3932.480000
680.526990	3954.738000
682.836125	3954.779000
685.140667	3956.304000
687.444623	3920.371000
689.747992	3920.268000
692.052777	3915.724000
694.352974	3882.463000
696.654587	3900.698000
698.955614	3857.302000
701.252060	3851.400000
703.549920	3853.233000
705.847198	3819.696000
708.143891	3817.371000
710.436010	3803.201000
712.731538	3795.445000
715.022494	3826.721000
717.314864	3808.257000
719.604658	3798.034000
721.893873	3790.741000
724.182508	3787.353000
726.468570	3791.581000
728.756046	3801.144000
731.040952	3778.020000
733.325280	3786.438000
735.607039	3788.476000
737.890212	3753.067000
740.172808	3765.363000
742.450848	3765.510000
744.730302	3758.804000
747.009181	3772.064000
749.287485	3775.418000
751.561238	3773.707000
753.836406	3762.007000
756.111000	3767.694000
758.383035	3743.433000
760.656483	3761.518000
762.927373	3751.949000
765.195707	3732.960000
767.465454	3739.812000
769.732646	3726.005000
771.999269	3732.902000
774.265321	3736.674000
776.528822	3714.491000
778.793735	3709.927000
781.058080	3716.365000
783.317894	3711.889000
785.579122	3701.990000
787.839782	3709.911000
790.097895	3723.637000
792.353465	3718.228000
794.612424	3727.015000
796.864885	3716.269000
799.122713	3706.742000
801.376022	3697.529000
803.626790	3684.729000
805.878972	3658.402000
808.128614	3673.600000
810.379668	3661.227000
812.626211	3635.603000
814.874167	3636.075000
817.119587	3660.994000
819.366420	3630.908000
821.612690	3622.132000
823.854457	3619.230000
826.099606	3618.634000
828.338284	3609.037000
830.580343	3592.191000
832.817904	3587.462000
835.056877	3593.293000
837.293323	3575.352000
839.531180	3571.192000
841.766512	3562.638000
843.999320	3598.744000
846.233540	3593.082000
848.465238	3586.664000
850.696381	3598.824000
852.926969	3592.984000
855.157003	3603.082000
857.386482	3583.085000
859.611481	3594.106000
861.839853	3575.817000
864.063747	3574.187000
866.289052	3572.297000
868.509880	3574.715000
870.734082	3551.497000
872.953810	3537.158000
875.174948	3541.302000
877.395536	3558.129000
879.613615	3558.959000
881.833103	3551.646000
884.048125	3537.976000
886.262599	3529.463000
888.476526	3531.310000
890.689905	3504.737000
892.902738	3489.938000
895.115023	3478.600000
897.324807	3503.230000
899.534045	3485.502000
901.742737	3503.760000
903.948931	3506.130000
906.156534	3502.683000
908.361640	3495.586000
910.566202	3512.589000
912.768269	3532.946000
914.971745	3518.043000
917.172727	3532.414000
919.373167	3524.440000
921.575016	3539.409000
923.770474	3533.651000
925.969290	3540.572000
928.163669	3552.657000
930.361405	3532.876000
932.554705	3557.449000
934.749413	3564.976000
936.941636	3539.208000
939.133321	3564.159000
941.324468	3567.879000
943.513132	3578.628000
945.701259	3599.709000
947.886906	3574.930000
950.075906	3598.528000
952.260481	3598.478000
954.444522	3601.577000
956.631914	3600.042000
958.811001	3624.605000
960.993439	3618.483000
963.175342	3614.577000
965.354772	3644.367000
967.531729	3648.480000
969.710094	3656.836000
971.889865	3668.495000
974.063288	3659.350000
976.240058	3661.328000
978.412420	3670.759000
980.586190	3654.831000
982.755556	3644.105000
984.928266	3665.004000
987.098510	3666.974000
989.268226	3651.377000
991.437413	3645.634000
993.602203	3648.212000
995.770335	3659.363000
997.934071	3637.730000
1000.099215	3643.601000
1002.261899	3652.811000
1004.424058	3635.830000
1006.583759	3674.845000
1008.742937	3638.132000
1010.903521	3637.797000
1013.061650	3622.046000
1015.219256	3628.961000
1017.376337	3608.463000
1019.532896	3595.358000
1021.685075	3609.596000
1023.838661	3581.248000
1025.991725	3585.964000
1028.142340	3578.255000
1030.294361	3577.569000
1032.442010	3576.099000
1034.592990	3574.571000
1036.739599	3545.940000
1038.885689	3539.584000
1041.031261	3527.246000
1043.178238	3502.116000
1045.318926	3482.832000
1047.462943	3452.583000
1049.604521	3452.094000
1051.745581	3435.430000
1053.888047	3413.802000
1056.024232	3415.813000
1058.163744	3391.697000
1060.298900	3372.443000
1062.437381	3369.421000
1064.571509	3328.928000
1066.705123	3326.006000
1068.840141	3290.435000
1070.970810	3298.327000
1073.102885	3280.836000
1075.232529	3259.799000
1077.361662	3252.007000
1079.490284	3231.335000
1081.618394	3223.408000
1083.744078	3213.679000
1085.869252	3221.059000
1087.995830	3209.587000
1090.118070	3198.754000
1092.241715	3200.658000
1094.361025	3198.371000
1096.485564	3176.190000
1098.603859	3175.732000
1100.723557	3188.031000
1102.840838	3181.783000
1104.957611	3171.235000
1107.073878	3177.391000
1109.187730	3172.180000
1111.302985	3144.619000
1113.413918	3157.871000
1115.528163	3132.402000
1117.638087	3141.979000
1119.749414	3115.998000
1121.860238	3108.964000
1123.966745	3095.956000
1126.076561	3108.335000
1128.182063	3103.001000
1130.288969	3090.006000
1132.389659	3068.076000
1134.495560	3079.463000
1136.597154	3070.593000
1138.700149	3081.363000
1140.802644	3049.796000
1142.898933	3042.004000
1145.000428	3047.000000
1147.097621	3041.844000
1149.194315	3026.751000
1151.290512	3029.261000
1153.386210	3033.288000
1155.481411	3031.205000
1157.574215	3030.984000
1159.668421	3040.118000
1161.756436	3040.766000
1163.849649	3044.250000
1165.936674	3041.075000
1168.026999	3029.700000
1170.113035	3040.071000
1172.202369	3040.983000
1174.285522	3031.231000
1176.370078	3042.540000
1178.456035	3022.593000
1180.537710	3029.862000
1182.620786	3022.549000
1184.701477	3032.065000
1186.781677	3035.189000
1188.861385	3027.517000
1190.940602	3028.651000
1193.017436	3022.708000
1195.091890	3027.875000
1197.169636	3018.731000
1199.243111	3009.372000
1201.317988	3024.970000
1203.388597	3020.519000
1205.460607	3016.298000
1207.530241	3025.533000
1209.601276	3004.768000
1211.671823	3022.711000
1213.738110	3022.040000
1215.805797	3015.623000
1217.871111	3015.482000
1219.937826	3024.881000
1222.000285	3025.655000
1224.066030	3002.722000
1226.127520	3020.675000
1228.190410	3015.873000
1230.250933	3000.298000
1232.310973	2982.629000
1234.370529	2993.908000
1236.427721	3006.498000
1238.484430	3012.351000
1240.538777	2994.586000
1242.596404	2987.390000
1244.651669	3002.190000
1246.702693	2982.927000
1248.755118	2988.272000
1250.807062	2995.638000
1252.856648	2997.187000
1254.905755	2998.857000
1256.954383	3000.079000
1259.002533	2998.027000
1261.050205	2998.861000
1263.093646	3002.605000
1265.140362	2972.233000
1267.184726	2986.462000
1269.228612	2984.544000
1271.270148	2997.648000
1273.309334	2981.968000
1275.351792	2979.728000
1277.390029	2982.008000
1279.429663	2986.901000
1281.468823	2967.384000
1283.503765	2984.510000
1285.540105	2980.910000
1287.574100	2998.114000
1289.609494	3006.109000
1291.640674	3028.877000
1293.673253	3042.272000
1295.705360	3079.380000
1297.735126	3106.472000
1299.766289	3139.259000
1301.793245	3180.553000
1303.821599	3193.474000
1305.845749	3237.810000
1307.873164	3262.070000
1309.896376	3289.922000
1311.920986	3330.077000
1313.943261	3379.673000
1315.966934	3424.029000
1317.988274	3501.300000
1320.009147	3668.172000
1322.029552	3909.944000
1324.045764	4481.535000
1326.063373	5656.524000
1328.078654	8869.552000
1330.097194	16193.201000
1332.111544	25785.202000
1334.123569	27188.221000
1336.138852	18541.631000
1338.149949	9193.296000
1340.162442	5206.153000
1342.170753	4054.357000
1344.182320	3550.575000
1346.187848	3333.253000
1348.196631	3205.632000
1350.201236	3135.563000
1352.209095	3079.277000
1354.216492	3052.350000
1356.217857	2994.463000
1358.220620	2979.565000
1360.222923	2966.369000
1362.224766	2935.071000
1364.226149	2925.267000
1366.225218	2920.879000
1368.223829	2896.265000
1370.221982	2902.462000
1372.219677	2886.962000
1374.213208	2874.724000
1376.208136	2889.184000
1378.202607	2888.853000
1380.196621	2898.378000
1382.188328	2901.326000
1384.179579	2899.208000
1386.168525	2894.914000
1388.158866	2897.137000
1390.148752	2885.710000
1392.136335	2913.875000
1394.123464	2894.624000
1396.108291	2911.630000
1398.094513	2906.104000
1400.078434	2904.630000
1402.061903	2927.842000
1404.044920	2924.969000
1406.025639	2932.660000
1408.007752	2920.308000
1409.987568	2942.922000
1411.966934	2924.150000
1413.942161	2948.687000
1415.920626	2937.973000
1417.896798	2943.037000
1419.872520	2950.464000
1421.847793	2948.991000
1423.820776	2953.930000
1425.793310	2970.486000
1427.765396	2955.719000
1429.737034	2965.420000
1431.704545	2961.917000
1433.677129	2964.196000
1435.641907	2966.801000
1437.611758	2969.775000
1439.577484	2959.262000
1441.544604	2957.713000
1443.509440	2938.804000
1445.470156	2946.908000
1447.435940	2944.077000
1449.395769	2943.852000
1451.356991	2949.134000
1453.319606	2944.781000
1455.278106	2935.162000
1457.236164	2942.449000
1459.193779	2949.461000
1461.150953	2919.829000
1463.105851	2931.579000
1465.062141	2923.990000
1467.016158	2902.011000
1468.969733	2893.916000
1470.921036	2898.916000
1472.873731	2883.034000
1474.824155	2855.365000
1476.774140	2857.865000
1478.723686	2860.837000
1480.670962	2854.354000
1482.615972	2833.580000
1484.562374	2836.154000
1486.508338	2838.069000
1488.453865	2846.460000
1490.397126	2822.674000
1492.339951	2836.996000
1494.280513	2814.424000
1496.222467	2819.276000
1498.162158	2830.226000
1500.101414	2830.721000
1502.040236	2846.578000
1503.976798	2831.591000
1505.914751	2850.212000
1507.850445	2841.099000
1509.785706	2833.052000
1511.718710	2809.035000
1513.651282	2821.678000
1515.583422	2836.083000
1517.515130	2819.393000
1519.444585	2835.931000
1521.375430	2829.495000
1523.305843	2828.193000
1525.232184	2829.975000
1527.159915	2843.679000
1529.085396	2829.833000
1531.010449	2823.062000
1532.935071	2837.348000
1534.859265	2832.213000
1536.781212	2821.644000
1538.704548	2823.932000
1540.625639	2844.708000
1542.544485	2845.525000
1544.464721	2849.010000
1546.382713	2831.565000
1548.300279	2834.145000
1550.215604	2848.809000
1552.132317	2828.809000
1554.044976	2821.951000
1555.960839	2814.069000
1557.874463	2815.451000
1559.785848	2813.994000
1561.698623	2791.095000
1563.607348	2792.180000
1565.517462	2804.860000
1567.427153	2769.748000
1569.336421	2779.524000
1571.243454	2766.750000
1573.148255	2758.535000
1575.054445	2759.215000
1576.958404	2752.436000
1578.861941	2736.380000
1580.765057	2731.932000
1582.665945	2749.727000
1584.568221	2723.859000
1586.468268	2720.644000
1588.369704	2723.745000
1590.267105	2704.832000
1592.164089	2713.205000
1594.060654	2690.110000
1595.958606	2705.684000
1597.850724	2703.568000
1599.746036	2688.646000
1601.640929	2699.097000
1603.533602	2683.410000
1605.425857	2682.605000
1607.315893	2667.620000
1609.205513	2670.585000
1611.094718	2656.858000
1612.983507	2663.696000
1614.870080	2653.695000
1616.758040	2666.205000
1618.641983	2654.406000
1620.527313	2659.795000
1622.412230	2654.129000
1624.294933	2637.065000
1626.179023	2635.293000
1628.059101	2636.348000
1629.940566	2638.576000
1631.819821	2621.047000
1633.700462	2614.451000
1635.575300	2611.489000
1637.455118	2607.962000
1639.330931	2595.305000
1641.206335	2595.040000
1643.083124	2594.853000
1644.954116	2589.924000
1646.828291	2587.981000
1648.698466	2578.581000
1650.571822	2568.477000
1652.442975	2564.497000
1654.311926	2553.276000
1656.182263	2555.846000
1658.048606	2529.409000
1659.916336	2529.150000
1661.781866	2519.006000
1663.648782	2499.514000
1665.511708	2491.389000
1667.376020	2474.582000
1669.238137	2483.233000
1671.099848	2454.103000
1672.962944	2455.428000
1674.823846	2452.015000
1676.682555	2445.377000
1678.540860	2420.919000
1680.400549	2433.428000
1682.254472	2416.653000
1684.111568	2427.827000
1685.968260	2429.587000
1687.820977	2405.315000
1689.676865	2404.652000
1691.528779	2397.755000
1693.380292	2379.260000
1695.231404	2368.649000
1697.082115	2362.045000
1698.932426	2356.448000
1700.780553	2349.462000
1702.630064	2331.804000
1704.473825	2318.271000
1706.322537	2320.009000
1708.165502	2304.366000
1710.011633	2310.087000
1711.853803	2287.216000
1713.699137	2297.368000
1715.538731	2288.312000
1717.379709	2276.572000
1719.222071	2286.973000
1721.060475	2271.241000
1722.900263	2268.410000
1724.737876	2258.266000
1726.575093	2252.701000
1728.410137	2256.372000
1730.246565	2246.239000
1732.080819	2234.848000
1733.914680	2216.661000
1735.748146	2223.159000
1737.577666	2215.224000
1739.410345	2203.964000
1741.239080	2206.643000
1743.070973	2191.873000
1744.898923	2195.631000
1746.726481	2170.441000
1748.553648	2166.784000
1750.380423	2170.598000
1752.206806	2155.441000
1754.029253	2165.242000
1755.854855	2147.121000
1757.676521	2148.448000
1759.499570	2144.431000
1761.320458	2134.785000
1763.140956	2141.830000
1764.962836	2140.621000
1766.779016	2129.476000
1768.598348	2131.180000
1770.413753	2121.337000
1772.232309	2123.687000
1774.046939	2131.111000
1775.861182	2124.198000
1777.675039	2112.362000
1779.488509	2127.221000
1781.299825	2116.628000
1783.112523	2121.993000
1784.924834	2126.403000
1786.733228	2109.020000
1788.543003	2118.003000
1790.348862	2101.773000
1792.157868	2109.348000
1793.962960	2100.990000
1795.769432	2099.845000
1797.575521	2097.431000
1799.377700	2095.067000
1801.183022	2098.110000
1802.984436	2097.066000
1804.787230	2108.074000
1806.586119	2101.227000
1808.386387	2106.960000
1810.186275	2096.704000
1811.984020	2096.745000
1813.781385	2099.617000
1815.578369	2095.513000
1817.374973	2094.239000
1819.169438	2089.728000
1820.965283	2090.568000
1822.755472	2093.475000
1824.550558	2096.078000
1826.339991	2088.980000
1828.132562	2086.844000
1829.922997	2085.070000
1831.711297	2083.300000
1833.502733	2088.649000
1835.288524	2082.940000
1837.075693	2088.943000
1838.860732	2078.551000
1840.648903	2078.667000
1842.433189	2068.667000
1844.215346	2075.447000
1845.998882	2068.553000
1847.780289	2070.662000
1849.563074	2076.754000
1851.341980	2077.308000
1853.122264	2061.489000
1854.900423	2068.829000
1856.679959	2047.154000
1858.457371	2056.839000
1860.232660	2055.929000
1862.009326	2063.036000
1863.783870	2050.412000
1865.559791	2050.584000
1867.330093	2054.547000
1869.103522	2050.320000
1870.874831	2049.826000
1872.645769	2044.577000
1874.418084	2042.484000
1876.184787	2050.911000
1877.954614	2037.626000
1879.720578	2040.647000
1881.489666	2035.642000
1883.254892	2028.824000
1885.019750	2026.380000
1886.785984	2029.029000
1888.548360	2028.619000
1890.310369	2015.845000
1892.072011	2016.239000
1893.833285	2015.273000
1895.594193	2023.328000
1897.354733	2016.004000
1899.113165	2024.294000
1900.871230	1999.916000
1902.627188	2007.421000
1904.384522	2012.567000
1906.141491	2004.457000
1907.896353	2004.738000
1909.649110	2002.708000
1911.401504	2012.852000
1913.155274	2000.762000
1914.906940	2003.099000
1916.656503	2008.843000
1918.407443	1992.343000
1920.158019	2004.339000
1921.904757	2015.264000
1923.652870	2014.917000
1925.398884	2013.503000
1927.146274	2018.531000
1928.891565	2016.645000
1930.634759	2011.932000
1932.379329	2018.842000
1934.121802	2006.835000
1935.863915	2016.115000
1937.605669	2016.575000
1939.347062	2019.850000
1941.086362	2022.881000
1942.825303	2009.673000
1944.563885	2022.861000
1946.300376	2025.173000
1948.036508	2020.843000
1949.774015	2016.513000
1951.507701	2018.850000
1953.242761	2014.685000
1954.975732	2023.067000
1956.708347	2016.605000
1958.440605	2018.300000
1960.172507	2031.905000
1961.902323	2031.766000
1963.630055	2034.204000
1965.359161	2046.221000
1967.087911	2036.350000
1968.814578	2044.817000
1970.540891	2049.949000
1972.268578	2058.760000
1973.990728	2051.965000
1975.715979	2051.753000
1977.437423	2062.959000
1979.161967	2072.108000
1980.884432	2064.782000
1982.603093	2078.617000
1984.324853	2081.528000
1986.042811	2081.140000
1987.762143	2075.132000
1989.477674	2087.827000
1991.198027	2094.028000
1992.914581	2090.506000
1994.627338	2085.765000
1996.343191	2095.451000
1998.056972	2087.850000
1999.770403	2096.633000
2001.481763	2097.266000
2003.194495	2111.726000
2004.903436	2098.582000
2006.615471	2114.819000
2008.321996	2108.330000
2010.031614	2106.754000
2011.739164	2124.634000
2013.446367	2118.598000
2015.151504	2113.009000
2016.856294	2113.739000
2018.562457	2109.513000
2020.264836	2121.934000
2021.968588	2126.470000
2023.670277	2101.528000
2025.371620	2123.207000
2027.072619	2106.777000
2028.771556	2109.916000
2030.471865	2108.608000
2032.168398	2100.220000
2033.866303	2115.445000
2035.562150	2109.742000
2037.261082	2119.318000
2038.954528	2107.545000
2040.649345	2107.510000
2042.343819	2116.837000
2044.034525	2115.537000
2045.728315	2121.726000
2047.418338	2120.002000
2049.109732	2103.047000
2050.799073	2123.196000
2052.489784	2101.509000
2054.176733	2112.339000
2055.863341	2106.335000
2057.551320	2107.257000
2059.235539	2099.357000
2060.921128	2104.991000
2062.606378	2106.755000
2064.289580	2083.671000
2065.974152	2097.856000
2067.653260	2086.257000
2069.337155	2094.823000
2071.015588	2081.193000
2072.697099	2079.178000
2074.374858	2089.100000
2076.052281	2094.914000
2077.731073	2083.018000
2079.407822	2079.403000
2081.082530	2088.274000
2082.758607	2089.368000
2084.432644	2085.789000
2086.106345	2084.458000
2087.779712	2086.132000
2089.451039	2080.333000
2091.122032	2081.866000
2092.792691	2081.411000
2094.463016	2077.234000
2096.133006	2082.156000
2097.800961	2074.960000
2099.468583	2080.710000
2101.134171	2070.168000
2102.801127	2094.075000
2104.466050	2079.998000
2106.130640	2097.288000
2107.793199	2096.261000
2109.457127	2108.627000
2111.119023	2098.371000
2112.780588	2106.897000
2114.441823	2096.582000
2116.101028	2107.027000
2117.759904	2108.190000
2119.418449	2109.978000
2121.076665	2113.846000
2122.731158	2105.530000
2124.388715	2095.912000
2126.045942	2105.060000
2127.699449	2096.406000
2129.354323	2093.839000
2131.005478	2096.461000
2132.659696	2093.994000
2134.310196	2079.973000
2135.962064	2092.130000
2137.608523	2073.274000
2139.259736	2069.919000
2140.907237	2089.424000
2142.556104	2088.520000
2144.202952	2082.716000
2145.849475	2081.523000
2147.495672	2096.601000
2149.138160	2080.060000
2150.783707	2092.383000
2152.425547	2087.288000
2154.070444	2089.249000
2155.711636	2087.084000
2157.352504	2079.797000
2158.993049	2079.146000
2160.631581	2072.468000
2162.271479	2083.116000
2163.907677	2063.670000
2165.545241	2069.085000
2167.182483	2065.125000
2168.817715	2054.096000
2170.452625	2058.526000
2172.087214	2067.725000
2173.721482	2066.850000
2175.352056	2065.364000
2176.985682	2056.104000
2178.615615	2068.428000
2180.246915	2061.077000
2181.876209	2068.803000
2183.505184	2069.005000
2185.133839	2061.996000
2186.762175	2070.376000
2188.388508	2065.609000
2190.014523	2057.233000
2191.638537	2064.381000
2193.263916	2066.697000
2194.887294	2056.967000
2196.512037	2054.670000
2198.133098	2053.159000
2199.753844	2056.426000
2201.375953	2048.479000
2202.996065	2050.143000
2204.614181	2033.918000
2206.231981	2039.667000
2207.849465	2028.066000
2209.466634	2040.818000
2211.083488	2038.744000
2212.700027	2036.107000
2214.314572	2046.026000
2215.927126	2041.189000
2217.541043	2055.599000
2219.152969	2037.263000
2220.766258	2033.027000
2222.377556	2038.857000
2223.986866	2026.068000
2225.597538	2031.819000
2227.206222	2026.521000
2228.814594	2017.678000
2230.420979	2017.878000
2232.028726	2018.049000
2233.634488	2017.706000
2235.239938	2023.997000
2236.843403	2015.105000
2238.448231	2021.016000
2240.051075	2020.922000
2241.651936	2028.688000
2243.254160	2017.159000
2244.854402	2028.910000
2246.456006	2024.801000
2248.053957	2022.947000
2249.653271	2027.440000
2251.250605	2031.693000
2252.847631	2020.610000
2254.446018	2023.047000
2256.040757	2023.762000
2257.633520	2025.866000
2259.227644	2002.149000
2260.823131	2014.442000
2262.414972	1997.678000
2264.006507	1996.110000
2265.599403	1989.325000
2267.186990	1985.818000
2268.779274	1986.154000
2270.366250	1985.583000
2271.956255	1989.010000
2273.540955	1974.628000
2275.130349	1981.411000
2276.714440	1962.521000
2278.299893	1962.519000
2279.883377	1958.972000
2281.469886	1940.007000
2283.052762	1942.554000
2284.635334	1930.470000
2286.217604	1939.634000
2287.796243	1954.573000
2289.377907	1933.773000
2290.955942	1935.925000
2292.537000	1940.176000
2294.114431	1932.768000
2295.689899	1925.360000
2297.268389	1911.956000
2298.843254	1923.757000
2300.417820	1914.279000
2301.992084	1915.260000
2303.566048	1917.588000
2305.139712	1913.106000
2306.713076	1907.338000
2308.282820	1909.402000
2309.852266	1919.512000
2311.424731	1918.277000
2312.991921	1920.355000
2314.562128	1916.057000
2316.128722	1925.170000
2317.696674	1919.391000
2319.262672	1922.360000
2320.828372	1918.571000
2322.393774	1934.259000
2323.957223	1921.317000
2325.522031	1932.413000
2327.083230	1935.983000
2328.647444	1928.103000
2330.206397	1929.573000
2331.768363	1938.898000
2333.328379	1933.077000
2334.888099	1924.895000
2336.445870	1934.016000
2338.003347	1929.281000
2339.560528	1932.933000
2341.115763	1935.820000
2342.670703	1931.980000
2344.225350	1935.436000
2345.779703	1935.861000
2347.333762	1933.167000
2348.887528	1931.519000
2350.439349	1929.687000
2351.989227	1929.198000
2353.542113	1932.965000
2355.089757	1927.371000
2356.640408	1916.606000
2358.187469	1916.831000
2359.735887	1911.158000
2361.284013	1911.100000
2362.828552	1906.368000
2364.374448	1906.200000
2365.918405	1908.145000
2367.463720	1897.396000
2369.005450	1897.080000
2370.548538	1899.034000
2372.089689	1896.800000
2373.630551	1891.534000
2375.171124	1898.318000
2376.711408	1885.927000
2378.251403	1891.071000
2379.787819	1888.289000
2381.327237	1884.635000
2382.863078	1890.171000
2384.400276	1879.868000
2385.933898	1885.179000
2387.470520	1884.218000
2389.005212	1891.246000
2390.537973	1885.682000
2392.070449	1887.764000
2393.600996	1885.731000
2395.134541	1891.994000
2396.662875	1905.851000
2398.192565	1892.192000
2399.721970	1899.103000
2401.251090	1889.668000
2402.779924	1905.710000
2404.303554	1907.225000
2405.831819	1909.486000
2407.354881	1904.424000
2408.882578	1909.680000
2410.403434	1905.619000
2411.928924	1916.669000
2413.450854	1918.595000
2414.974138	1918.484000
2416.495502	1923.404000
2418.014946	1919.855000
2419.535745	1929.296000
2421.054625	1930.623000
2422.573224	1926.122000
2424.089904	1916.373000
2425.607940	1928.232000
2427.125694	1930.139000
2428.639896	1936.516000
2430.153818	1928.037000
2431.667461	1940.985000
2433.182457	1942.149000
2434.693906	1937.215000
2436.206708	1949.452000
2437.717598	1953.792000
2439.228208	1943.762000
2440.736907	1948.418000
2442.248593	1953.183000
2443.756735	1955.619000
2445.264599	1958.689000
2446.772184	1956.605000
2448.276230	1973.063000
2449.783260	1962.011000
2451.288382	1977.708000
2452.793227	1983.046000
2454.296165	1977.203000
2455.798826	1972.393000
2457.301212	1975.899000
2458.801691	1975.135000
2460.303524	1957.125000
2461.803453	1966.073000
2463.303106	1960.867000
2464.802484	1960.200000
2466.299959	1968.173000
2467.795532	1962.914000
2469.294085	1969.431000
2470.789110	1963.619000
2472.285487	1965.317000
2473.778338	1963.618000
2475.272541	1959.051000
2476.766472	1950.881000
2478.256878	1953.255000
2479.750262	1960.008000
2481.241748	1946.288000
2482.731337	1953.786000
2484.220654	1942.737000
2485.708075	1944.095000
2487.198472	1943.320000
2488.685350	1945.335000
2490.173581	1942.247000
2491.658294	1946.412000
2493.142737	1933.400000
2494.628532	1937.176000
2496.112434	1937.852000
2497.597688	1937.701000
2499.077808	1937.704000
2500.560900	1944.199000
2502.042103	1941.105000
2503.523035	1951.390000
2505.002079	1947.373000
2506.480855	1942.213000
2507.959362	1937.762000
2509.437600	1950.164000
2510.915571	1947.283000
2512.390036	1945.893000
2513.867470	1940.805000
2515.341401	1948.813000
2516.816683	1950.767000
2518.291697	1949.149000
2519.763210	1947.052000
2521.236074	1957.504000
2522.707055	1945.132000
2524.179386	1953.174000
2525.646603	1962.843000
2527.116787	1944.257000
2528.585090	1948.066000
2530.053127	1954.043000
2531.520900	1950.290000
2532.988408	1934.681000
2534.455652	1948.282000
2535.919403	1955.636000
2537.384504	1951.518000
2538.847728	1955.532000
2540.312301	1954.350000
2541.773386	1958.351000
2543.235820	1953.920000
2544.697991	1963.743000
2546.156675	1959.585000
2547.619932	1963.298000
2549.078092	1978.272000
2550.537601	1970.858000
2551.992017	1960.591000
2553.451003	1968.361000
2554.908116	1964.087000
2556.363359	1970.414000
2557.818341	1961.163000
2559.271453	1971.337000
2560.725914	1956.532000
2562.178506	1966.176000
2563.630838	1961.791000
2565.081302	1965.927000
2566.534723	1973.137000
2567.983061	1959.454000
2569.434354	1976.867000
2570.883781	1978.998000
2572.329737	1980.392000
2573.778647	1985.765000
2575.224086	1983.310000
2576.670874	1986.867000
2578.115798	1973.860000
2579.560465	1990.778000
2581.006479	1975.947000
2582.449026	1983.439000
2583.892921	1978.777000
2585.333351	1976.623000
2586.775129	1968.301000
2588.215047	1976.873000
2589.656312	1970.206000
2591.094115	1978.450000
2592.534868	1985.360000
2593.970558	1975.483000
2595.409198	1991.018000
2596.845981	1994.613000
2598.280907	1993.621000
2599.718782	1973.191000
2601.151599	2005.440000
2602.585763	1984.211000
2604.018072	2003.582000
2605.451729	1993.594000
2606.883531	1983.852000
2608.315081	1989.959000
2609.746377	1981.595000
2611.175822	2002.422000
2612.605014	1985.138000
2614.032355	1992.135000
2615.461043	1987.553000
2616.889478	1987.918000
2618.314467	1990.742000
2619.740801	1985.422000
2621.165287	1994.013000
2622.591119	1978.237000
2624.013507	1998.951000
2625.437241	1994.369000
2626.859129	1995.716000
2628.280766	1995.241000
2629.700559	1975.838000
2631.121696	1988.217000
2632.542584	1978.637000
2633.960034	1982.522000
2635.380423	1989.551000
2636.797375	1978.752000
2638.214079	1991.667000
2639.630534	1977.817000
2641.046741	1997.443000
2642.462699	1975.182000
2643.876818	1984.963000
2645.290688	1992.484000
2646.702719	1971.747000
2648.116095	1976.126000
2649.526041	1974.799000
2650.938923	1974.171000
2652.348376	1984.317000
2653.757583	1989.673000
2655.164954	1981.947000
2656.575259	1985.142000
2657.983728	1982.963000
2659.390362	1993.466000
2660.796751	1977.741000
2662.201306	1985.059000
2663.607205	1993.434000
2665.011271	1989.372000
2666.415093	2000.410000
2667.818670	1984.091000
2669.220416	2009.915000
2670.623505	2010.784000
2672.023176	2004.679000
2673.424191	1997.907000
2674.821790	1996.338000
2676.222318	1988.753000
2677.619432	1990.603000
2679.017889	1987.109000
2680.414518	1989.705000
2681.810906	1977.144000
2683.207051	1989.247000
2684.601370	1971.038000
2685.997032	1972.748000
2687.389284	1974.105000
2688.782880	1968.554000
2690.174651	1981.535000
2691.567764	1966.071000
2692.959054	1961.998000
2694.348521	1974.672000
2695.737749	1957.861000
2697.126736	1962.589000
2698.517066	1962.879000
2699.902412	1967.031000
2701.290681	1958.100000
2702.677130	1954.810000
2704.063340	1958.662000
2705.449311	1951.016000
2706.831884	1968.338000
2708.215799	1955.722000
2709.599475	1955.511000
2710.982914	1970.508000
2712.362957	1951.177000
2713.744342	1974.126000
2715.123911	1970.125000
2716.504822	1960.992000
2717.883918	1979.724000
2719.261200	1968.314000
2720.639823	1971.959000
2722.016632	1974.120000
2723.393206	1974.942000
2724.769544	1979.907000
2726.144070	1980.562000
2727.519937	1983.375000
2728.892417	1977.095000
2730.267814	1981.946000
2731.638250	1978.421000
2733.010026	1981.573000
2734.381569	1984.891000
2735.751303	1980.638000
2737.122377	1986.134000
2738.491644	1984.642000
2739.860677	1980.751000
2741.227903	1983.604000
2742.594897	1985.491000
2743.961658	1978.407000
2745.328186	1980.185000
2746.692910	1990.559000
2748.057401	1993.836000
2749.421660	1978.759000
2750.785688	2000.451000
2752.149483	1989.272000
2753.509905	1990.746000
2754.873238	1988.272000
2756.231628	1988.670000
2757.592928	1979.417000
2758.950857	1984.574000
2760.311696	1971.056000
2761.670734	1968.390000
2763.026404	1984.434000
2764.384983	1968.217000
2765.740194	1973.903000
2767.095176	1963.145000
2768.448361	1977.931000
2769.804453	1981.007000
2771.157181	1979.146000
2772.509680	1982.805000
2773.861952	1982.022000
2775.215561	1976.999000
2776.565809	1975.266000
2777.914264	1990.057000
2779.265623	1976.692000
2780.613623	1976.212000
2781.962962	1978.914000
2783.310508	1980.243000
2784.657828	1981.769000
2786.004920	1984.296000
2787.350222	1980.327000
2788.695298	1979.560000
2790.040148	1978.918000
2791.384772	1973.237000
2792.726043	1973.996000
2794.068653	1989.855000
2795.411038	1984.477000
2796.753197	1992.833000
2798.092007	1989.282000
2799.433717	2003.492000
2800.772078	1999.031000
2802.111777	2001.590000
2803.449690	2003.241000
2804.785819	1999.893000
2806.121725	2006.331000
2807.458967	1997.629000
2808.794426	2006.487000
2810.129662	2014.244000
2811.463116	2010.443000
2812.797906	2022.473000
2814.129355	2023.053000
2815.463700	2016.282000
2816.793147	2011.264000
2818.123931	2036.693000
2819.454493	2013.980000
2820.783276	2011.414000
2822.113396	2016.324000
2823.441737	2013.533000
2824.769856	2020.976000
2826.096199	2010.641000
2827.423877	2013.051000
2828.748223	2019.577000
2830.073905	2004.510000
2831.397811	2010.530000
2832.721497	2005.551000
2834.046519	2014.288000
2835.368212	2011.357000
2836.689685	2012.928000
2838.010940	2016.098000
2839.331976	2024.373000
2840.651240	2021.464000
2841.971839	2032.730000
2843.290666	2019.495000
2844.609275	2025.593000
2845.926114	2016.955000
2847.242735	2021.160000
2848.559139	2018.666000
2849.873773	2018.366000
2851.189742	2021.685000
2852.502392	2035.311000
2853.816376	2026.436000
2855.130144	2036.781000
2856.443695	2026.536000
2857.755479	2028.951000
2859.065498	2035.739000
2860.376851	2038.443000
2861.684888	2038.098000
2862.994261	2041.208000
2864.303418	2046.873000
2865.612360	2034.449000
2866.919539	2053.974000
2868.224954	2054.818000
2869.531704	2054.720000
2870.836692	2053.904000
2872.141465	2044.410000
2873.444478	2054.097000
2874.750371	2049.765000
2876.051410	2046.591000
2877.353782	2050.491000
2878.654395	2062.253000
2879.956342	2057.081000
2881.258076	2050.087000
2882.556506	2070.516000
2883.856269	2048.898000
2885.154275	2057.933000
2886.452069	2061.371000
2887.748106	2055.884000
2889.045477	2058.969000
2890.341093	2048.949000
2891.636497	2054.841000
2892.931690	2064.462000
2894.223585	2057.965000
2895.518357	2057.878000
2896.809833	2065.423000
2898.102641	2058.267000
2899.395239	2061.518000
2900.684542	2066.008000
2901.975179	2048.441000
2903.264064	2062.959000
2904.554281	2055.027000
2905.841207	2067.086000
2907.129465	2075.334000
2908.415974	2065.512000
2909.702274	2069.948000
2910.988366	2065.339000
2912.272710	2058.365000
2913.559926	2071.612000
2914.842315	2069.535000
2916.126036	2066.116000
2917.408010	2055.282000
2918.689778	2067.856000
2919.969800	2065.557000
2921.252692	2070.019000
2922.533839	2063.890000
2923.811704	2080.011000
2925.092438	2071.643000
2926.369891	2063.320000
2927.647139	2063.896000
2928.922644	2054.527000
2930.201017	2069.730000
2931.474576	2041.449000
2932.751001	2062.973000
2934.025686	2059.029000
2935.298631	2051.051000
2936.572907	2064.433000
2937.845442	2059.104000
2939.117774	2054.227000
2940.386833	2060.599000
2941.658757	2048.368000
2942.928943	2055.302000
2944.198925	2047.277000
2945.468704	2049.014000
2946.736746	2056.579000
2948.003053	2040.753000
2949.269157	2048.883000
2950.536592	2057.556000
2951.802291	2060.070000
2953.067788	2059.780000
2954.333084	2053.932000
2955.595114	2045.835000
2956.858474	2060.784000
2958.121633	2052.626000
2959.383059	2063.361000
2960.645816	2039.682000
2961.906840	2059.223000
2963.166134	2047.666000
2964.425227	2062.376000
2965.684120	2057.603000
2966.942813	2065.790000
2968.201306	2052.212000
2969.458070	2058.718000
2970.714635	2062.173000
2971.969471	2056.280000
2973.225637	2069.496000
2974.478547	2080.787000
2975.732787	2069.210000
2976.986828	2085.013000
2978.239143	2069.349000
2979.491260	2073.581000
2980.741652	2073.385000
2981.994899	2082.258000
2983.243369	2072.431000
2984.494694	2097.670000
2985.742769	2095.026000
2986.990647	2091.238000
2988.238329	2084.288000
2989.485813	2093.547000
2990.731576	2094.523000
2991.977142	2095.012000
2993.224037	2107.812000
2994.467687	2098.732000
2995.712664	2111.356000
2996.954399	2108.987000
2998.198985	2117.329000
2999.441852	2106.758000
3000.681477	2120.746000
3001.923954	2117.204000
3003.163190	2110.136000
3004.403754	2114.739000
3005.642601	2129.508000
3006.881254	2111.935000
3008.118191	2123.142000
3009.356456	2120.629000
3010.593005	2143.348000
3011.829361	2119.859000
3013.065523	2128.284000
3014.299971	2134.561000
3015.534226	2126.478000
3016.768288	2137.059000
3018.000638	2129.923000
3019.231276	2135.280000
3020.464760	2121.307000
3021.696533	2133.089000
3022.926594	2135.176000
3024.156464	2136.675000
3025.384624	2126.689000
3026.614111	2146.966000
3027.841888	2149.373000
3029.069474	2144.965000
3030.298386	2141.990000
3031.522556	2134.829000
3032.749569	2142.604000
3033.973359	2131.333000
3035.198474	2143.587000
3036.421884	2141.825000
3037.645103	2136.975000
3038.866617	2142.377000
3040.090972	2133.351000
3041.310592	2150.979000
3042.531538	2143.731000
3043.752294	2143.263000
3044.971348	2158.688000
3046.191726	2160.286000
3047.408888	2143.690000
3048.627375	2147.652000
3049.844161	2159.340000
3051.060758	2163.406000
3052.277168	2148.800000
3053.490364	2159.284000
3054.706398	2171.172000
3055.919220	2144.792000
3057.134879	2159.246000
3058.345815	2154.604000
3059.558077	2147.809000
3060.770151	2154.493000
3061.982039	2147.008000
3063.192229	2154.575000
3064.402234	2152.656000
3065.612052	2148.530000
3066.820174	2156.214000
3068.028111	2147.754000
3069.234352	2159.076000
3070.441918	2164.630000
3071.647789	2165.447500
3072.853475	2166.265000
3074.058977	2171.273000
3075.262785	2164.672000
3076.467917	2156.864000
3077.671356	2202.610000
3078.873103	2173.384000
3080.074667	2177.050000
3081.276047	2192.418000
3082.477243	2188.398000
3083.676749	2190.854000
3084.876072	2195.620000
3086.076717	2189.677000
3087.275674	2199.609000
3088.471435	2185.286000
3089.670026	2195.834000
3090.865423	2191.419000
3092.062144	2190.080000
3093.255672	2190.107000
3094.452028	2196.672000
3095.646697	2194.120000
3096.838176	2193.870000
3098.033986	2195.633000
3099.225103	2196.943000
3100.417543	2200.503000
3101.606794	2191.243000
3102.798872	2192.597000
3103.989266	2183.155000
3105.176474	2217.830000
3106.365004	2199.158000
3107.554857	2209.780000
3108.741525	2191.218000
3109.928014	2198.900000
3111.114323	2202.458000
3112.301955	2188.633000
3113.486404	2198.057000
3114.669173	2181.858000
3115.854766	2197.591000
3117.038679	2175.020000
3118.220912	2202.130000
3119.402968	2189.399000
3120.584845	2194.053000
3121.766544	2196.278000
3122.946566	2189.221000
3124.124911	2191.589000
3125.306076	2199.475000
3126.484066	2199.359000
3127.661879	2197.218000
3128.839515	2191.840000
3130.015476	2194.390000
3131.191261	2194.757000
3132.368366	2198.949000
3133.543798	2195.685000
3134.717556	2185.514000
3135.889641	2197.656000
3137.063047	2202.410000
3138.236278	2215.001000
3139.407837	2202.971000
3140.580716	2217.430000
3141.750428	2211.484000
3142.921461	2224.925000
3144.090823	2243.300000
3145.258516	2223.080000
3146.429024	2223.363000
3147.594873	2224.062000
3148.765032	2207.348000
3149.930533	2216.042000
3151.095861	2221.819000
3152.261015	2218.536000
3153.425996	2232.549000
3154.592296	2218.459000
3155.753943	2216.531000
3156.916911	2202.019000
3158.079706	2201.819000
3159.242327	2191.515000
3160.403284	2158.907000
3161.564069	2176.703000
3162.724681	2175.559000
3163.883629	2157.579000
3165.042405	2163.805000
3166.201010	2167.392000
3167.359443	2149.109000
3168.517704	2177.834000
3169.674304	2168.660000
3170.829241	2160.772000
3171.985499	2160.450000
3173.140095	2164.540000
3174.294521	2170.878000
3175.447286	2161.361000
3176.599882	2156.071000
3177.752308	2166.742000
3178.904563	2171.473000
3180.056649	2152.360000
3181.205588	2155.293000
3182.357334	2174.768000
3183.507423	2158.430000
3184.655854	2177.696000
3185.804117	2166.162000
3186.952211	2190.196000
3188.100136	2194.870000
3189.246405	2194.952000
3190.392506	2211.684000
3191.536953	2214.259000
3192.681231	2217.806000
3193.825342	2223.249000
3194.970771	2208.624000
3196.113061	2210.755000
3197.255183	2209.384000
3198.397139	2225.156000
3199.538927	2205.298000
3200.680548	2214.277000
3201.819033	2221.805000
3202.958837	2219.812000
3204.099957	2217.664000
3205.237943	2224.587000
3206.374280	2226.811000
3207.510451	2225.671000
3208.647940	2234.852000
3209.783780	2226.433000
3210.920937	2237.036000
3212.053481	2224.840000
3213.190306	2249.142000
3214.322520	2229.786000
3215.456052	2231.222000
3216.589418	2211.479000
3217.719657	2229.064000
3218.852695	2209.257000
3219.982605	2200.669000
3221.113833	2189.207000
3222.241935	2191.705000
3223.372835	2192.226000
3224.502090	2195.989000
3225.629702	2193.945000
3226.754191	2192.335000
3227.882956	2210.964000
3229.008599	2185.649000
3230.134079	2192.950000
3231.257918	2198.667000
3232.384552	2193.127000
3233.506587	2205.969000
3234.629940	2187.606000
3235.753129	2199.185000
3236.876157	2179.980000
3237.997545	2184.025000
3239.118772	2187.430000
3240.238360	2191.228000
3241.357787	2174.385000
3242.475577	2201.074000
3243.596158	2186.193000
3244.713626	2204.286000
3245.830933	2209.769000
3246.948079	2210.472000
3248.063590	2217.465000
3249.180416	2229.626000
3250.294131	2224.630000
3251.410637	2239.501000
3252.525507	2225.693000
3253.637269	2239.778000
3254.748872	2236.415000
3255.861790	2230.323000
3256.974548	2235.778000
3258.084200	2230.651000
3259.195167	2233.065000
3260.305975	2216.956000
3261.415151	2224.749000
3262.522696	2240.411000
3263.631556	2218.469000
3264.740257	2237.248000
3265.845856	2236.336000
3266.952770	2246.020000
3268.058054	2240.641000
3269.164652	2257.017000
3270.268150	2236.907000
3271.372962	2246.679000
3272.477617	2233.437000
3273.579174	2240.965000
3274.680574	2243.440000
3275.783288	2247.332000
3276.885846	2243.465000
3277.985307	2255.580000
3279.087551	2252.878000
3280.186701	2244.492000
3281.284225	2244.508000
3282.381595	2252.520000
3283.481746	2246.504000
3284.578804	2250.304000
3285.675708	2245.264000
3286.772456	2240.906000
3287.864645	2241.157000
3288.961084	2233.889000
3290.055900	2227.811000
3291.150561	2257.419000
3292.243601	2224.783000
3293.336487	2249.121000
3294.427752	2237.355000
3295.520330	2226.608000
3296.611288	2250.750000
3297.700626	2242.506000
3298.789811	2233.987000
3299.880308	2231.471000
3300.967721	2237.018000
3302.054982	2243.330000
3303.143555	2240.154000
3304.231975	2246.953000
3305.315849	2232.272000
3306.403963	2260.360000
3307.488997	2265.638000
3308.572415	2257.440000
3309.657145	2248.318000
3310.740259	2267.902000
3311.824685	2271.619000
3312.906033	2254.485000
3313.988693	2282.169000
3315.069739	2259.156000
3316.150634	2278.348000
3317.229916	2265.266000
3318.309047	2269.818000
3319.389490	2268.423000
3320.466858	2272.451000
3321.545538	2281.179000
3322.622606	2277.627000
3323.699524	2288.697000
3324.774832	2265.758000
3325.849990	2282.591000
3326.926459	2283.349000
3327.999857	2277.415000
3329.073107	2279.554000
3330.147668	2284.402000
3331.220620	2272.375000
3332.291963	2285.176000
3333.364617	2275.948000
3334.434204	2260.730000
3335.505102	2261.633000
3336.574394	2251.891000
3337.644995	2264.759000
3338.713990	2263.565000
3339.781380	2249.007000
3340.847164	2245.389000
3341.917174	2249.734000
3342.984120	2241.313000
3344.048005	2247.397000
3345.114658	2254.833000
3346.179707	2236.142000
3347.243152	2260.984000
3348.306450	2256.169000
3349.369603	2245.724000
3350.432609	2257.612000
3351.495469	2243.227000
3352.556726	2253.603000
3353.614927	2245.101000
3354.677349	2257.816000
3355.736715	2237.108000
3356.795935	2261.952000
3357.856464	2238.841000
3358.912484	2265.669000
3359.971269	2272.771000
3361.025546	2263.867000
3362.082587	2272.970000
3363.138029	2287.434000
3364.194780	2283.546000
3365.249934	2281.795000
3366.303490	2290.226000
3367.355449	2282.186000
3368.410171	2291.975000
3369.461843	2284.445000
3370.513371	2274.033000
3371.566209	2287.816000
3372.615999	2297.776000
3373.667098	2276.010000
3374.715150	2286.718000
3375.765963	2280.715000
3376.813730	2280.907000
3377.861355	2292.559000
3378.908838	2290.775000
3379.954728	2292.091000
3381.001926	2273.357000
3382.046081	2286.641000
3383.092995	2284.457000
3384.138318	2281.912000
3385.180599	2283.739000
3386.222739	2283.161000
3387.266188	2296.123000
3388.309495	2273.295000
3389.351212	2275.920000
3390.392789	2289.436000
3391.434224	2282.492000
3392.474071	2286.953000
3393.512329	2283.491000
3394.551895	2300.541000
3395.591321	2299.947000
3396.629159	2293.597000
3397.665410	2287.758000
3398.701521	2282.673000
3399.738940	2300.419000
3400.773326	2282.313000
3401.809020	2289.306000
3402.844574	2299.880000
3403.877096	2295.380000
3404.912372	2299.272000
3405.944618	2285.282000
3406.976724	2303.193000
3408.007248	2302.088000
3409.039078	2304.790000
3410.070770	2301.693000
3411.099434	2304.988000
3412.127961	2308.461000
3413.157794	2302.081000
3414.187490	2301.875000
3415.214160	2300.595000
3416.242136	2310.287000
3417.267088	2293.309000
3418.294791	2307.412000
3419.319469	2316.440000
3420.345454	2318.113000
3421.369860	2317.082000
3422.394129	2307.606000
3423.416819	2320.613000
3424.439373	2298.139000
3425.463233	2305.037000
3426.484073	2310.583000
3427.504777	2290.730000
3428.526787	2308.560000
3429.545779	2280.765000
3430.564636	2294.890000
3431.584799	2288.816000
3432.601944	2303.334000
