-118.385087	5.089011
-115.715486	1.098901
-113.048821	-2.161239
-110.382909	-4.738961
-107.719928	-6.681818
-105.055517	-8.037363
-102.394037	-8.853147
-99.731128	-7.922378
-97.073326	-7.693706
-94.414093	-9.213287
-91.755609	-8.681119
-89.100050	-11.361538
-86.443062	-10.009091
-83.791171	-5.634965
-81.137851	-5.451049
-78.487451	-5.176923
-75.835621	-3.362937
-73.188882	-1.981818
-70.540713	0.183916
-67.893288	-1.971329
-65.248776	-4.677622
-62.602835	-5.952448
-59.961977	-5.071329
-57.319688	-6.624476
-54.680309	-6.779021
-52.039501	-7.401399
-49.399432	-10.016084
-46.764437	-10.498601
-44.128012	-9.244755
-41.494491	-10.076923
-38.859540	-16.229371
-36.229656	-21.393007
-33.596178	-20.883217
-30.967763	-18.951049
-28.340082	-17.075524
-25.710973	-13.560140
-23.086920	-12.212587
-20.459278	-10.409091
-17.836689	-11.030070
-15.214831	-10.851748
-12.593704	-12.095105
-9.973308	-9.782517
-7.355799	-11.428671
-4.736862	-9.183217
-2.120811	-8.164336
0.494512	-6.383916
3.109108	-3.682517
5.720822	-1.760140
8.333963	-2.681119
10.942071	-1.159441
13.553761	-5.120280
16.160420	-9.132867
18.768507	-8.389510
21.375870	-5.389510
23.978208	-6.571329
26.584124	-7.888811
29.185019	-8.180420
31.787341	-5.715385
34.384645	-3.320280
36.985525	-6.237762
39.581391	-6.760839
42.178684	-4.665035
44.775258	-4.168531
47.366823	-4.246853
49.959816	-3.557343
52.549948	-5.179720
55.141508	-8.496503
57.730208	-10.371329
60.320336	-10.239161
62.905464	-9.339161
65.492020	-8.300000
68.077861	-7.933566
70.660849	-6.951748
73.245264	-2.877622
75.822549	1.133566
78.403401	2.725874
80.981404	-2.451049
83.558697	-2.108392
86.137416	-8.617483
88.711154	-11.362937
91.286318	-13.072028
93.858639	-10.013287
96.430253	-9.367133
98.999026	-6.700699
101.569226	-7.004895
104.136587	-4.348252
106.705375	-1.555245
109.271325	-1.553147
111.834441	-5.175524
114.401114	-3.049650
116.958564	-2.407692
119.521700	-2.490909
122.079877	-5.539860
124.641607	-5.516084
127.198382	-6.306294
129.756582	-3.863636
132.309830	-1.061538
134.862379	-1.455944
137.418480	-0.997203
139.969632	-2.165734
142.520086	-3.357343
145.069844	-0.013287
147.616782	1.909091
150.163024	-1.193706
152.710693	-6.709091
155.257665	-8.679720
157.799701	-7.366434
160.341044	-4.984615
162.881695	-3.349650
165.423770	-4.869231
167.963035	-4.858042
170.499490	-2.980420
173.035255	-0.369231
175.572445	0.447552
178.108943	2.688811
180.642636	5.801399
183.173526	2.600000
185.703727	-0.116084
188.235353	-2.930070
190.764179	-4.021678
193.290205	-7.260839
195.815545	-8.730070
198.342310	-8.997902
200.866279	-8.250350
203.389562	-8.094406
205.912161	-7.974126
208.431967	-2.053846
210.951090	-2.771329
213.469530	-2.413287
215.989394	-2.897203
218.502257	-4.433566
221.018651	-3.746853
223.534364	-3.831469
226.045186	-0.762937
228.557433	-0.659441
231.066897	-0.787413
233.575683	-2.049650
236.083791	-1.383916
238.593323	-1.861538
241.097974	-7.310490
243.601949	-6.034965
246.107348	-9.332867
248.607872	-8.479021
251.111919	-8.295804
253.608996	-7.812587
256.109595	-5.411189
258.607423	-4.473427
261.104578	-3.312587
263.601060	-5.161538
266.092680	-4.350350
268.587818	-5.243357
271.080191	-7.953147
273.571893	-7.905594
276.060832	-10.135664
278.551194	-9.741259
281.038795	-11.846154
283.523636	-12.463636
286.011991	-10.097902
288.493408	-8.827972
290.978338	-8.659441
293.458422	-8.858741
295.942019	-8.020979
298.420774	-9.793706
300.900951	-10.072028
303.378377	-5.072028
305.855139	-6.290909
308.331237	-6.693706
310.804587	-5.535664
313.277276	-4.218182
315.749303	-2.625175
318.220668	-7.013287
320.689290	-6.923776
323.157252	-7.652448
325.626637	-5.943357
328.091199	-7.383217
330.559264	-4.844056
333.022510	-0.378322
335.485099	-4.441958
337.947030	-6.048252
340.408305	-5.810490
342.866846	-5.949650
345.326809	-7.930769
347.784040	-10.883916
350.240616	-8.125175
352.696537	-8.379021
355.149730	-3.365035
357.604345	-6.733566
360.054158	-6.506294
362.507467	-7.081818
364.955977	-7.662937
367.403837	-9.538462
369.853118	-5.851049
372.297606	-6.997902
374.743516	-4.100699
377.188777	-5.902797
379.631319	-7.725175
382.073213	-6.890210
384.514459	-2.807692
386.952990	-5.409790
389.392943	-5.453846
391.830182	-2.931469
394.264709	-0.455245
396.702724	-3.352448
399.135962	-0.659441
401.570622	-4.600699
404.000509	-4.590210
406.433881	-11.449650
408.862482	-12.662238
411.290443	-13.774825
413.719824	-14.746154
416.144441	-18.105594
418.570478	-17.562238
420.995876	-14.472727
423.420633	-11.597902
425.840631	-11.330769
428.262051	-10.585315
430.680774	-13.227972
433.100918	-10.744755
435.518367	-8.729371
437.937236	-8.530769
440.353412	-10.732168
442.764841	-11.553147
445.179746	-11.441259
447.591961	-7.802797
450.003542	-2.960140
452.414489	-0.718881
454.822750	-0.257343
457.230379	-1.701399
459.637375	-0.993007
462.043739	2.579720
464.447422	2.749650
466.850474	-0.564336
469.252896	-2.951049
471.654688	-4.480420
474.053802	-5.402098
476.454336	-4.637063
478.854241	-2.705594
481.249423	-3.737063
483.648072	-3.206294
486.042001	-2.049650
488.435304	0.109091
490.827981	-1.088112
493.220033	-4.244755
495.613504	-6.253846
498.002262	-6.394406
500.388354	-7.627972
502.775866	-10.088112
505.162754	-7.809790
507.546979	-5.923077
509.932623	-4.354545
512.315604	-4.601399
514.695925	-3.721678
517.077665	-4.277622
519.456746	-6.465734
521.837246	-11.270629
524.215088	-13.581818
526.590275	-16.965035
528.964844	-18.532867
531.340832	-16.920280
533.714166	-14.525874
536.088919	-14.194406
538.458985	-10.589510
540.828436	-8.960839
543.199306	-7.682517
545.565494	-6.874825
547.933101	-8.376224
550.298062	-10.346853
552.662410	-11.407692
555.026146	-11.630070
557.391299	-10.859441
559.751780	-7.897902
562.113678	-9.318881
564.472937	-7.351049
566.829557	-3.262238
569.189623	-2.008392
571.542997	-0.218881
573.899816	1.652448
576.254000	2.648951
578.607575	2.027972
580.960542	2.006993
583.310878	0.946853
585.662630	-2.779720
588.007706	-3.844755
590.358246	-2.717483
592.702113	-2.500699
595.051441	-4.862238
597.396120	-3.264336
599.738175	-1.112587
602.081647	0.467133
604.422496	1.527972
606.762742	0.171329
609.100368	0.633566
611.441429	-2.048252
613.777853	-3.008392
616.115693	-0.648252
618.450915	2.552448
620.783522	1.654545
623.117546	-0.366434
625.448955	-0.190210
627.779766	-0.918182
630.109979	-3.288811
632.439595	-4.588811
634.764587	-7.709091
637.095021	-7.377622
639.420833	-9.836364
641.744039	-8.597902
644.068661	-7.167133
646.390677	-5.802797
648.712099	-3.958042
651.030918	-1.415385
653.351153	-2.393706
655.670795	-1.847552
657.987836	-4.762238
660.304286	-6.953147
662.618137	-11.359441
664.933403	-9.366434
667.246073	-12.747552
669.560158	-13.444755
671.869644	-17.366434
674.180544	-16.338462
676.488852	-16.956643
678.796572	-13.337063
681.105707	-13.334965
683.410249	-11.465035
685.714205	-7.806294
688.017574	-7.693706
690.322358	-4.802797
692.622556	-0.461538
694.924169	-2.330769
697.225196	-0.495804
699.521642	-1.639860
701.819502	1.068531
704.116780	2.088811
706.413473	4.969930
708.705591	3.232168
711.001120	3.974126
713.292076	1.783217
715.584446	-0.630070
717.874240	-2.510490
720.163455	-7.028671
722.452089	-10.181818
724.738152	-7.738462
727.025628	-9.114685
729.310534	-7.844056
731.594861	-6.456643
733.876621	-5.875524
736.159794	-5.920979
738.442390	-5.068531
740.720430	-8.147552
742.999884	-4.327273
745.278763	-5.706993
747.557066	-2.896503
749.830820	-3.722378
752.105988	-1.822378
754.380582	-3.376224
756.652617	0.701399
758.926065	-0.528671
761.196955	-0.051049
763.465288	-1.810490
765.735036	-2.278322
768.002228	-2.656643
770.268850	-2.620979
772.534903	-4.027273
774.798404	-5.318182
777.063317	-11.809091
779.327662	-11.772028
781.587476	-9.814685
783.848704	-6.775524
786.109364	-5.478322
788.367477	-3.857343
790.623046	-7.686014
792.882006	-6.440559
795.134467	-6.799301
797.392295	-10.895105
799.645604	-10.316783
801.896372	-13.549650
804.148553	-17.468531
806.398196	-16.595105
808.649250	-12.647552
810.895793	-12.559441
813.143749	-8.433566
815.389169	-11.898601
817.636002	-12.651748
819.882272	-10.496503
822.124039	-8.298601
824.369188	-11.389510
826.607865	-8.880420
828.849925	-8.759441
831.087486	-8.420979
833.326458	-1.926573
835.562904	1.041958
837.800762	4.818182
840.036094	8.548252
842.268902	8.729371
844.503122	8.825874
846.734820	6.297902
848.965963	3.286014
851.196551	-0.704895
853.426585	-0.560839
855.656064	-2.583916
857.881063	-6.608392
860.109435	-4.009091
862.333329	-8.867832
864.558633	-9.598601
866.779462	-13.310490
869.003663	-16.523776
871.223391	-17.409790
873.444530	-14.718881
875.665118	-6.793706
877.883197	3.048951
880.102685	9.837063
882.317707	15.094406
884.532181	10.482517
886.746108	12.017483
888.959487	5.143357
891.172320	-1.397203
893.384605	-9.353147
895.594389	-11.386713
897.803627	-15.723077
900.012319	-14.296503
902.218513	-13.730070
904.426116	-15.228671
906.631222	-9.688112
908.835784	-7.416783
911.037851	-13.486713
913.241327	-8.337762
915.442309	-8.783916
917.642749	-4.193706
919.844598	-5.594406
922.040056	-6.372727
924.238872	-12.482517
926.433251	-6.381119
928.630987	-7.102797
930.824287	-8.632867
933.018995	-9.723077
935.211218	-14.372727
937.402903	-13.179021
939.594050	-13.439860
941.782714	-14.113287
943.970841	-9.088811
946.156488	-11.013986
948.345487	-7.082517
950.530063	0.937762
952.714104	11.546853
954.901495	11.356643
957.080583	5.992308
959.263020	5.737762
961.444924	1.963636
963.624354	1.525175
965.801311	-9.380420
967.979676	-16.072028
970.159447	-15.157343
972.332870	-17.280420
974.509639	-17.179021
976.682002	-17.200000
978.855771	-14.903497
981.025138	-9.962937
983.197848	-3.368531
985.368092	12.195105
987.537808	7.861538
989.706995	12.220280
991.871785	12.770629
994.039917	24.017483
996.203653	17.603497
998.368797	13.783217
1000.531481	9.098601
1002.693640	2.152448
1004.853341	5.427273
1007.012519	8.406294
1009.173103	5.327972
1011.331232	1.893706
1013.488837	4.131469
1015.645919	1.209091
1017.802478	1.662238
1019.954657	6.569930
1022.108243	-17.107692
1024.261306	-18.469231
1026.411922	-27.485315
1028.563943	-34.589510
1030.711591	-33.262937
1032.862571	-27.137762
1035.009181	-31.160839
1037.155271	-18.148252
1039.300843	-2.727273
1041.447819	-4.569930
1043.588508	-2.002098
1045.732525	-3.686713
1047.874103	-7.665035
1050.015163	-2.098601
1052.157628	-4.797203
1054.293814	1.613986
1056.433326	17.793007
1058.568482	25.898601
1060.706963	9.837762
1062.841091	11.255944
1064.974705	9.000000
1067.109723	3.280420
1069.240392	-18.823776
1071.372467	-28.086713
1073.502111	-25.594406
1075.631244	-28.849650
1077.759866	-24.151049
1079.887976	-13.972727
1082.013660	-2.292308
1084.138834	-3.683916
1086.265411	-13.660140
1088.387652	-4.630070
1090.511297	0.530070
1092.630607	-8.046154
1094.755146	-20.863636
1096.873441	-19.289510
1098.993139	-16.674825
1101.110419	-18.311189
1103.227193	-5.332867
1105.343460	-4.712587
1107.457312	6.378322
1109.572567	5.069930
1111.683500	4.737063
1113.797744	-0.925175
1115.907669	-1.821678
1118.018996	-2.946853
1120.129820	-4.675524
1122.236327	-11.583916
1124.346143	-12.838462
1126.451645	-11.786713
1128.558551	-4.875524
1130.659240	-7.311888
1132.765142	-5.693706
1134.866735	-11.437063
1136.969731	-11.221678
1139.072226	-19.997203
1141.168515	-9.948951
1143.270010	-5.096503
1145.367203	-7.584615
1147.463897	-11.973427
1149.560094	-14.867832
1151.655792	-17.767832
1153.750993	-19.859441
1155.843797	-23.088112
1157.938003	-17.367832
1160.026018	-12.709091
1162.119231	-7.636364
1164.206256	-5.651748
1166.296581	4.274126
1168.382617	9.051748
1170.471951	4.714685
1172.555104	-0.209091
1174.639660	-10.576224
1176.725616	-21.042657
1178.807291	-31.555245
1180.890368	-38.799301
1182.971059	-35.709091
1185.051259	-36.700699
1187.130967	-31.523776
1189.210183	-28.859441
1191.287018	-18.357343
1193.361472	-12.797902
1195.439218	-11.833566
1197.512693	-7.085315
1199.587570	-2.759441
1201.658179	-0.695804
1203.730189	-0.665035
1205.799823	-0.435664
1207.870858	2.979720
1209.941405	5.562238
1212.007691	0.347552
1214.075378	-0.232168
1216.140693	1.315385
1218.207408	-1.697203
1220.269867	-1.665035
1222.335612	-6.090210
1224.397102	-8.016783
1226.459992	-9.560140
1228.520515	-10.949650
1230.580555	-10.230769
1232.640111	-13.417483
1234.697303	-9.941958
1236.754012	-8.545455
1238.808359	0.250350
1240.865986	5.271329
1242.921251	9.493007
1244.972275	13.432168
1247.024699	10.890210
1249.076644	7.765035
1251.126230	7.388112
1253.175337	7.148951
1255.223965	3.028671
1257.272115	-5.553147
1259.319787	-2.870629
1261.363228	-4.412587
1263.409944	-1.973427
1265.454308	-6.795804
1267.498194	-8.539860
1269.539730	-13.630769
1271.578916	-15.700699
1273.621374	-23.384615
1275.659611	-24.751049
1277.699245	-26.293007
1279.738405	-27.354545
1281.773347	-22.502797
1283.809687	-13.783916
1285.843682	-11.688112
1287.879076	-0.705594
1289.910256	6.781119
1291.942835	12.091608
1293.974941	14.788811
1296.004707	18.434266
1298.035871	16.175524
1300.062827	11.718182
1302.091181	3.859441
1304.115331	0.748252
1306.142746	0.962238
1308.165958	-4.223077
1310.190568	-9.966434
1312.212843	-14.942657
1314.236516	-12.421678
1316.257856	-18.201399
1318.278729	-15.141958
1320.299134	-12.732867
1322.315345	-7.625175
1324.332955	-6.044056
1326.348236	-6.004196
1328.366776	1.148252
1330.381126	4.027972
1332.393151	4.976224
1334.408434	0.411888
1336.419531	-8.543357
1338.432024	-11.497902
1340.440335	-17.832168
1342.451902	-15.174126
1344.457430	-9.306993
1346.466212	-5.974126
1348.470818	-7.340559
1350.478677	-6.830769
1352.486073	2.341259
1354.487439	5.185315
1356.490202	9.615385
1358.492505	7.083217
1360.494347	4.446154
1362.495731	-0.071329
1364.494800	-0.554545
1366.493411	5.059441
1368.491564	7.840559
1370.489259	5.230070
1372.482790	1.060140
1374.477718	-1.478322
1376.472189	0.510490
1378.466203	-2.566434
1380.457910	-4.969930
1382.449161	-4.859441
1384.438107	-6.561538
1386.428448	-7.890210
1388.418334	-8.182517
1390.405917	-2.001399
1392.393046	0.690909
1394.377873	2.584615
1396.364095	-0.396503
1398.348016	-1.480420
1400.331485	-4.868531
1402.314502	-5.067133
1404.295221	-3.932168
1406.277334	-0.999301
1408.257150	2.044755
1410.236516	3.683916
1412.211743	2.542657
1414.190208	3.810490
1416.166380	0.609091
1418.142102	-3.375524
1420.117375	-8.273427
1422.090357	-8.585315
1424.062892	-13.810490
1426.034978	-13.513287
1428.006616	-9.406294
1429.974127	-7.038462
1431.946711	-2.402797
1433.911489	-5.125874
1435.881340	-4.407692
1437.847066	-2.104895
1439.814186	-9.835664
1441.779022	-8.551049
1443.739738	-10.194406
1445.705522	-6.549650
1447.665351	-5.960839
1449.626573	-3.872727
1451.589188	1.472727
1453.547688	3.462937
1455.505746	7.272028
1457.463361	5.716084
1459.420535	12.453846
1461.375433	8.682517
1463.331723	3.843357
1465.285739	7.832867
1467.239315	4.746853
1469.190618	7.521678
1471.143313	5.671329
1473.093737	4.969930
1475.043722	2.440559
1476.993267	-3.243357
1478.940544	-6.295105
1480.885554	-11.585315
1482.831956	-17.827273
1484.777920	-19.507692
1486.723446	-18.411189
1488.666708	-15.934266
1490.609533	-11.388811
1492.550095	-3.246853
1494.492048	-6.493706
1496.431740	-2.420280
1498.370996	-2.072028
1500.309818	-4.859441
1502.246380	-4.915385
1504.184332	-4.240559
1506.120027	-7.398601
1508.055288	-0.810490
1509.988292	1.549650
1511.920864	1.032867
1513.853004	-2.877622
1515.784712	-7.081119
1517.714167	-15.579021
1519.645011	-13.480420
1521.575425	-15.388112
1523.501766	-13.748252
1525.429497	-9.474825
1527.354978	-3.869231
1529.280030	-0.916783
1531.204653	5.172028
1533.128847	8.928671
1535.050794	5.790210
1536.974130	0.639161
1538.895221	1.265734
1540.814067	-2.661538
1542.734303	-1.994406
1544.652295	-7.202797
1546.569861	-7.446154
1548.485185	-10.909790
1550.401899	-7.912587
1552.314558	-7.109091
1554.230421	-6.661538
1556.144045	-7.146853
1558.055430	-5.086014
1559.968204	-3.561538
1561.876929	1.823077
1563.787044	-0.646853
1565.696735	-3.420280
1567.606002	-0.565035
1569.513036	-7.185315
1571.417837	-14.066434
1573.324027	-9.116084
1575.227985	-12.560140
1577.131523	-12.000000
1579.034639	-15.710490
1580.935527	-12.207692
1582.837803	-2.173427
1584.737850	2.459441
1586.639286	-1.559441
1588.536687	-0.865035
1590.433671	5.978322
1592.330236	0.899301
1594.228188	5.369231
1596.120306	15.826573
1598.015618	12.312587
1599.910511	11.546853
1601.803183	4.421678
1603.695439	5.776224
1605.585475	2.896503
1607.475095	-7.118182
1609.364300	-13.530769
1611.253089	-19.620280
1613.139662	-21.440559
1615.027621	-13.561538
1616.911565	-4.018182
1618.796895	0.218182
1620.681812	0.737063
1622.564515	-0.186713
1624.448604	0.202797
1626.328683	1.436364
1628.210148	3.343357
1630.089403	0.009790
1631.970044	-1.166434
1633.844881	-1.525175
1635.724700	-0.353147
1637.600513	1.286713
1639.475917	-2.389510
1641.352706	-4.975524
1643.223698	-7.023077
1645.097872	-7.759441
1646.968048	-6.184615
1648.841404	-6.648252
1650.712557	-4.147552
1652.581508	-9.415385
1654.451845	-11.976923
1656.318188	-1.832867
1658.185918	-4.183916
1660.051448	-10.353147
1661.918363	-10.224476
1663.781290	-10.829371
1665.645602	-6.142657
1667.507719	-2.616084
1669.369430	0.868531
1671.232526	-4.961538
1673.093428	-14.240559
1674.952136	-12.837063
1676.810441	-11.663636
1678.670131	-7.821678
1680.524054	-12.882517
1682.381149	-10.337762
1684.237842	-5.863636
1686.090559	-1.917483
1687.946447	11.588112
1689.798361	12.736364
1691.649873	14.502797
1693.500986	6.329371
1695.351697	-5.190210
1697.202008	-5.344755
1699.050135	-5.300000
1700.899645	-8.035664
1702.743407	-3.963636
1704.592119	-4.081119
1706.435084	-10.009091
1708.281215	-11.645455
1710.123385	-9.836364
1711.968719	-2.955245
1713.808313	-16.058042
1715.649291	-18.262937
1717.491652	-18.139860
1719.330057	-7.657343
1721.169845	11.021678
1723.007458	21.988112
1724.844675	23.351049
1726.679719	22.635664
1728.516146	20.820979
1730.350401	23.919580
1732.184262	18.690210
1734.017728	19.884615
1735.847248	9.541958
1737.679927	9.975524
1739.508662	4.974825
1741.340555	-0.032168
1743.168505	-7.953147
1744.996063	-19.986014
1746.823230	-25.615385
1748.650004	-34.763636
1750.476388	-41.959441
1752.298835	-30.302098
1754.124436	-25.295105
1755.946103	-14.474825
1757.769152	1.725874
1759.590040	7.991608
1761.410538	2.523776
1763.232418	2.682517
1765.048598	-4.015385
1766.867930	-8.325175
1768.683335	-5.141958
1770.501891	-8.386014
1772.316521	-0.346853
1774.130764	18.826573
1775.944621	31.239161
1777.758091	23.225874
1779.569407	24.182517
1781.382105	25.211189
1783.194416	12.060140
1785.002810	12.360140
1786.812585	-6.675524
1788.618444	-12.367832
1790.427450	-12.135664
1792.232542	-8.309790
1794.039014	-0.193007
1795.845103	6.229371
1797.647282	12.584615
1799.452604	13.207692
1801.254018	21.250350
1803.056812	26.541958
1804.855701	18.972028
1806.655969	17.290210
1808.455857	-4.606294
1810.253602	-11.125175
1812.050967	-12.981119
1813.847951	-18.237762
1815.644555	-15.387413
1817.439020	-14.847552
1819.234865	-9.393706
1821.025054	-0.975524
1822.820140	3.667832
1824.609573	4.781119
1826.402144	-0.939860
1828.192579	-2.046853
1829.980879	-16.148951
1831.772315	-23.430769
1833.558105	-31.369231
1835.345275	-39.030070
1837.130313	-39.231469
1838.918485	-35.679720
1840.702771	-40.616783
1842.484928	-26.815385
1844.268463	-14.913986
1846.049871	-4.576224
1847.832656	5.797203
1849.611562	-0.904895
1851.391846	-3.744056
1853.170005	-10.053147
1854.949541	-21.358741
1856.726953	-22.241958
1858.502241	-29.413287
1860.278908	-30.853147
1862.053452	-34.716783
1863.829373	-19.193706
1865.599675	-7.856643
1867.373104	-2.108392
1869.144413	5.622378
1870.915351	2.097203
1872.687666	11.051049
1874.454369	8.849650
1876.224196	6.010490
1877.990160	14.358741
1879.759248	11.762937
1881.524474	10.332867
1883.289332	9.853846
1885.055566	10.757343
1886.817942	11.323077
1888.579951	1.055944
1890.341593	6.151049
1892.102867	-1.625874
1893.863775	-7.218881
1895.624315	-4.741958
1897.382746	-5.557343
1899.140812	7.139860
1900.896770	8.479021
1902.654104	6.192308
1904.411072	6.550350
1906.165935	6.333566
1907.918692	7.645455
1909.671086	0.934965
1911.424856	-1.169231
1913.176522	-16.600000
1914.926085	-21.197203
1916.677025	-22.044056
1918.427601	-26.004196
1920.174339	-21.928671
1921.922452	-17.966434
1923.668466	-17.702797
1925.415856	-8.240559
1927.161147	0.511888
1928.904341	6.413287
1930.648911	4.051748
1932.391384	0.210490
1934.133497	-3.800000
1935.875251	-4.372727
1937.616644	-4.316084
1939.355944	-8.593706
1941.094885	-15.336364
1942.833467	-21.320280
1944.569957	-25.627273
1946.306090	-21.852448
1948.043597	-20.515385
1949.777283	-15.846154
1951.512343	-17.848951
1953.245314	-6.988811
1954.977929	2.888112
1956.710187	9.866434
1958.442089	17.181119
1960.171905	18.277622
1961.899637	11.632168
1963.628742	2.332867
1965.357493	-1.827273
1967.084160	-1.882517
1968.810473	-4.518182
1970.538159	-4.381119
1972.260309	-4.609790
1973.985561	1.176224
1975.707005	-2.444755
1977.431549	-4.490909
1979.154014	-2.425175
1980.872675	0.277622
1982.594435	-4.309091
1984.312393	-5.093007
1986.031725	-8.083217
1987.747256	-7.710490
1989.467609	-6.013287
1991.184162	-2.492308
1992.896920	0.440559
1994.612773	-4.520280
1996.326554	-8.211888
1998.039984	-8.618881
1999.751344	-6.357343
2001.464077	0.189510
2003.173018	6.607692
2004.885053	12.959441
2006.591578	12.469930
2008.301196	11.570629
2010.008746	8.916783
2011.715949	6.332168
2013.421086	3.074126
2015.125876	1.363636
2016.832038	-1.951748
2018.534418	-2.688811
2020.238170	-2.337762
2021.939859	-3.112587
2023.641202	3.188112
2025.342200	3.904895
2027.041138	4.237063
2028.741447	-2.999301
2030.437980	-5.150350
2032.135885	2.329371
2033.831732	1.413986
2035.530664	3.828671
2037.224110	2.400000
2038.918927	4.563636
2040.613401	2.960140
2042.304107	-6.515385
2043.997897	-5.867133
2045.687920	-10.105594
2047.379314	-8.815385
2049.068655	-10.392308
2050.759366	-9.679021
2052.446315	-3.452448
2054.132923	-8.916783
2055.820902	-2.912587
2057.505121	-0.285315
2059.190710	-1.818182
2060.875960	-3.136364
2062.559162	-8.659441
2064.243734	-6.420280
2065.922842	-9.955245
2067.606736	-4.932867
2069.285170	-2.693706
2070.966681	-1.881119
2072.644440	3.111888
2074.321863	1.573427
2076.000655	7.216783
2077.677404	2.518182
2079.352112	-0.392308
2081.028189	0.023077
2082.702226	-4.976224
2084.375927	-4.622378
2086.049293	-7.508392
2087.720621	-4.287413
2089.391614	-3.606294
2091.062273	-3.944755
2092.732598	-1.209790
2094.402588	-0.640559
2096.070543	-3.472028
2097.738165	-4.740559
2099.403753	-6.639860
2101.070709	-6.391608
2102.735632	-10.018881
2104.400222	-9.948252
2106.062781	-14.339161
2107.726709	-13.502797
2109.388605	-14.050350
2111.050170	-11.003497
2112.711405	-1.569231
2114.370610	0.746853
2116.029486	-0.990909
2117.688031	-2.902098
2119.346247	-0.256643
2121.000739	-2.107692
2122.658297	-8.304895
2124.315524	-7.762238
2125.969031	-10.414685
2127.623905	-8.378322
2129.275060	-9.063636
2130.929278	-2.797203
2132.579778	-1.920280
2134.231646	-0.714685
2135.878105	-4.788112
2137.529318	-5.418182
2139.176818	4.641958
2140.825686	2.935664
2142.472534	0.925175
2144.119056	6.421678
2145.765254	5.475524
2147.407742	7.652448
2149.053289	12.904196
2150.695129	19.546154
2152.340026	17.776224
2153.981218	18.178322
2155.622086	15.252448
2157.262631	16.344056
2158.901163	20.236364
2160.541061	17.625175
2162.177259	13.130769
2163.814823	11.868531
2165.452065	6.438462
2167.087297	4.022378
2168.722207	3.333566
2170.356796	-0.032168
2171.991064	-4.313986
2173.621638	-5.776923
2175.255263	-11.774825
2176.885197	-19.794406
2178.516496	-18.386713
2180.145791	-19.380420
2181.774765	-20.320280
2183.403421	-15.950350
2185.031757	-16.079720
2186.658090	-17.767832
2188.284105	-16.224476
2189.908119	-11.693007
2191.533498	-7.254545
2193.156876	-7.681818
2194.781619	-15.053846
2196.402680	-20.811189
2198.023426	-21.083217
2199.645535	-20.459441
2201.265647	-22.704196
2202.883763	-13.692308
2204.501563	-13.838462
2206.119047	-10.639161
2207.736216	-4.196503
2209.353070	3.625874
2210.969609	5.092308
2212.584154	4.502098
2214.196707	1.709091
2215.810625	-3.235664
2217.422550	-8.023776
2219.035840	-12.529371
2220.647138	-20.374825
2222.256448	-25.522378
2223.867120	-24.237762
2225.475804	-17.464336
2227.084176	-13.846154
2228.690560	-6.722378
2230.298308	3.567832
2231.904069	9.877622
2233.509519	9.973427
2235.112985	6.108392
2236.717813	-0.655245
2238.320657	-6.861538
2239.921518	-9.937063
2241.523742	-10.439161
2243.123983	-5.435664
2244.725588	-1.465035
2246.323539	-4.381818
2247.922853	-3.951049
2249.520187	-4.287413
2251.117213	-12.274126
2252.715600	-19.758042
2254.310339	-17.257343
2255.903102	-22.796503
2257.497226	-21.096503
2259.092712	-17.586713
2260.684554	-18.428671
2262.276089	-12.369930
2263.868985	-13.675524
2265.456572	-12.924476
2267.048856	-10.763636
2268.635832	-9.644056
2270.225837	-5.560839
2271.810537	-3.958042
2273.399931	10.151748
2274.984022	1.958741
2276.569475	0.218182
2278.152959	-2.686014
2279.739468	-7.482517
2281.322344	-9.248951
2282.904916	-16.524126
2284.487186	-10.994406
2286.065825	1.559091
2287.647488	2.728671
2289.225524	4.695455
2290.806582	0.888811
2292.384013	6.445804
2293.959481	1.830070
2295.537971	-1.303846
2297.112836	-9.676224
2298.687401	-20.877972
2300.261666	-22.705594
2301.835630	-18.075175
2303.409294	-7.890210
2304.982657	1.221678
2306.552402	-2.072727
2308.121848	-5.860839
2309.694313	-7.677622
2311.261503	-0.164336
2312.831710	4.444755
2314.398303	-3.521678
2315.966256	-3.156643
2317.532254	-1.738462
2319.097954	1.800000
2320.663356	8.204196
2322.226805	11.153846
2323.791613	7.333566
2325.352812	0.899301
2326.917026	-11.419580
2328.475979	-10.632867
2330.037945	-3.607692
2331.597961	-8.427972
2333.157681	-8.980420
2334.715452	-0.373427
2336.272929	-4.832168
2337.830110	-8.486014
2339.385345	-7.716783
2340.940285	-8.541259
2342.494932	-2.919580
2344.049285	-4.829371
2345.603344	-1.413986
2347.157110	0.080420
2348.708931	-4.570629
2350.258809	-7.020280
2351.811695	3.697203
2353.359339	4.197203
2354.909990	9.455245
2356.457051	11.222378
2358.005469	14.556643
2359.553595	17.581818
2361.098134	18.623077
2362.644030	15.735664
2364.187987	18.220979
2365.733302	4.654545
2367.275032	-0.916084
2368.818120	8.830070
2370.359271	15.800699
2371.900133	18.467832
2373.440706	29.668531
2374.980990	23.092308
2376.520985	18.316783
2378.057401	12.894406
2379.596819	15.818881
2381.132660	9.218182
2382.669857	8.021678
2384.203480	-4.474825
2385.740102	-6.658042
2387.274793	-2.478322
2388.807555	2.781119
2390.340031	-1.974126
2391.870578	-8.562937
2393.404123	-22.569930
2394.932457	-21.250350
2396.462147	-13.805594
2397.991552	-3.747552
2399.520672	-6.133566
2401.049506	3.441259
2402.573136	1.134965
2404.101401	7.686713
2405.624463	22.269231
2407.152160	34.461538
2408.673016	24.418881
2410.198506	19.059441
2411.720436	17.002098
2413.243720	18.025175
2414.765084	18.320979
2416.284528	16.872028
2417.805327	14.587413
2419.324207	9.450350
2420.842805	3.646853
2422.359486	9.624476
2423.877522	9.369231
2425.395276	15.772028
2426.909478	14.633566
2428.423400	8.944056
2429.937043	17.174126
2431.452039	23.150350
2432.963487	25.246853
2434.476290	27.332867
2435.987180	23.829371
2437.497790	18.232168
2439.006489	16.858741
2440.518175	5.318881
2442.026317	-6.700000
2443.534180	-13.351748
2445.041766	-23.287413
2446.545812	-28.342657
2448.052842	-15.334266
2449.557964	-8.494406
2451.062809	4.788811
2452.565747	20.907692
2454.068408	24.170629
2455.570793	25.387413
2457.071273	22.488112
2458.573106	8.288112
2460.073035	2.225874
2461.572688	-5.839860
2463.072066	-8.058042
2464.569541	-6.542657
2466.065114	-1.300000
2467.563667	-6.155245
2469.058691	4.097203
2470.555069	6.257343
2472.047920	-2.746853
2473.542123	-3.263636
2475.036053	-6.195105
2476.526460	-9.890909
2478.019844	-6.136364
2479.511329	3.795804
2481.000918	3.186713
2482.490236	7.936364
2483.977657	18.258741
2485.468054	9.235664
2486.954932	17.188112
2488.443162	12.614685
2489.927876	9.496503
2491.412319	12.862238
2492.898114	2.306993
2494.382016	-0.173427
2495.867270	-6.010490
2497.347390	-4.634965
2498.830482	-11.907692
2500.311684	-15.802797
2501.792617	-14.972727
2503.271661	-25.264336
2504.750437	-26.288112
2506.228944	-31.985315
2507.707182	-25.055245
2509.185152	-21.479021
2510.659618	-16.177622
2512.137052	-9.976224
2513.610983	-11.399301
2515.086265	-15.368531
2516.561279	-23.155245
2518.032792	-23.583916
2519.505656	-14.120280
2520.976637	-21.338462
2522.448967	-21.037063
2523.916185	-20.546154
2525.386369	-18.188811
2526.854671	-11.493007
2528.322709	-7.271329
2529.790482	-8.972028
2531.257990	-22.570629
2532.725233	-32.222378
2534.188985	-29.797902
2535.654086	-15.953147
2537.117310	-8.075524
2538.581883	-7.399301
2540.042967	4.093007
2541.505402	4.325874
2542.967573	1.297203
2544.426257	7.093706
2545.889514	10.727273
2547.347674	9.861538
2548.807183	-1.408392
2550.261599	3.775524
2551.720585	7.639860
2553.177698	19.127972
2554.632941	21.897902
2556.087923	22.723077
2557.541035	26.737063
2558.995496	22.441259
2560.448088	14.911189
2561.900420	15.832867
2563.350884	9.933566
2564.804304	0.870629
2566.252642	-3.823077
2567.703936	1.334266
2569.153363	5.518881
2570.599319	9.824476
2572.048229	1.931469
2573.493668	3.329371
2574.940456	7.290909
2576.385380	11.096503
2577.830047	5.286713
2579.276061	4.524476
2580.718608	-9.390210
2582.162503	-10.942657
2583.602933	-7.348951
2585.044711	-6.387413
2586.484629	-8.567133
2587.925894	-11.206993
2589.363697	-14.716783
2590.804450	-3.718881
2592.240140	-0.616084
2593.678780	3.836364
2595.115563	5.514685
2596.550489	12.007692
2597.988364	12.481119
2599.421181	21.653147
2600.855345	12.000699
2602.287654	5.709790
2603.721310	2.749650
2605.153113	-1.453147
2606.584663	-8.616084
2608.015959	-14.713986
2609.445404	-20.355944
2610.874596	-30.690210
2612.301937	-31.134266
2613.730625	-30.418881
2615.159060	-27.052448
2616.584049	-20.287413
2618.010383	-25.486014
2619.434869	-23.604196
2620.860701	-15.062238
2622.283089	-7.569231
2623.706823	-4.178322
2625.128711	4.169231
2626.550348	-7.174825
2627.970140	-13.641259
2629.391278	-12.415385
2630.812166	-18.575524
2632.229616	-12.781818
2633.650005	-9.876923
2635.066957	-16.051748
2636.483661	-15.584615
2637.900116	-8.773427
2639.316323	-4.546853
2640.732281	-5.572727
2642.146399	-5.505594
2643.560270	-22.701399
2644.972301	-20.508392
2646.385677	-15.874126
2647.795623	-9.724476
2649.208505	-6.036364
2650.617958	-9.303497
2652.027165	-2.805594
2653.434536	9.745455
2654.844841	14.625874
2656.253310	20.166434
2657.659944	16.872727
2659.066333	13.018881
2660.470888	8.602797
2661.876787	8.988811
2663.280853	10.174126
2664.684675	6.217483
2666.088252	-6.954545
2667.489997	-12.989510
2668.893086	-11.941259
2670.292758	-12.127972
2671.693773	-4.448252
2673.091371	-3.970629
2674.491900	-5.053846
2675.889014	-0.259441
2677.287471	7.526573
2678.684100	8.545455
2680.080488	10.197902
2681.476633	6.483217
2682.870952	-5.616783
2684.266614	-14.055245
2685.658866	-20.523776
2687.052462	-25.423077
2688.444233	-18.681119
2689.837346	-22.286014
2691.228636	-20.121678
2692.618103	-15.997902
2694.007331	-8.881119
2695.396318	-4.310490
2696.786648	3.392308
2698.171993	3.241259
2699.560263	-7.228671
2700.946712	-4.934965
2702.332922	-10.195804
2703.718893	-6.169930
2705.101466	-3.253147
2706.485380	-11.452448
2707.869057	-15.239860
2709.252496	-10.446154
2710.632539	-3.213986
2712.013924	-2.578322
2713.393493	4.840559
2714.774404	4.056643
2716.153500	-4.507692
2717.530781	-5.830769
2718.909404	-19.083217
2720.286214	-15.930769
2721.662788	-21.196503
2723.039126	-26.725874
2724.413652	-27.326573
2725.789519	-22.034266
2727.161999	-21.455944
2728.537396	-17.994406
2729.907831	-9.272028
2731.279608	-2.730769
2732.651151	4.708392
2734.020885	6.037063
2735.391959	4.332168
2736.761226	17.928671
2738.130259	14.892308
2739.497485	14.645455
2740.864479	10.249650
2742.231240	2.846853
2743.597768	-6.247552
2744.962492	-10.620979
2746.326983	-19.817483
2747.691242	-22.523776
2749.055270	-21.158042
2750.419065	-21.860140
2751.779487	-29.567133
2753.142820	-25.875524
2754.501210	-35.682517
2755.862510	-29.634266
2757.220439	-20.541259
2758.581278	-15.527273
2759.940316	-15.858741
2761.295986	-12.634965
2762.654565	-13.362937
2764.009776	-11.962937
2765.364758	-0.176224
2766.717943	7.537063
2768.074035	-3.758741
2769.426763	-7.637063
2770.779262	-10.960140
2772.131533	-9.278322
2773.485143	-1.245455
2774.835391	-4.307692
2776.183846	-7.390210
2777.535205	-3.710490
2778.883205	-3.005594
2780.232544	-1.033566
2781.580090	2.047552
2782.927409	4.235664
2784.274502	1.700699
2785.619804	0.659441
2786.964880	4.626573
2788.309730	-0.709790
2789.654354	-3.596503
2790.995625	-11.988112
2792.338235	-11.007692
2793.680620	-9.875524
2795.022779	-13.216783
2796.361589	-10.166434
2797.703299	-9.125874
2799.041660	-12.594406
2800.381359	-0.886014
2801.719272	0.321678
2803.055401	-5.061538
2804.391307	-4.997203
2805.728549	2.462937
2807.064008	8.304895
2808.399244	19.892308
2809.732698	24.912587
2811.067488	21.601399
2812.398937	20.615385
2813.733282	12.468531
2815.062729	2.471329
2816.393513	3.645455
2817.724075	-4.439161
2819.052858	-7.460140
2820.382978	0.786014
2821.711318	9.043357
2823.039438	0.324476
2824.365781	-1.200699
2825.693459	-6.994406
2827.017805	-10.714685
2828.343486	-19.090210
2829.667393	-19.276224
2830.991079	-15.427273
2832.316101	-6.793007
2833.637794	0.269930
2834.959267	12.257343
2836.280522	18.281818
2837.601558	14.139860
2838.920822	3.769231
2840.241421	-1.625175
2841.560248	-4.151748
2842.878857	-11.558741
2844.195696	-13.576923
2845.512317	-8.581119
2846.828720	-3.845455
2848.143355	-3.422378
2849.459324	-7.418182
2850.771973	-2.685315
2852.085958	-4.431469
2853.399726	-9.108392
2854.713277	-5.806294
2856.025061	-6.689510
2857.335080	-2.024476
2858.646433	-0.527972
2859.954470	8.393007
2861.263843	11.002098
2862.573000	8.620979
2863.881942	1.004895
2865.189121	0.377622
2866.494536	-1.735664
2867.801286	-7.677622
2869.106273	-18.432867
2870.411047	-17.202797
2871.714059	-20.856643
2873.019953	-18.903497
2874.320992	-14.520280
2875.623364	-11.727972
2876.923977	-4.460839
2878.225924	1.274126
2879.527658	2.238462
2880.826088	8.860140
2882.125851	13.164336
2883.423857	14.539860
2884.721651	12.911189
2886.017688	11.077622
2887.315059	1.050350
2888.610674	-3.863636
2889.906079	-6.373427
2891.201272	-8.418182
2892.493167	-10.632867
2893.787939	-8.067133
2895.079415	-17.346853
2896.372223	-10.297203
2897.664821	-5.750350
2898.954124	1.460839
2900.244760	4.514685
2901.533646	-2.148252
2902.823863	-1.709091
2904.110789	-6.990909
2905.399047	-2.414685
2906.685556	-1.513986
2907.971856	-1.718881
2909.257948	2.795804
2910.542292	-2.958741
2911.829508	0.004196
2913.111897	-9.740559
2914.395618	-13.230070
2915.677592	-19.563636
2916.959360	-20.515385
2918.239382	-17.497203
2919.522274	-17.432867
2920.803421	-6.200000
2922.081286	-3.802098
2923.362020	-7.825175
2924.639473	-4.347552
2925.916721	-7.830070
2927.192226	-7.914685
2928.470599	-16.523776
2929.744157	-14.650350
2931.020583	-3.280420
2932.295268	1.271329
2933.568213	2.287413
2934.842488	3.248951
2936.115024	1.662238
2937.387356	0.037762
2938.656415	-7.260140
2939.928339	-13.203497
2941.198525	-20.044056
2942.468507	-26.727972
2943.738286	-24.702098
2945.006328	-15.239860
2946.272635	-2.083916
2947.538739	-4.565035
2948.806174	3.498601
2950.071873	5.340559
2951.337370	2.665035
2952.602665	6.313287
2953.864696	0.283916
2955.128056	-3.897203
2956.391215	-7.342657
2957.652641	-15.758042
2958.915397	-12.315385
2960.176422	-11.695105
2961.435716	-9.378322
2962.694809	-11.532867
2963.953702	-1.500000
2965.212395	-0.895105
2966.470888	1.969231
2967.727652	1.330769
2968.984217	-6.079021
2970.239053	-5.402797
2971.495219	-11.813287
2972.748129	-22.009091
2974.002369	-25.290210
2975.256410	-27.340559
2976.508725	-25.654545
2977.760842	-24.942657
2979.011234	-10.574126
2980.264481	-5.128671
2981.512951	-2.837063
2982.764275	-3.595105
2984.012351	6.822378
2985.260229	16.386713
2986.507910	4.850350
2987.755395	-0.743357
2989.001158	0.081818
2990.246724	-1.114685
2991.493619	-0.614685
2992.737268	8.237762
2993.982246	10.658741
2995.223981	0.611888
2996.468567	-4.069231
2997.711434	0.339161
2998.951059	7.283916
3000.193536	-3.617483
3001.432772	-16.534965
3002.673336	-12.686014
3003.912183	-7.697203
3005.150836	-11.735664
3006.387773	-8.055944
3007.626037	-3.396503
3008.862587	-8.407692
3010.098943	-9.990909
3011.335105	-5.039161
3012.569553	-8.571329
3013.803808	-9.975524
3015.037870	-18.436364
3016.270220	-17.827972
3017.500858	-13.627273
3018.734342	-10.510490
3019.966115	-10.822378
3021.196176	-9.793007
3022.426046	-10.239860
3023.654206	-7.460839
3024.883693	-2.418182
3026.111470	1.603497
3027.339056	-3.493007
3028.567968	-6.534266
3029.792138	-17.072727
3031.019151	-31.211189
3032.242941	-28.620979
3033.468056	-29.188112
3034.691465	-28.709790
3035.914685	-29.576923
3037.136199	-26.763636
3038.360554	-19.465035
3039.580174	-12.602098
3040.801120	-7.001399
3042.021876	-1.922378
3043.240929	-6.143357
3044.461308	-16.494406
3045.678470	-28.899301
3046.896957	-23.291608
3048.113743	-22.788112
3049.330340	-20.738462
3050.546750	-18.006294
3051.759946	-17.239860
3052.975980	-7.686713
3054.188802	-11.376923
3055.404461	-6.836364
3056.615397	-12.149650
3057.827659	-23.017483
3059.039733	-30.785315
3060.251621	-32.272028
3061.461811	-22.560839
3062.671816	-15.446154
3063.881634	-12.342657
3065.089756	-11.182517
3066.297692	-7.820280
3067.503934	-1.225874
3068.711500	-10.334965
3069.917371	-11.058042
3071.123057	-18.074126
3072.328559	-19.622378
3073.532367	-15.723776
3074.737499	-12.712587
3075.940938	-2.193706
3077.142685	0.355944
3078.344249	0.218881
3079.545629	2.397203
3080.746825	6.449650
3081.946331	2.404895
3083.145653	-11.632867
3084.346299	-19.749650
3085.545256	-23.229371
3086.741017	-30.954545
3087.939608	-38.160839
3089.135005	-44.772028
3090.331726	-36.009790
3091.525254	-37.783217
3092.721610	-32.852448
3093.916279	-23.387413
3095.107758	-15.710490
3096.303568	-12.592308
3097.494685	-4.610490
3098.687125	-4.243357
3099.876376	2.794406
3101.068454	5.837762
3102.258848	10.125175
3103.446055	11.755944
3104.634586	12.559441
3105.824439	9.927972
3107.011107	14.311888
3108.197596	8.227972
3109.383905	3.085315
3110.571537	0.933566
3111.755986	0.027972
3112.938755	-1.605594
3114.124348	-2.691608
3115.308260	5.012587
3116.490494	7.390210
3117.672550	3.963636
3118.854427	2.297902
3120.036126	3.958042
3121.216148	1.389510
3122.394492	-4.657343
3123.575658	-8.167832
3124.753648	-8.405594
3125.931461	-6.580420
3127.109097	2.139161
3128.285058	-4.648951
3129.460843	-0.888811
3130.637948	-2.178322
3131.813380	-12.532867
3132.987138	-19.002797
3134.159223	-26.177622
3135.332629	-28.279720
3136.505860	-29.599301
3137.677418	-25.954545
3138.850298	-24.513287
3140.020010	-20.000699
3141.191043	-16.074126
3142.360405	-16.339161
3143.528098	-6.109790
3144.698606	3.025874
3145.864455	1.467133
3147.034614	7.751049
3148.200115	3.275524
3149.365443	2.168531
3150.530597	-1.253846
3151.695578	-1.175524
3152.861878	-7.593706
3154.023525	-10.824476
3155.186493	-20.066434
3156.349287	-17.655245
3157.511909	-12.344056
3158.672866	-7.634965
3159.833650	-10.788112
3160.994263	-8.610490
3162.153211	-12.199301
3163.311987	-14.700699
3164.470592	-17.707692
3165.629025	-22.870629
3166.787286	-32.525175
3167.943885	-34.261538
3169.098823	-31.527273
3170.255080	-28.997203
3171.409677	-28.311189
3172.564102	-26.067133
3173.716868	-29.452448
3174.869464	-18.117483
3176.021890	-8.280420
3177.174145	-13.854545
3178.326231	-14.693706
3179.475170	-23.404895
3180.626916	-26.594406
3181.777005	-14.094406
3182.925436	-1.979720
3184.073699	-7.745455
3185.221793	-8.121678
3186.369717	-4.813986
3187.515987	-6.376923
3188.662088	-3.932867
3189.806535	-5.553147
3190.950813	-14.357343
3192.094924	-16.327972
3193.240353	-21.504196
3194.382643	-21.174126
3195.524765	-15.995804
3196.666721	-12.178322
3197.808509	-16.308392
3198.950130	-19.122378
3200.088615	-13.047552
3201.228419	-12.962937
3202.369539	-12.481119
3203.507525	-8.811189
3204.643862	-3.688811
3205.780033	-1.962238
3206.917522	-4.918881
3208.053362	-12.773427
3209.190518	-13.684615
3210.323063	-21.306993
3211.459888	-24.579021
3212.592102	-27.583916
3213.725634	-14.948951
3214.859000	-11.467832
3215.989239	-8.168531
3217.122277	-1.341958
3218.252187	5.820280
3219.383415	6.468531
3220.511517	6.766434
3221.642417	4.233566
3222.771672	4.200699
3223.899283	-2.351748
3225.023773	1.625175
3226.152538	2.254545
3227.278181	-0.345455
3228.403661	-2.790210
3229.527500	-4.723776
3230.654134	-1.446154
3231.776169	2.087413
3232.899521	5.197902
3234.022711	8.078322
3235.145739	3.845455
3236.267127	-2.081818
3237.388354	0.620979
3238.507942	-0.175524
3239.627369	-8.768531
3240.745159	-13.344755
3241.865740	-11.034965
3242.983208	-15.686014
3244.100515	-9.472028
3245.217661	-6.478322
3246.333172	-5.498601
3247.449998	-7.651748
3248.563713	-16.593706
3249.680219	-13.740559
3250.795089	-5.393706
3251.906851	-2.766434
3253.018454	-5.672727
3254.131372	-8.667133
3255.244130	-8.215385
3256.353782	-10.955245
3257.464749	-9.911888
3258.575557	-19.119580
3259.684733	-15.500699
3260.792278	-13.123776
3261.901138	-15.090909
3263.009839	-4.951748
3264.115438	-4.686713
3265.222352	2.132867
3266.327636	-10.259441
3267.434234	-16.048252
3268.537732	-15.274126
3269.642544	-16.200699
3270.747199	-16.461538
3271.848756	-18.927273
3272.950156	-5.926573
3274.052870	4.287413
3275.155427	9.713986
3276.254889	19.620979
3277.357133	15.248252
3278.456283	14.832168
3279.553807	2.640559
3280.651176	1.596503
3281.751328	-3.608392
3282.848386	-5.969231
3283.945290	-4.846154
3285.042038	-4.121678
3286.134227	-1.740559
3287.230666	3.379021
3288.325482	2.392308
3289.420143	4.712587
3290.513183	-0.135664
3291.606069	-3.397203
3292.697334	-5.611189
3293.789912	-8.223077
3294.880870	-11.565734
3295.970208	-13.013287
3297.059393	-8.944056
3298.149890	-8.295105
3299.237303	-4.493007
3300.324564	0.335664
3301.413137	-1.429371
3302.501557	-2.579021
3303.585430	-4.479720
3304.673545	-5.207692
3305.758579	-5.613986
3306.841997	-7.270629
3307.926727	-2.413287
3309.009841	-6.634266
3310.094267	-7.618881
3311.175615	-5.101399
3312.258275	0.140559
3313.339321	1.908392
3314.420216	-0.511888
3315.499498	-4.071329
3316.578629	-6.835664
3317.659072	-2.163636
3318.736440	-1.067832
3319.815120	-2.103497
3320.892188	4.295804
3321.969106	-1.660140
3323.044414	-4.797203
3324.119572	1.839860
3325.196041	5.874126
3326.269439	4.132867
3327.342689	6.913287
3328.417250	4.893706
3329.490201	8.833566
3330.561545	15.195804
3331.634199	12.525874
3332.703786	9.439161
3333.774684	11.440559
3334.843975	0.325175
3335.914577	-0.909091
3336.983572	-3.073427
3338.050961	-3.453846
3339.116745	-7.569231
3340.186755	-2.155245
3341.253702	-3.500000
3342.317587	-5.382517
3343.384240	-8.679720
3344.449289	-15.245455
3345.512734	-14.102098
3346.576032	-14.980420
3347.639185	-20.769930
3348.702191	-14.314685
3349.765050	-13.690210
3350.826308	-11.206294
3351.884509	-9.765734
3352.946931	-13.232168
3354.006296	-10.227273
3355.065517	-14.037762
3356.126046	-10.224476
3357.182066	-7.257343
3358.240851	3.085315
3359.295128	8.317483
3360.352169	12.567832
3361.407611	18.309091
3362.464362	16.697203
3363.519516	10.852448
3364.573072	6.134965
3365.625031	-3.389510
3366.679752	-2.137762
3367.731425	-12.632168
3368.782953	-13.820979
3369.835791	-10.532867
3370.885581	-9.048252
3371.936680	4.840559
3372.984732	6.025175
3374.035545	9.921678
3375.083312	11.956643
3376.130937	13.120979
3377.178420	7.768531
3378.224309	6.281818
3379.271508	3.517483
3380.315663	-2.421678
3381.362577	-7.403497
3382.407899	-11.883217
3383.450181	-17.558741
3384.492321	-13.443357
3385.535770	-19.416783
3386.579077	-15.199301
3387.620794	-12.116084
3388.662370	-11.661538
3389.703806	-9.241259
3390.743653	3.192308
3391.781911	6.146853
3392.821477	6.599301
3393.860903	4.191608
3394.898741	-0.548252
3395.934992	-2.197902
3396.971103	-7.925175
3398.008522	-6.589510
3399.042908	-8.046853
3400.078602	-2.825175
3401.114156	6.217483
3402.146678	11.468531
3403.181954	17.022378
3404.214199	14.016084
3405.246306	12.316783
3406.276829	7.769930
3407.308660	0.814685
3408.340352	-0.048951
3409.369016	-10.255944
3410.397542	-8.140559
3411.427376	-9.295105
3412.457072	-9.136364
3413.483741	-8.541958
3414.511718	-14.178322
3415.536670	-14.820979
3416.564372	-15.344056
3417.589051	-11.117483
3418.615036	-7.151748
3419.639442	-4.744755
3420.663710	4.254545
3421.686400	5.920280
3422.708955	13.527273
3423.732814	10.987413
3424.753654	6.587413
3425.774359	2.764835
3426.796369	-0.964361
3427.815361	-4.050350
3428.834218	-5.943307
3429.854381	-6.093407
3430.871526	-3.950824
