-118.385087	-0.630220
-115.715486	-4.919780
-113.048821	-5.259940
-110.382909	-2.598601
-107.719928	2.116334
-105.055517	7.936963
-102.394037	13.915385
-99.731128	18.587413
-97.073326	18.560140
-94.414093	20.200699
-91.755609	16.462937
-89.100050	11.759441
-86.443062	7.553147
-83.791171	2.411888
-81.137851	-0.600000
-78.487451	-0.758042
-75.835621	-2.667133
-73.188882	-0.794406
-70.540713	0.534965
-67.893288	1.646853
-65.248776	3.801399
-62.602835	5.961538
-59.961977	7.113287
-57.319688	11.423077
-54.680309	12.337063
-52.039501	13.725874
-49.399432	14.262937
-46.764437	14.160140
-44.128012	15.361538
-41.494491	18.188112
-38.859540	15.400000
-36.229656	14.081818
-33.596178	12.528671
-30.967763	12.969231
-28.340082	11.411189
-25.710973	4.797203
-23.086920	-58.634965
-20.459278	-288.956643
-17.836689	-705.034266
-15.214831	-408.255245
-12.593704	1082.358741
-9.973308	3185.535664
-7.355799	4850.204196
-4.736862	5970.571329
-2.120811	6535.500000
0.494512	6547.790210
3.109108	6010.754545
5.720822	4937.313986
8.333963	3355.513986
10.942071	1431.110490
13.553761	-313.602098
16.160420	-915.580420
18.768507	-525.144755
21.375870	-35.929371
23.978208	11.925175
26.584124	14.737762
29.185019	14.360140
31.787341	12.262238
34.384645	13.200000
36.985525	12.926573
39.581391	7.351748
42.178684	6.012587
44.775258	1.190909
47.366823	-2.211189
49.959816	0.727972
52.549948	1.681818
55.141508	4.340559
57.730208	8.120979
60.320336	6.760839
62.905464	4.611888
65.492020	2.546154
68.077861	1.731469
70.660849	-3.100699
73.245264	-2.095105
75.822549	-1.146154
78.403401	-0.722378
80.981404	6.046853
83.558697	8.325175
86.137416	10.358042
88.711154	11.555944
91.286318	11.189510
93.858639	13.795105
96.430253	14.138462
98.999026	16.336364
101.569226	14.728671
104.136587	17.632168
106.705375	14.990909
109.271325	11.739161
111.834441	11.950350
114.401114	14.782517
116.958564	15.869231
119.521700	24.456643
122.079877	39.405594
124.641607	67.995105
127.198382	115.565734
129.756582	189.008392
132.309830	275.171329
134.862379	378.020979
137.418480	488.234266
139.969632	607.381119
142.520086	724.449650
145.069844	826.723776
147.616782	900.478322
150.163024	956.026573
152.710693	979.751748
155.257665	989.154545
157.799701	991.311189
160.341044	988.511189
162.881695	974.615385
165.423770	964.815385
167.963035	958.287413
170.499490	955.575524
173.035255	957.303497
175.572445	957.923776
178.108943	953.125175
180.642636	951.056643
183.173526	947.239161
185.703727	945.286014
188.235353	943.840559
190.764179	943.240559
193.290205	940.255245
195.815545	940.547552
198.342310	934.979720
200.866279	930.410490
203.389562	930.402098
205.912161	926.738462
208.431967	922.055944
210.951090	923.008392
213.469530	924.951748
215.989394	928.125175
218.502257	928.111189
221.018651	931.609790
223.534364	932.938462
226.045186	938.283916
228.557433	937.012587
231.066897	942.920979
233.575683	949.983217
236.083791	955.594406
238.593323	961.595105
241.097974	967.883217
243.601949	971.414685
246.107348	975.413287
248.607872	974.751049
251.111919	976.373427
253.608996	977.599301
256.109595	984.571329
258.607423	987.282517
261.104578	996.093706
263.601060	1000.237063
266.092680	1006.869930
268.587818	1010.820280
271.080191	1016.836364
273.571893	1016.463636
276.060832	1015.990210
278.551194	1016.293007
281.038795	1020.051748
283.523636	1020.553846
286.011991	1028.483916
288.493408	1029.794406
290.978338	1036.481818
293.458422	1037.481119
295.942019	1044.495105
298.420774	1047.235664
300.900951	1051.340559
303.378377	1047.024476
305.855139	1061.345455
308.331237	1102.423776
310.804587	1169.258741
313.277276	1246.387413
315.749303	1314.365035
318.220668	1364.755245
320.689290	1397.494406
323.157252	1400.609091
325.626637	1383.551049
328.091199	1340.382517
330.559264	1281.099301
333.022510	1214.102797
335.485099	1167.233566
337.947030	1146.137063
340.408305	1146.204196
342.866846	1155.804196
345.326809	1159.953846
347.784040	1163.068531
350.240616	1164.933566
352.696537	1161.455944
355.149730	1161.103497
357.604345	1160.513986
360.054158	1156.086713
362.507467	1148.081818
364.955977	1139.439161
367.403837	1131.337063
369.853118	1128.245455
372.297606	1128.441958
374.743516	1131.386014
377.188777	1127.058042
379.631319	1129.284615
382.073213	1126.482517
384.514459	1131.738462
386.952990	1136.098601
389.392943	1135.558042
391.830182	1133.444755
394.264709	1129.562238
396.702724	1125.496503
399.135962	1128.919580
401.570622	1131.966434
404.000509	1135.360839
406.433881	1134.145455
408.862482	1137.455245
411.290443	1133.457343
413.719824	1138.493007
416.144441	1140.025874
418.570478	1143.103497
420.995876	1146.467133
423.420633	1147.031469
425.840631	1149.293706
428.262051	1155.711189
430.680774	1160.177622
433.100918	1161.699301
435.518367	1160.760839
437.937236	1159.946853
440.353412	1159.678322
442.764841	1161.709790
445.179746	1158.194406
447.591961	1159.338462
450.003542	1153.225175
452.414489	1145.844755
454.822750	1135.672727
457.230379	1128.277622
459.637375	1118.690210
462.043739	1105.685315
464.447422	1093.001399
466.850474	1086.823776
469.252896	1083.469930
471.654688	1083.634266
474.053802	1085.101399
476.454336	1095.607692
478.854241	1094.206993
481.249423	1098.327273
483.648072	1102.227273
486.042001	1099.827273
488.435304	1088.385315
490.827981	1070.104196
493.220033	1044.341259
495.613504	1013.851748
498.002262	973.088112
500.388354	934.950350
502.775866	891.713986
505.162754	852.494406
507.546979	807.974825
509.932623	778.216783
512.315604	749.112587
514.695925	724.027273
517.077665	704.397902
519.456746	688.444755
521.837246	675.121678
524.215088	662.744056
526.590275	653.785315
528.964844	648.383217
531.340832	640.995105
533.714166	636.502098
536.088919	626.219580
538.458985	621.998601
540.828436	613.621678
543.199306	608.631469
545.565494	599.824476
547.933101	591.023776
550.298062	585.701399
552.662410	579.601399
555.026146	576.962937
557.391299	575.381818
559.751780	570.355944
562.113678	567.076923
564.472937	560.075524
566.829557	558.351049
569.189623	556.751748
571.542997	551.899301
573.899816	547.719580
576.254000	545.598601
578.607575	543.828671
580.960542	538.316783
583.310878	533.916783
585.662630	534.103497
588.007706	531.846154
590.358246	533.067133
592.702113	532.760140
595.051441	533.920280
597.396120	535.383916
599.738175	534.520280
602.081647	537.247552
604.422496	534.601399
606.762742	530.242657
609.100368	522.882517
611.441429	516.038462
613.777853	512.464336
616.115693	511.179021
618.450915	507.201399
620.783522	498.972727
623.117546	493.259441
625.448955	485.172727
627.779766	480.949650
630.109979	475.066434
632.439595	469.927972
634.764587	465.769930
637.095021	460.230769
639.420833	458.098601
641.744039	462.316084
644.068661	462.700000
646.390677	458.757343
648.712099	453.753147
651.030918	454.314685
653.351153	448.005594
655.670795	444.675524
657.987836	440.979720
660.304286	442.653846
662.618137	439.126573
664.933403	439.180420
667.246073	438.324476
669.560158	441.088112
671.869644	436.154545
674.180544	435.468531
676.488852	434.574126
678.796572	430.868531
681.105707	421.089510
683.410249	414.624476
685.714205	410.768531
688.017574	409.264336
690.322358	403.307692
692.622556	399.475524
694.924169	395.495804
697.225196	395.048252
699.521642	394.451049
701.819502	398.153846
704.116780	397.207692
706.413473	392.594406
708.705591	388.895804
711.001120	390.057343
713.292076	390.501399
715.584446	394.706294
717.874240	394.625874
720.163455	395.352448
722.452089	396.637063
724.738152	397.021678
727.025628	401.179720
729.310534	403.979021
731.594861	401.720280
733.876621	401.108392
736.159794	405.329371
738.442390	411.332168
740.720430	413.719580
742.999884	419.486713
745.278763	419.158741
747.557066	419.626573
749.830820	415.410490
752.105988	415.180420
754.380582	416.558042
756.652617	415.446154
758.926065	411.604895
761.196955	415.208392
763.465288	421.962937
765.735036	427.271329
768.002228	429.227273
770.268850	437.802797
772.534903	441.764336
774.798404	446.750350
777.063317	448.726573
779.327662	453.934266
781.587476	453.316783
783.848704	453.427273
786.109364	449.439860
788.367477	445.443357
790.623046	445.883916
792.882006	442.695105
795.134467	435.714685
797.392295	437.118881
799.645604	434.341958
801.896372	435.327273
804.148553	433.986014
806.398196	432.458741
808.649250	431.003497
810.895793	428.255245
813.143749	420.894406
815.389169	416.341259
817.636002	415.389510
819.882272	404.097902
822.124039	397.547552
824.369188	394.392308
826.607865	392.909790
828.849925	391.725874
831.087486	388.667133
833.326458	391.204895
835.562904	395.498601
837.800762	393.510490
840.036094	392.379720
842.268902	390.352448
844.503122	386.413986
846.734820	382.371329
848.965963	379.030070
851.196551	374.319580
853.426585	371.034965
855.656064	365.786014
857.881063	360.583916
860.109435	364.516084
862.333329	363.706993
864.558633	361.402797
866.779462	362.379021
869.003663	366.496503
871.223391	369.982517
873.444530	374.578322
875.665118	376.755944
877.883197	383.513287
880.102685	388.961538
882.317707	386.727972
884.532181	388.210490
886.746108	389.667832
888.959487	381.569231
891.172320	380.602797
893.384605	382.650350
895.594389	385.160140
897.803627	386.009091
900.012319	387.019580
902.218513	390.515385
904.426116	392.868531
906.631222	393.206993
908.835784	390.059441
911.037851	389.164336
913.241327	385.448951
915.442309	381.247552
917.642749	379.524476
919.844598	378.474825
922.040056	379.874126
924.238872	380.395105
926.433251	376.909091
928.630987	377.036364
930.824287	372.204895
933.018995	371.884615
935.211218	377.693007
937.402903	376.098601
939.594050	381.966434
941.782714	384.483217
943.970841	393.805594
946.156488	397.937762
948.345487	403.726573
950.530063	410.937063
952.714104	413.022378
954.901495	418.765035
957.080583	421.985315
959.263020	435.129371
961.444924	450.034266
963.624354	458.590909
965.801311	474.064336
967.979676	481.788112
970.159447	498.604895
972.332870	497.100000
974.509639	502.413986
976.682002	507.710490
978.855771	508.323776
981.025138	512.498601
983.197848	519.006993
985.368092	528.402797
987.537808	532.104895
989.706995	532.338462
991.871785	545.555245
994.039917	548.597902
996.203653	557.172727
998.368797	553.032168
1000.531481	558.612587
1002.693640	560.466434
1004.853341	566.918881
1007.012519	573.087413
1009.173103	580.955245
1011.331232	585.352448
1013.488837	591.661538
1015.645919	603.065734
1017.802478	618.388112
1019.954657	619.309790
1022.108243	627.032168
1024.261306	632.767133
1026.411922	639.720979
1028.563943	644.221678
1030.711591	642.021678
1032.862571	650.681818
1035.009181	652.279720
1037.155271	650.579021
1039.300843	659.315385
1041.447819	666.723776
1043.588508	670.295105
1045.732525	674.318881
1047.874103	690.885315
1050.015163	698.760839
1052.157628	695.196503
1054.293814	705.846853
1056.433326	700.867133
1058.568482	693.534266
1060.706963	687.365035
1062.841091	689.987413
1064.974705	687.240559
1067.109723	675.599301
1069.240392	670.713986
1071.372467	675.504895
1073.502111	673.322378
1075.631244	659.416084
1077.759866	658.851049
1079.887976	657.304895
1082.013660	637.022378
1084.138834	621.002098
1086.265411	626.076224
1088.387652	618.087413
1090.511297	607.302797
1092.630607	585.925175
1094.755146	579.401399
1096.873441	577.970629
1098.993139	570.386014
1101.110419	562.178322
1103.227193	554.947552
1105.343460	537.325175
1107.457312	528.061538
1109.572567	524.313287
1111.683500	530.253846
1113.797744	524.934965
1115.907669	529.083916
1118.018996	519.643357
1120.129820	521.127972
1122.236327	516.651748
1124.346143	513.230769
1126.451645	501.459441
1128.558551	488.107692
1130.659240	485.997203
1132.765142	480.380420
1134.866735	475.504196
1136.969731	482.213287
1139.072226	478.598601
1141.168515	476.071329
1143.270010	481.853846
1145.367203	480.479720
1147.463897	476.358741
1149.560094	471.342657
1151.655792	474.021678
1153.750993	473.693706
1155.843797	474.311189
1157.938003	469.817483
1160.026018	467.920979
1162.119231	471.367133
1164.206256	468.455245
1166.296581	474.539161
1168.382617	484.072727
1170.471951	482.620280
1172.555104	482.050350
1174.639660	477.670629
1176.725616	475.490909
1178.807291	470.758042
1180.890368	462.939161
1182.971059	450.844755
1185.051259	445.433566
1187.130967	442.434965
1189.210183	436.172028
1191.287018	444.690210
1193.361472	442.421678
1195.439218	446.847552
1197.512693	446.862238
1199.587570	455.205594
1201.658179	459.053846
1203.730189	462.842657
1205.799823	455.369930
1207.870858	447.056643
1209.941405	448.244755
1212.007691	446.002098
1214.075378	433.976923
1216.140693	431.403497
1218.207408	422.494406
1220.269867	421.314685
1222.335612	412.406294
1224.397102	418.785315
1226.459992	416.022378
1228.520515	414.953147
1230.580555	413.195804
1232.640111	416.902098
1234.697303	421.125874
1236.754012	421.268531
1238.808359	419.207692
1240.865986	423.739161
1242.921251	423.911888
1244.972275	421.974825
1247.024699	423.346154
1249.076644	427.596503
1251.126230	427.172727
1253.175337	431.828671
1255.223965	434.246853
1257.272115	437.195105
1259.319787	438.549650
1261.363228	439.812587
1263.409944	443.598601
1265.454308	445.847552
1267.498194	446.646154
1269.539730	454.267832
1271.578916	456.048951
1273.621374	453.487413
1275.659611	451.778322
1277.699245	453.979720
1279.738405	452.799301
1281.773347	454.662238
1283.809687	458.425874
1285.843682	464.879720
1287.879076	472.048951
1289.910256	485.279720
1291.942835	496.102098
1293.974941	507.309091
1296.004707	511.792308
1298.035871	521.590909
1300.062827	534.223776
1302.091181	545.076224
1304.115331	559.002098
1306.142746	576.823776
1308.165958	595.523776
1310.190568	613.133566
1312.212843	637.130070
1314.236516	660.724476
1316.257856	683.388811
1318.278729	702.615385
1320.299134	724.209790
1322.315345	747.200000
1324.332955	771.696503
1326.348236	795.300000
1328.366776	821.051748
1330.381126	844.327273
1332.393151	867.332168
1334.408434	880.169231
1336.419531	889.709091
1338.432024	892.200699
1340.440335	891.424476
1342.451902	876.265734
1344.457430	857.300699
1346.466212	833.067832
1348.470818	808.781818
1350.478677	784.579720
1352.486073	757.100699
1354.487439	731.574126
1356.490202	712.191608
1358.492505	685.373427
1360.494347	657.294406
1362.495731	636.883217
1364.494800	615.542657
1366.493411	593.283217
1368.491564	574.351049
1370.489259	558.766434
1372.482790	543.166434
1374.477718	536.723776
1376.472189	520.433566
1378.466203	508.020280
1380.457910	493.699301
1382.449161	479.722378
1384.438107	470.343357
1386.428448	460.334965
1388.418334	453.779720
1390.405917	452.025874
1392.393046	447.191608
1394.377873	450.739860
1396.364095	453.969930
1398.348016	460.861538
1400.331485	455.171329
1402.314502	450.722378
1404.295221	441.022378
1406.277334	438.155245
1408.257150	434.474126
1410.236516	426.350350
1412.211743	420.371329
1414.190208	424.010490
1416.166380	418.491608
1418.142102	427.530070
1420.117375	431.716084
1422.090357	431.899301
1424.062892	429.151748
1426.034978	427.662937
1428.006616	421.530070
1429.974127	421.644755
1431.946711	416.834965
1433.911489	410.383916
1435.881340	407.350350
1437.847066	412.200000
1439.814186	408.827972
1441.779022	414.782517
1443.739738	417.118182
1445.705522	410.711189
1447.665351	409.358042
1449.626573	406.714685
1451.589188	399.165734
1453.547688	400.465734
1455.505746	403.196503
1457.463361	405.278322
1459.420535	408.381818
1461.375433	408.201399
1463.331723	412.670629
1465.285739	414.986014
1467.239315	414.094406
1469.190618	406.044056
1471.143313	407.510490
1473.093737	402.444755
1475.043722	395.288112
1476.993267	397.865734
1478.940544	400.932168
1480.885554	408.456643
1482.831956	409.631469
1484.777920	414.761538
1486.723446	416.532168
1488.666708	412.577622
1490.609533	411.172727
1492.550095	407.483916
1494.492048	405.041958
1496.431740	399.912587
1498.370996	401.940559
1500.309818	401.532867
1502.246380	404.416783
1504.184332	414.323077
1506.120027	410.863636
1508.055288	414.484615
1509.988292	413.958741
1511.920864	414.961538
1513.853004	416.809790
1515.784712	417.647552
1517.714167	421.332168
1519.645011	431.458042
1521.575425	442.905594
1523.501766	443.793007
1525.429497	452.922378
1527.354978	454.070629
1529.280030	452.255944
1531.204653	458.531469
1533.128847	467.479720
1535.050794	469.172028
1536.974130	477.458741
1538.895221	491.105594
1540.814067	504.769930
1542.734303	523.206294
1544.652295	535.863636
1546.569861	550.528671
1548.485185	568.284615
1550.401899	585.060140
1552.314558	600.849650
1554.230421	618.288811
1556.144045	637.839860
1558.055430	648.921678
1559.968204	667.327273
1561.876929	684.471329
1563.787044	696.277622
1565.696735	713.461538
1567.606002	721.271329
1569.513036	729.571329
1571.417837	731.981818
1573.324027	733.458741
1575.227985	726.939161
1577.131523	722.375524
1579.034639	712.218182
1580.935527	699.953846
1582.837803	687.811888
1584.737850	672.760839
1586.639286	657.612587
1588.536687	642.745455
1590.433671	623.979021
1592.330236	610.678322
1594.228188	590.989510
1596.120306	578.909790
1598.015618	568.597902
1599.910511	561.572028
1601.803183	557.802098
1603.695439	561.269930
1605.585475	560.968531
1607.475095	557.297203
1609.364300	543.858741
1611.253089	531.722378
1613.139662	527.234965
1615.027621	519.523776
1616.911565	501.065734
1618.796895	486.078322
1620.681812	466.527273
1622.564515	449.837762
1624.448604	440.211189
1626.328683	433.733566
1628.210148	421.716084
1630.089403	409.948252
1631.970044	395.744056
1633.844881	393.988112
1635.724700	393.953147
1637.600513	395.655944
1639.475917	391.316783
1641.352706	390.264336
1643.223698	386.032168
1645.097872	389.625175
1646.968048	387.248252
1648.841404	385.547552
1650.712557	383.132867
1652.581508	381.617483
1654.451845	382.920979
1656.318188	383.195804
1658.185918	373.761538
1660.051448	373.231469
1661.918363	366.793706
1663.781290	369.448252
1665.645602	370.499301
1667.507719	369.165035
1669.369430	356.146853
1671.232526	355.976923
1673.093428	346.663636
1674.952136	346.706294
1676.810441	344.155944
1678.670131	337.341958
1680.524054	340.640559
1682.381149	344.851748
1684.237842	346.377622
1686.090559	356.114685
1687.946447	355.880420
1689.798361	354.234965
1691.649873	345.823776
1693.500986	352.002098
1695.351697	345.013986
1697.202008	345.701399
1699.050135	345.588811
1700.899645	344.052448
1702.743407	347.274825
1704.592119	344.818881
1706.435084	334.258042
1708.281215	332.728671
1710.123385	324.849650
1711.968719	324.342657
1713.808313	319.302797
1715.649291	333.343357
1717.491652	339.448951
1719.330057	342.923776
1721.169845	349.401399
1723.007458	349.130070
1724.844675	339.604895
1726.679719	341.367133
1728.516146	333.062238
1730.350401	333.858042
1732.184262	326.188811
1734.017728	324.035664
1735.847248	326.005594
1737.679927	328.560839
1739.508662	322.828671
1741.340555	325.202797
1743.168505	323.665734
1744.996063	333.953846
1746.823230	323.800000
1748.650004	335.374825
1750.476388	332.514685
1752.298835	319.434965
1754.124436	312.358741
1755.946103	314.189510
1757.769152	326.006993
1759.590040	321.251049
1761.410538	323.891608
1763.232418	335.851049
1765.048598	341.180420
1766.867930	353.324476
1768.683335	340.806294
1770.501891	345.038462
1772.316521	326.788112
1774.130764	303.150350
1775.944621	294.105594
1777.758091	295.113986
1779.569407	300.601399
1781.382105	298.656643
1783.194416	307.672727
1785.002810	314.674126
1786.812585	318.577622
1788.618444	318.870629
1790.427450	311.795804
1792.232542	317.596503
1794.039014	314.639860
1795.845103	304.713287
1797.647282	305.544056
1799.452604	311.673427
1801.254018	311.085315
1803.056812	321.953846
1804.855701	332.395105
1806.655969	334.246154
1808.455857	334.959441
1810.253602	340.061538
1812.050967	341.469231
1813.847951	349.023077
1815.644555	346.899301
1817.439020	339.245455
1819.234865	334.918182
1821.025054	329.098601
1822.820140	326.430070
1824.609573	325.771329
1826.402144	322.683217
1828.192579	319.888112
1829.980879	323.275524
1831.772315	327.026573
1833.558105	318.861538
1835.345275	325.988112
1837.130313	318.202098
1838.918485	323.951748
1840.702771	325.097902
1842.484928	328.760140
1844.268463	335.032168
1846.049871	330.614685
1847.832656	329.416783
1849.611562	327.657343
1851.391846	324.195105
1853.170005	316.086713
1854.949541	302.962238
1856.726953	307.701399
1858.502241	302.946853
1860.278908	314.220979
1862.053452	318.320280
1863.829373	316.458042
1865.599675	324.374825
1867.373104	324.261538
1869.144413	324.287413
1870.915351	325.956643
1872.687666	330.902098
1874.454369	335.655944
1876.224196	335.034266
1877.990160	341.117483
1879.759248	347.151748
1881.524474	349.644056
1883.289332	340.560140
1885.055566	335.883916
1886.817942	333.420280
1888.579951	321.669231
1890.341593	314.888112
1892.102867	317.297203
1893.863775	319.595804
1895.624315	322.551748
1897.382746	326.124476
1899.140812	338.446853
1900.896770	348.320979
1902.654104	347.422378
1904.411072	343.767832
1906.165935	348.088811
1907.918692	341.425175
1909.671086	335.546154
1911.424856	333.429371
1913.176522	325.569231
1914.926085	320.683217
1916.677025	325.597902
1918.427601	327.041259
1920.174339	336.748951
1921.922452	334.925175
1923.668466	335.613986
1925.415856	333.745455
1927.161147	332.467832
1928.904341	329.372028
1930.648911	330.983916
1932.391384	329.032867
1934.133497	323.253147
1935.875251	328.970629
1937.616644	334.062937
1939.355944	327.936364
1941.094885	331.788112
1942.833467	329.344056
1944.569957	333.983916
1946.306090	329.817483
1948.043597	326.928671
1949.777283	324.588811
1951.512343	333.782517
1953.245314	336.876224
1954.977929	342.311888
1956.710187	344.366434
1958.442089	347.957343
1960.171905	344.794406
1961.899637	346.432168
1963.628742	346.990909
1965.357493	344.838462
1967.084160	335.027972
1968.810473	337.079720
1970.538159	337.429371
1972.260309	339.312587
1973.985561	336.762238
1975.707005	335.088112
1977.431549	334.250350
1979.154014	337.151748
1980.872675	334.691608
1982.594435	331.827972
1984.312393	330.273427
1986.031725	326.369231
1987.747256	324.590210
1989.467609	332.240559
1991.184162	329.769231
1992.896920	327.794406
1994.612773	327.958042
1996.326554	329.881119
1998.039984	337.025175
1999.751344	340.166434
2001.464077	343.401399
2003.173018	344.201399
2004.885053	348.397203
2006.591578	352.302098
2008.301196	351.171329
2010.008746	352.513287
2011.715949	347.544056
2013.421086	346.825874
2015.125876	346.080420
2016.832038	350.629371
2018.534418	349.628671
2020.238170	350.722378
2021.939859	350.152448
2023.641202	346.594406
2025.342200	349.353846
2027.041138	348.661538
2028.741447	351.952448
2030.437980	348.586713
2032.135885	348.397203
2033.831732	349.265035
2035.530664	351.116084
2037.224110	352.238462
2038.918927	350.093706
2040.613401	350.635664
2042.304107	344.731469
2043.997897	342.704196
2045.687920	340.611888
2047.379314	345.034266
2049.068655	347.036364
2050.759366	336.856643
2052.446315	342.968531
2054.132923	341.045455
2055.820902	341.213986
2057.505121	341.695804
2059.190710	341.258741
2060.875960	341.167832
2062.559162	342.995105
2064.243734	347.406294
2065.922842	348.586014
2067.606736	357.530070
2069.285170	355.310490
2070.966681	348.057343
2072.644440	349.133566
2074.321863	343.193007
2076.000655	336.660839
2077.677404	332.090909
2079.352112	325.304196
2081.028189	325.430769
2082.702226	328.648951
2084.375927	333.344056
2086.049293	339.674825
2087.720621	348.754545
2089.391614	346.072727
2091.062273	343.218182
2092.732598	347.672028
2094.402588	349.386713
2096.070543	346.751748
2097.738165	342.017483
2099.403753	338.804196
2101.070709	340.765035
2102.735632	337.227972
2104.400222	330.341259
2106.062781	328.932168
2107.726709	327.130769
2109.388605	319.216084
2111.050170	323.614685
2112.711405	330.859441
2114.370610	334.433566
2116.029486	339.065035
2117.688031	338.822378
2119.346247	340.083916
2121.000739	340.195804
2122.658297	334.272028
2124.315524	330.885315
2125.969031	328.384615
2127.623905	327.895105
2129.275060	327.939860
2130.929278	332.928671
2132.579778	335.557343
2134.231646	338.758741
2135.878105	343.200699
2137.529318	341.135664
2139.176818	340.890210
2140.825686	342.141958
2142.472534	341.732168
2144.119056	345.556643
2145.765254	343.957343
2147.407742	350.944755
2149.053289	352.180420
2150.695129	350.707692
2152.340026	345.342657
2153.981218	342.538462
2155.622086	336.906294
2157.262631	336.510490
2158.901163	337.451049
2160.541061	339.879021
2162.177259	337.895105
2163.814823	343.528671
2165.452065	346.854545
2167.087297	354.326573
2168.722207	355.648252
2170.356796	354.660140
2171.991064	351.308392
2173.621638	352.191608
2175.255263	353.184615
2176.885197	356.161538
2178.516496	351.705594
2180.145791	353.531469
2181.774765	343.545455
2183.403421	342.144755
2185.031757	340.009790
2186.658090	341.608392
2188.284105	341.851049
2189.908119	339.140559
2191.533498	342.707692
2193.156876	350.035664
2194.781619	353.239860
2196.402680	356.148252
2198.023426	354.686713
2199.645535	359.188811
2201.265647	353.618881
2202.883763	354.876923
2204.501563	348.842657
2206.119047	342.616084
2207.736216	335.297902
2209.353070	327.758042
2210.969609	325.283916
2212.584154	322.351748
2214.196707	320.567133
2215.810625	325.576923
2217.422550	332.077622
2219.035840	340.165734
2220.647138	341.941259
2222.256448	344.660839
2223.867120	338.348252
2225.475804	333.008392
2227.084176	335.429371
2228.690560	332.446853
2230.298308	324.674126
2231.904069	320.316783
2233.509519	322.294406
2235.112985	325.988811
2236.717813	328.413287
2238.320657	330.981119
2239.921518	327.418881
2241.523742	331.420280
2243.123983	330.793007
2244.725588	336.348252
2246.323539	349.372727
2247.922853	349.230769
2249.520187	348.859441
2251.117213	350.984615
2252.715600	352.457343
2254.310339	347.831469
2255.903102	342.790909
2257.497226	336.295804
2259.092712	324.256643
2260.684554	323.568531
2262.276089	318.934965
2263.868985	323.871329
2265.456572	330.847552
2267.048856	330.152448
2268.635832	333.502098
2270.225837	337.701399
2271.810537	340.054545
2273.399931	338.985315
2274.984022	338.909790
2276.569475	339.006294
2278.152959	339.423077
2279.739468	340.104895
2281.322344	338.153846
2282.904916	339.669930
2284.487186	338.839860
2286.065825	339.588112
2287.647488	345.806993
2289.225524	346.606993
2290.806582	344.818881
2292.384013	344.477622
2293.959481	343.142657
2295.537971	345.952448
2297.112836	338.148252
2298.687401	333.133566
2300.261666	328.439860
2301.835630	326.569930
2303.409294	322.991608
2304.982657	332.937063
2306.552402	334.047552
2308.121848	330.720280
2309.694313	331.689510
2311.261503	331.489510
2312.831710	325.166434
2314.398303	327.737063
2315.966256	326.010490
2317.532254	332.451049
2319.097954	341.506993
2320.663356	352.662238
2322.226805	364.272028
2323.791613	387.080420
2325.352812	396.616084
2326.917026	403.336364
2328.475979	405.634266
2330.037945	397.539161
2331.597961	383.665734
2333.157681	371.473427
2334.715452	363.039161
2336.272929	353.891608
2337.830110	349.897902
2339.385345	333.254545
2340.940285	326.139860
2342.494932	325.386713
2344.049285	331.844755
2345.603344	333.326573
2347.157110	332.351049
2348.708931	335.169930
2350.258809	330.957343
2351.811695	326.314685
2353.359339	337.732168
2354.909990	341.059441
2356.457051	335.106294
2358.005469	333.459441
2359.553595	338.240559
2361.098134	344.988112
2362.644030	354.176224
2364.187987	353.985315
2365.733302	352.258042
2367.275032	356.074825
2368.818120	343.348951
2370.359271	331.166434
2371.900133	332.011888
2373.440706	331.755944
2374.980990	320.530769
2376.520985	331.520280
2378.057401	327.420979
2379.596819	330.218182
2381.132660	334.118182
2382.669857	327.005594
2384.203480	328.173427
2385.740102	327.244056
2387.274793	326.839161
2388.807555	327.799301
2390.340031	343.416783
2391.870578	350.042657
2393.404123	351.276224
2394.932457	365.591608
2396.462147	364.486014
2397.991552	368.395804
2399.520672	368.483916
2401.049506	360.208392
2402.573136	357.265734
2404.101401	353.111888
2405.624463	354.058741
2407.152160	354.172727
2408.673016	347.486014
2410.198506	341.714685
2411.720436	336.747552
2413.243720	336.241958
2414.765084	337.074825
2416.284528	343.063636
2417.805327	343.848951
2419.324207	351.988112
2420.842805	354.162238
2422.359486	360.791608
2423.877522	365.997902
2425.395276	364.076923
2426.909478	347.065734
2428.423400	346.249650
2429.937043	342.089510
2431.452039	348.144056
2432.963487	370.591608
2434.476290	372.853147
2435.987180	367.386014
2437.497790	370.399301
2439.006489	360.995804
2440.518175	364.120280
2442.026317	354.767133
2443.534180	342.804895
2445.041766	327.254545
2446.545812	327.251748
2448.052842	333.953147
2449.557964	329.953147
2451.062809	339.355245
2452.565747	344.369930
2454.068408	345.775524
2455.570793	349.367133
2457.071273	350.370629
2458.573106	367.024476
2460.073035	359.981818
2461.572688	359.315385
2463.072066	355.960839
2464.569541	365.287413
2466.065114	370.109790
2467.563667	366.607692
2469.058691	376.037762
2470.555069	382.503497
2472.047920	370.437762
2473.542123	368.574126
2475.036053	360.507692
2476.526460	352.639161
2478.019844	337.878322
2479.511329	339.609790
2481.000918	331.377622
2482.490236	329.131469
2483.977657	329.232168
2485.468054	335.602098
2486.954932	332.443357
2488.443162	331.191608
2489.927876	331.874825
2491.412319	339.609091
2492.898114	345.045455
2494.382016	355.818182
2495.867270	362.898601
2497.347390	365.165035
2498.830482	357.246154
2500.311684	355.051748
2501.792617	349.967133
2503.271661	350.808392
2504.750437	346.431469
2506.228944	347.746853
2507.707182	343.791608
2509.185152	342.288811
2510.659618	347.225874
2512.137052	345.300000
2513.610983	338.902098
2515.086265	330.617483
2516.561279	331.141259
2518.032792	332.286713
2519.505656	328.991608
2520.976637	337.681818
2522.448967	335.951049
2523.916185	333.113287
2525.386369	331.783916
2526.854671	333.032168
2528.322709	336.739860
2529.790482	338.593007
2531.257990	345.969231
2532.725233	346.288112
2534.188985	349.079021
2535.654086	350.041259
2537.117310	349.880420
2538.581883	351.815385
2540.042967	349.416783
2541.505402	348.506993
2542.967573	355.379720
2544.426257	355.900699
2545.889514	360.333566
2547.347674	366.708392
2548.807183	370.610490
2550.261599	358.027273
2551.720585	353.520979
2553.177698	348.296503
2554.632941	350.060140
2556.087923	353.139161
2557.541035	347.201399
2558.995496	340.214685
2560.448088	339.388811
2561.900420	336.163636
2563.350884	343.454545
2564.804304	351.472028
2566.252642	357.207692
2567.703936	352.225175
2569.153363	356.902797
2570.599319	359.197203
2572.048229	365.074825
2573.493668	360.576923
2574.940456	354.044056
2576.385380	341.765734
2577.830047	332.450350
2579.276061	333.757343
2580.718608	346.540559
2582.162503	358.224476
2583.602933	362.258741
2585.044711	363.381818
2586.484629	361.611888
2587.925894	362.644056
2589.363697	367.878322
2590.804450	368.218182
2592.240140	369.649650
2593.678780	368.021678
2595.115563	365.711189
2596.550489	371.685315
2597.988364	373.041259
2599.421181	373.118182
2600.855345	362.195804
2602.287654	361.169231
2603.721310	358.788112
2605.153113	361.327972
2606.584663	368.308392
2608.015959	368.115385
2609.445404	368.218881
2610.874596	372.659441
2612.301937	369.194406
2613.730625	368.436364
2615.159060	364.906993
2616.584049	365.521678
2618.010383	358.979021
2619.434869	361.104895
2620.860701	365.379021
2622.283089	367.551049
2623.706823	369.100699
2625.128711	366.496503
2626.550348	367.032867
2627.970140	367.534266
2629.391278	371.243357
2630.812166	373.154545
2632.229616	385.669930
2633.650005	395.220979
2635.066957	392.620979
2636.483661	398.296503
2637.900116	406.472028
2639.316323	407.809091
2640.732281	407.006993
2642.146399	405.451049
2643.560270	401.102797
2644.972301	400.254545
2646.385677	398.451748
2647.795623	400.625874
2649.208505	411.797203
2650.617958	422.379021
2652.027165	417.377622
2653.434536	422.018881
2654.844841	424.490909
2656.253310	424.704196
2657.659944	422.181119
2659.066333	421.456643
2660.470888	418.932867
2661.876787	422.021678
2663.280853	420.004196
2664.684675	415.877622
2666.088252	420.582517
2667.489997	430.919580
2668.893086	421.477622
2670.292758	422.295105
2671.693773	422.335664
2673.091371	423.525175
2674.491900	422.352448
2675.889014	433.127972
2677.287471	439.690210
2678.684100	440.458042
2680.080488	437.481119
2681.476633	432.809091
2682.870952	432.824476
2684.266614	427.876923
2685.658866	414.832168
2687.052462	409.931469
2688.444233	410.011189
2689.837346	414.847552
2691.228636	423.918182
2692.618103	442.841259
2694.007331	445.023077
2695.396318	450.499301
2696.786648	448.082517
2698.171993	443.825175
2699.560263	432.723077
2700.946712	417.379021
2702.332922	404.258042
2703.718893	388.789510
2705.101466	380.104895
2706.485380	378.348252
2707.869057	380.300699
2709.252496	384.074126
2710.632539	381.300000
2712.013924	386.708392
2713.393493	377.808392
2714.774404	377.872028
2716.153500	373.480420
2717.530781	379.584615
2718.909404	383.825175
2720.286214	381.039860
2721.662788	380.802098
2723.039126	388.318881
2724.413652	388.582517
2725.789519	384.202797
2727.161999	374.720979
2728.537396	365.524476
2729.907831	359.681119
2731.279608	359.122378
2732.651151	357.025874
2734.020885	362.960839
2735.391959	362.018182
2736.761226	364.019580
2738.130259	363.693007
2739.497485	359.571329
2740.864479	354.958741
2742.231240	351.465734
2743.597768	353.496503
2744.962492	358.418881
2746.326983	366.749650
2747.691242	369.978322
2749.055270	371.231469
2750.419065	368.534965
2751.779487	363.093007
2753.142820	361.002098
2754.501210	350.751049
2755.862510	342.015385
2757.220439	343.418881
2758.581278	333.234965
2759.940316	331.653147
2761.295986	331.558741
2762.654565	332.048252
2764.009776	327.946154
2765.364758	333.446853
2766.717943	334.093706
2768.074035	337.354545
2769.426763	348.734266
2770.779262	350.947552
2772.131533	346.965035
2773.485143	344.841259
2774.835391	325.804895
2776.183846	323.121678
2777.535205	328.741259
2778.883205	326.934266
2780.232544	320.216783
2781.580090	328.145455
2782.927409	327.339161
2784.274502	327.066434
2785.619804	330.345455
2786.964880	323.193007
2788.309730	316.238462
2789.654354	315.229371
2790.995625	307.881818
2792.338235	317.417483
2793.680620	329.137063
2795.022779	330.324476
2796.361589	327.952448
2797.703299	330.338462
2799.041660	334.013986
2800.381359	330.027273
2801.719272	328.086713
2803.055401	324.548951
2804.391307	317.379720
2805.728549	328.241958
2807.064008	330.415385
2808.399244	338.445455
2809.732698	347.463636
2811.067488	341.634965
2812.398937	335.724476
2813.733282	332.417483
2815.062729	335.820280
2816.393513	327.044056
2817.724075	318.162937
2819.052858	315.239161
2820.382978	323.146853
2821.711318	334.402797
2823.039438	335.176923
2824.365781	336.241259
2825.693459	334.874126
2827.017805	319.416783
2828.343486	317.244056
2829.667393	318.757343
2830.991079	326.635664
2832.316101	325.080420
2833.637794	328.385315
2834.959267	334.054545
2836.280522	342.009790
2837.601558	332.620979
2838.920822	336.227972
2840.241421	323.721678
2841.560248	315.293706
2842.878857	311.283916
2844.195696	309.928671
2845.512317	304.948951
2846.828720	309.286014
2848.143355	308.621678
2849.459324	317.300699
2850.771973	321.077622
2852.085958	324.844755
2853.399726	327.174126
2854.713277	330.470629
2856.025061	324.109790
2857.335080	327.992308
2858.646433	325.859441
2859.954470	316.623776
2861.263843	307.798601
2862.573000	310.648252
2863.881942	315.175524
2865.189121	327.132867
2866.494536	333.634266
2867.801286	339.600699
2869.106273	341.295105
2870.411047	335.283217
2871.714059	330.190210
2873.019953	329.477622
2874.320992	331.639860
2875.623364	331.745455
2876.923977	329.164336
2878.225924	327.393007
2879.527658	326.310490
2880.826088	325.330070
2882.125851	325.909790
2883.423857	329.730769
2884.721651	331.319580
2886.017688	327.929371
2887.315059	334.693706
2888.610674	335.735664
2889.906079	340.193706
2891.201272	339.863636
2892.493167	334.677622
2893.787939	324.683217
2895.079415	314.777622
2896.372223	309.396503
2897.664821	307.938462
2898.954124	310.900000
2900.244760	323.039860
2901.533646	327.069930
2902.823863	328.714685
2904.110789	325.248252
2905.399047	328.535664
2906.685556	332.419580
2907.971856	324.455944
2909.257948	319.566434
2910.542292	315.904196
2911.829508	315.352448
2913.111897	316.181119
2914.395618	326.686014
2915.677592	327.244056
2916.959360	323.299301
2918.239382	314.372028
2919.522274	314.001399
2920.803421	315.894406
2922.081286	317.403497
2923.362020	314.365734
2924.639473	320.323776
2925.916721	320.859441
2927.192226	327.208392
2928.470599	332.383217
2929.744157	337.469231
2931.020583	322.900000
2932.295268	318.569930
2933.568213	306.246154
2934.842488	298.844056
2936.115024	292.234266
2937.387356	295.339161
2938.656415	297.283217
2939.928339	301.293007
2941.198525	303.476224
2942.468507	307.407692
2943.738286	310.458042
2945.006328	313.932867
2946.272635	312.393706
2947.538739	309.349650
2948.806174	299.804895
2950.071873	290.896503
2951.337370	287.652448
2952.602665	285.866434
2953.864696	281.181818
2955.128056	283.572028
2956.391215	282.477622
2957.652641	285.413287
2958.915397	292.585315
2960.176422	296.780420
2961.435716	302.611888
2962.694809	308.481818
2963.953702	309.772028
2965.212395	304.826573
2966.470888	306.116084
2967.727652	297.774126
2968.984217	297.841958
2970.239053	291.912587
2971.495219	281.475524
2972.748129	274.503497
2974.002369	273.935664
2975.256410	271.279720
2976.508725	277.086014
2977.760842	288.890909
2979.011234	289.520979
2980.264481	294.827273
2981.512951	303.949650
2982.764275	305.911888
2984.012351	307.055944
2985.260229	297.222378
2986.507910	287.178322
2987.755395	279.409790
2989.001158	283.346853
2990.246724	284.951748
2991.493619	293.318881
2992.737268	295.248951
2993.982246	290.420280
2995.223981	296.819580
2996.468567	297.819580
2997.711434	296.678322
2998.951059	292.709790
3000.193536	293.358741
3001.432772	285.067832
3002.673336	279.660839
3003.912183	289.364336
3005.150836	296.148951
3006.387773	304.164336
3007.626037	303.569930
3008.862587	297.825175
3010.098943	306.495105
3011.335105	308.821678
3012.569553	300.223077
3013.803808	292.792308
3015.037870	295.599301
3016.270220	279.426573
3017.500858	271.679021
3018.734342	271.914685
3019.966115	271.844056
3021.196176	264.460140
3022.426046	267.986713
3023.654206	265.167832
3024.883693	276.342657
3026.111470	275.870629
3027.339056	274.169231
3028.567968	273.216084
3029.792138	277.646853
3031.019151	271.937063
3032.242941	270.884615
3033.468056	268.490909
3034.691465	272.792308
3035.914685	265.915385
3037.136199	272.913287
3038.360554	275.240559
3039.580174	280.556643
3040.801120	281.712587
3042.021876	286.182517
3043.240929	283.329371
3044.461308	284.119580
3045.678470	284.790909
3046.896957	288.142657
3048.113743	289.397902
3049.330340	295.502098
3050.546750	286.260839
3051.759946	288.306993
3052.975980	285.376224
3054.188802	284.497203
3055.404461	284.887413
3056.615397	289.978322
3057.827659	288.790210
3059.039733	286.575524
3060.251621	285.346154
3061.461811	288.095105
3062.671816	288.252448
3063.881634	289.557343
3065.089756	280.413986
3066.297692	280.311888
3067.503934	275.662937
3068.711500	279.839161
3069.917371	280.448951
3071.123057	277.206294
3072.328559	266.294406
3073.532367	263.488112
3074.737499	264.280420
3075.940938	265.920280
3077.142685	266.365035
3078.344249	273.245455
3079.545629	271.125874
3080.746825	272.420280
3081.946331	272.116084
3083.145653	277.749650
3084.346299	281.309790
3085.545256	277.943357
3086.741017	274.344056
3087.939608	279.588112
3089.135005	280.856643
3090.331726	279.039860
3091.525254	273.790909
3092.721610	284.155944
3093.916279	279.829371
3095.107758	275.425175
3096.303568	275.242657
3097.494685	277.761538
3098.687125	275.728671
3099.876376	273.704895
3101.068454	268.603497
3102.258848	271.567133
3103.446055	274.876224
3104.634586	279.647552
3105.824439	276.290909
3107.011107	281.905594
3108.197596	282.564336
3109.383905	282.332168
3110.571537	283.724476
3111.755986	276.467133
3112.938755	273.584615
3114.124348	276.200699
3115.308260	275.572028
3116.490494	277.205594
3117.672550	279.823776
3118.854427	271.511189
3120.036126	266.645455
3121.216148	265.883916
3122.394492	262.517483
3123.575658	262.641958
3124.753648	255.400000
3125.931461	254.142657
3127.109097	261.476923
3128.285058	273.099301
3129.460843	274.300000
3130.637948	270.135664
3131.813380	269.066434
3132.987138	266.203497
3134.159223	271.427273
3135.332629	268.057343
3136.505860	261.705594
3137.677418	266.986014
3138.850298	262.929371
3140.020010	265.892308
3141.191043	276.268531
3142.360405	278.974126
3143.528098	276.617483
3144.698606	273.706294
3145.864455	273.028671
3147.034614	277.245455
3148.200115	272.709790
3149.365443	262.738462
3150.530597	262.018182
3151.695578	266.553147
3152.861878	265.200000
3154.023525	265.883217
3155.186493	273.390909
3156.349287	265.513986
3157.511909	264.393706
3158.672866	263.679021
3159.833650	259.660839
3160.994263	261.293706
3162.153211	255.050350
3163.311987	247.275524
3164.470592	247.627273
3165.629025	255.065734
3166.787286	253.001399
3167.943885	255.070629
3169.098823	259.123776
3170.255080	256.234266
3171.409677	259.658741
3172.564102	264.824476
3173.716868	261.628671
3174.869464	262.088112
3176.021890	256.585315
3177.174145	259.014685
3178.326231	256.927273
3179.475170	256.359441
3180.626916	253.247552
3181.777005	246.390210
3182.925436	246.486713
3184.073699	256.748951
3185.221793	266.299301
3186.369717	272.104895
3187.515987	269.838462
3188.662088	270.742657
3189.806535	272.153147
3190.950813	280.536364
3192.094924	278.374825
3193.240353	276.694406
3194.382643	268.140559
3195.524765	256.006993
3196.666721	254.055245
3197.808509	260.230070
3198.950130	262.040559
3200.088615	257.227273
3201.228419	257.386014
3202.369539	263.116783
3203.507525	265.751049
3204.643862	272.916084
3205.780033	280.911189
3206.917522	279.809091
3208.053362	272.580420
3209.190518	270.827972
3210.323063	261.960839
3211.459888	257.188112
3212.592102	251.748252
3213.725634	239.320979
3214.859000	237.606294
3215.989239	235.667832
3217.122277	237.216783
3218.252187	240.856643
3219.383415	249.600000
3220.511517	246.334965
3221.642417	246.537063
3222.771672	244.442657
3223.899283	243.155245
3225.023773	240.746154
3226.152538	237.888811
3227.278181	236.748252
3228.403661	241.053846
3229.527500	243.677622
3230.654134	249.425175
3231.776169	254.441958
3232.899521	259.899301
3234.022711	255.166434
3235.145739	251.109790
3236.267127	249.622378
3237.388354	251.932867
3238.507942	249.576224
3239.627369	248.155245
3240.745159	249.969231
3241.865740	248.266434
3242.983208	250.037063
3244.100515	253.372727
3245.217661	263.188811
3246.333172	257.957343
3247.449998	261.008392
3248.563713	257.796503
3249.680219	264.514685
3250.795089	263.772028
3251.906851	263.746154
3253.018454	265.033566
3254.131372	259.101399
3255.244130	258.772028
3256.353782	260.520280
3257.464749	251.582517
3258.575557	247.551748
3259.684733	240.051049
3260.792278	247.522378
3261.901138	247.697902
3263.009839	253.095105
3264.115438	250.910490
3265.222352	254.227273
3266.327636	259.262238
3267.434234	259.261538
3268.537732	268.802098
3269.642544	264.236364
3270.747199	253.781818
3271.848756	255.079720
3272.950156	257.358741
3274.052870	253.874126
3275.155427	256.429371
3276.254889	260.688811
3277.357133	252.637762
3278.456283	248.104895
3279.553807	250.066434
3280.651176	253.330769
3281.751328	248.594406
3282.848386	239.801399
3283.945290	231.539161
3285.042038	225.919580
3286.134227	222.695804
3287.230666	216.910490
3288.325482	222.789510
3289.420143	228.025175
3290.513183	224.332168
3291.606069	227.996503
3292.697334	235.493706
3293.789912	236.362238
3294.880870	235.664336
3295.970208	236.530070
3297.059393	238.947552
3298.149890	232.877622
3299.237303	235.636364
3300.324564	236.351748
3301.413137	232.625175
3302.501557	237.827273
3303.585430	234.805594
3304.673545	230.043357
3305.758579	230.689510
3306.841997	232.521678
3307.926727	237.583217
3309.009841	235.597203
3310.094267	239.397902
3311.175615	241.434965
3312.258275	239.276923
3313.339321	242.774825
3314.420216	239.576923
3315.499498	243.014685
3316.578629	239.980420
3317.659072	244.587413
3318.736440	244.557343
3319.815120	246.137762
3320.892188	245.895804
3321.969106	239.534266
3323.044414	239.728671
3324.119572	238.196503
3325.196041	232.350350
3326.269439	237.545455
3327.342689	234.494406
3328.417250	231.804895
3329.490201	233.586713
3330.561545	237.680420
3331.634199	234.538462
3332.703786	239.649650
3333.774684	242.396503
3334.843975	241.402098
3335.914577	241.928671
3336.983572	238.664336
3338.050961	247.705594
3339.116745	248.409790
3340.186755	242.763636
3341.253702	237.751049
3342.317587	232.861538
3343.384240	232.275524
3344.449289	231.182517
3345.512734	236.019580
3346.576032	235.087413
3347.639185	237.753147
3348.702191	236.734965
3349.765050	236.417483
3350.826308	240.941259
3351.884509	239.030070
3352.946931	230.701399
3354.006296	226.190909
3355.065517	223.592308
3356.126046	224.344755
3357.182066	227.281119
3358.240851	228.602797
3359.295128	227.870629
3360.352169	223.437762
3361.407611	224.246154
3362.464362	227.674825
3363.519516	232.707692
3364.573072	235.257343
3365.625031	225.983217
3366.679752	228.540559
3367.731425	236.390909
3368.782953	239.789510
3369.835791	244.740559
3370.885581	240.175524
3371.936680	234.108392
3372.984732	230.044056
3374.035545	233.828671
3375.083312	235.747552
3376.130937	239.141259
3377.178420	236.946853
3378.224309	227.387413
3379.271508	229.816084
3380.315663	236.472028
3381.362577	232.265734
3382.407899	230.675524
3383.450181	230.379720
3384.492321	224.951049
3385.535770	231.119580
3386.579077	237.994406
3387.620794	239.637063
3388.662370	239.982517
3389.703806	240.980420
3390.743653	235.113986
3391.781911	235.879720
3392.821477	239.695105
3393.860903	231.263636
3394.898741	231.654545
3395.934992	230.585315
3396.971103	228.587413
3398.008522	236.125175
3399.042908	246.442657
3400.078602	246.772028
3401.114156	244.298601
3402.146678	246.355245
3403.181954	241.855245
3404.214199	236.189510
3405.246306	228.336364
3406.276829	219.011888
3407.308660	216.009790
3408.340352	210.748252
3409.369016	214.258042
3410.397542	219.646154
3411.427376	228.223776
3412.457072	230.936364
3413.483741	230.138462
3414.511718	227.629371
3415.536670	227.577622
3416.564372	221.192308
3417.589051	212.295105
3418.615036	212.846154
3419.639442	212.003497
3420.663710	220.374825
3421.686400	227.274126
3422.708955	230.527972
3423.732814	235.717483
3424.753654	238.509091
3425.774359	237.140559
3426.796369	233.908442
3427.815361	228.966933
3428.834218	222.470230
3429.854381	214.572527
3430.871526	205.428022
