-118.385087	8.269231
-115.715486	4.128571
-113.048821	0.875225
-110.382909	-1.553746
-107.719928	-3.221279
-105.055517	-4.190310
-102.394037	-4.523776
-99.731128	-3.605594
-97.073326	-3.176224
-94.414093	-3.625175
-91.755609	0.798601
-89.100050	-0.828671
-86.443062	3.600699
-83.791171	1.162238
-81.137851	1.807692
-78.487451	2.070629
-75.835621	2.178322
-73.188882	1.686713
-70.540713	4.534266
-67.893288	3.558042
-65.248776	1.762238
-62.602835	0.847552
-59.961977	-0.483217
-57.319688	0.017483
-54.680309	1.233566
-52.039501	0.019580
-49.399432	2.455245
-46.764437	3.144755
-44.128012	4.219580
-41.494491	6.016783
-38.859540	8.403497
-36.229656	4.882517
-33.596178	3.997902
-30.967763	1.478322
-28.340082	-1.123077
-25.710973	-5.466434
-23.086920	-20.873427
-20.459278	-74.293007
-17.836689	-222.152448
-15.214831	-118.676923
-12.593704	307.123077
-9.973308	894.967832
-7.355799	1361.280420
-4.736862	1671.813287
-2.120811	1831.012587
0.494512	1833.478322
3.109108	1681.347552
5.720822	1379.222378
8.333963	938.283217
10.942071	395.548252
13.553761	-116.167133
16.160420	-254.131469
18.768507	-145.976923
21.375870	-14.084615
23.978208	-1.167832
26.584124	-0.714685
29.185019	1.634266
31.787341	-0.130769
34.384645	-1.401399
36.985525	-2.299301
39.581391	-5.616783
42.178684	-7.198601
44.775258	-4.413986
47.366823	-5.074825
49.959816	-3.384615
52.549948	-2.313287
55.141508	-1.506993
57.730208	-0.239161
60.320336	1.976923
62.905464	-0.218881
65.492020	0.758042
68.077861	-1.100699
70.660849	-2.974825
73.245264	-2.299301
75.822549	-1.902098
78.403401	-4.957343
80.981404	-4.213287
83.558697	-4.735664
86.137416	-3.350350
88.711154	-2.548252
91.286318	1.434266
93.858639	3.746853
96.430253	7.184615
98.999026	8.350350
101.569226	11.319580
104.136587	11.506294
106.705375	8.905594
109.271325	6.248252
111.834441	4.865035
114.401114	-0.134965
116.958564	1.250350
119.521700	-0.210490
122.079877	5.548951
124.641607	14.041958
127.198382	29.137063
129.756582	48.441259
132.309830	73.234266
134.862379	99.444755
137.418480	132.062937
139.969632	165.028671
142.520086	196.228671
145.069844	223.675524
147.616782	248.086713
150.163024	265.120280
152.710693	279.167133
155.257665	282.041259
157.799701	284.759441
160.341044	279.213287
162.881695	274.430070
165.423770	268.244056
167.963035	269.033566
170.499490	266.189510
173.035255	264.444755
175.572445	264.659441
178.108943	266.883217
180.642636	265.386713
183.173526	267.123077
185.703727	262.160140
188.235353	261.903497
190.764179	259.086014
193.290205	258.279720
195.815545	256.355944
198.342310	258.160839
200.866279	255.006294
203.389562	253.787413
205.912161	255.889510
208.431967	258.134266
210.951090	255.602797
213.469530	258.262238
215.989394	258.540559
218.502257	264.804895
221.018651	266.223776
223.534364	266.734266
226.045186	269.256643
228.557433	271.420979
231.066897	269.682517
233.575683	268.893007
236.083791	267.327273
238.593323	268.493706
241.097974	267.691608
243.601949	268.520280
246.107348	269.634965
248.607872	272.535664
251.111919	271.661538
253.608996	272.011189
256.109595	276.205594
258.607423	277.732867
261.104578	277.631469
263.601060	277.660140
266.092680	280.301399
268.587818	287.320280
271.080191	290.555245
273.571893	295.167832
276.060832	296.692308
278.551194	298.984615
281.038795	297.747552
283.523636	294.811888
286.011991	293.319580
288.493408	290.673427
290.978338	289.811888
293.458422	289.936364
295.942019	294.021678
298.420774	296.411888
300.900951	296.410490
303.378377	298.156643
305.855139	302.175524
308.331237	315.687413
310.804587	332.761538
313.277276	354.519580
315.749303	373.622378
318.220668	387.995105
320.689290	395.190210
323.157252	397.927273
325.626637	394.202098
328.091199	383.823776
330.559264	368.501399
333.022510	352.825874
335.485099	337.804196
337.947030	331.730070
340.408305	329.654545
342.866846	330.028671
345.326809	327.978322
347.784040	325.644056
350.240616	321.834266
352.696537	324.220280
355.149730	325.414685
357.604345	329.927273
360.054158	332.782517
362.507467	335.204895
364.955977	331.146853
367.403837	329.554545
369.853118	324.773427
372.297606	324.452448
374.743516	322.113287
377.188777	322.795105
379.631319	323.086014
382.073213	327.488811
384.514459	328.972028
386.952990	332.042657
389.392943	333.171329
391.830182	336.847552
394.264709	333.481119
396.702724	331.555245
399.135962	325.896503
401.570622	324.958042
404.000509	321.725175
406.433881	323.220280
408.862482	324.849650
411.290443	325.446154
413.719824	326.616084
416.144441	327.093007
418.570478	330.343357
420.995876	335.541958
423.420633	335.029371
425.840631	336.527273
428.262051	331.565035
430.680774	331.223776
433.100918	327.623077
435.518367	327.967832
437.937236	329.213986
440.353412	330.488811
442.764841	331.743357
445.179746	332.677622
447.591961	336.363636
450.003542	336.358042
452.414489	337.072028
454.822750	334.981119
457.230379	327.521678
459.637375	324.279720
462.043739	315.865734
464.447422	312.981818
466.850474	311.242657
469.252896	309.915385
471.654688	307.016783
474.053802	306.413287
476.454336	306.514685
478.854241	308.416783
481.249423	314.366434
483.648072	313.291608
486.042001	312.366434
488.435304	312.862238
490.827981	306.480420
493.220033	299.792308
495.613504	289.510490
498.002262	278.306294
500.388354	264.609790
502.775866	252.177622
505.162754	237.541958
507.546979	229.836364
509.932623	217.881818
512.315604	208.279720
514.695925	200.149650
517.077665	195.628671
519.456746	187.963636
521.837246	184.881119
524.215088	184.434266
526.590275	185.732168
528.964844	185.844755
531.340832	185.353147
533.714166	183.551049
536.088919	183.994406
538.458985	178.453846
540.828436	178.078322
543.199306	172.676224
545.565494	168.718881
547.933101	165.566434
550.298062	165.651748
552.662410	167.302098
555.026146	169.244056
557.391299	169.360839
559.751780	169.183916
562.113678	168.516084
564.472937	167.762238
566.829557	166.410490
569.189623	168.157343
571.542997	164.575524
573.899816	160.376923
576.254000	157.702797
578.607575	153.945455
580.960542	152.508392
583.310878	151.425874
585.662630	148.131469
588.007706	147.658042
590.358246	147.158741
592.702113	149.797902
595.051441	150.317483
597.396120	156.769231
599.738175	151.442657
602.081647	150.043357
604.422496	148.637063
606.762742	145.247552
609.100368	142.516783
611.441429	139.613986
613.777853	136.332867
616.115693	136.065035
618.450915	132.546154
620.783522	132.881119
623.117546	133.006993
625.448955	136.943357
627.779766	133.181119
630.109979	134.914685
632.439595	134.965734
634.764587	132.937762
637.095021	132.199301
639.420833	132.351748
641.744039	127.733566
644.068661	123.696503
646.390677	119.986014
648.712099	121.138462
651.030918	121.494406
653.351153	124.690210
655.670795	124.514685
657.987836	120.865734
660.304286	121.257343
662.618137	120.506294
664.933403	120.169930
667.246073	121.273427
669.560158	116.476923
671.869644	119.186713
674.180544	119.749650
676.488852	120.916783
678.796572	120.496503
681.105707	121.893007
683.410249	118.204895
685.714205	114.644056
688.017574	113.829371
690.322358	114.948951
692.622556	114.058042
694.924169	116.251748
697.225196	115.559441
699.521642	119.188811
701.819502	117.110490
704.116780	119.773427
706.413473	116.508392
708.705591	113.577622
711.001120	109.752448
713.292076	106.964336
715.584446	105.601399
717.874240	108.427972
720.163455	106.930769
722.452089	112.684615
724.738152	116.700699
727.025628	120.334266
729.310534	121.865734
731.594861	125.878322
733.876621	121.830070
736.159794	121.461538
738.442390	118.149650
740.720430	117.063636
742.999884	116.059441
745.278763	117.876224
747.557066	116.699301
749.830820	121.125874
752.105988	123.304196
754.380582	125.431469
756.652617	127.085315
758.926065	129.432867
761.196955	126.746154
763.465288	125.609091
765.735036	122.010490
768.002228	123.962937
770.268850	124.111189
772.534903	125.381818
774.798404	123.148951
777.063317	124.942657
779.327662	125.485315
781.587476	126.762937
783.848704	125.934266
786.109364	127.049650
788.367477	125.365734
790.623046	125.059441
792.882006	124.460140
795.134467	126.945455
797.392295	126.179021
799.645604	128.886713
801.896372	126.761538
804.148553	126.867133
806.398196	119.118182
808.649250	115.982517
810.895793	113.297203
813.143749	111.627972
815.389169	106.315385
817.636002	104.925175
819.882272	102.023077
822.124039	102.788811
824.369188	102.976923
826.607865	105.338462
828.849925	104.958741
831.087486	106.740559
833.326458	104.140559
835.562904	108.742657
837.800762	110.428671
840.036094	110.020979
842.268902	107.123077
844.503122	106.788811
846.734820	106.144056
848.965963	103.445455
851.196551	99.855944
853.426585	96.472028
855.656064	95.016783
857.881063	95.909790
860.109435	95.163636
862.333329	97.909091
864.558633	102.322378
866.779462	105.179720
869.003663	105.255944
871.223391	107.398601
873.444530	107.379720
875.665118	107.455944
877.883197	104.683916
880.102685	103.512587
882.317707	101.320280
884.532181	100.770629
886.746108	100.162937
888.959487	102.559441
891.172320	106.681818
893.384605	107.394406
895.594389	107.498601
897.803627	108.563636
900.012319	108.294406
902.218513	108.861538
904.426116	104.530070
906.631222	109.574825
908.835784	113.058741
911.037851	114.817483
913.241327	116.295804
915.442309	116.074126
917.642749	115.066434
919.844598	111.650350
922.040056	107.463636
924.238872	105.888811
926.433251	101.809091
928.630987	98.698601
930.824287	97.139161
933.018995	100.315385
935.211218	101.825874
937.402903	103.768531
939.594050	104.994406
941.782714	107.079720
943.970841	109.527273
946.156488	113.250350
948.345487	118.335664
950.530063	121.510490
952.714104	122.291608
954.901495	123.285315
957.080583	120.785315
959.263020	123.704895
961.444924	128.524476
963.624354	133.256643
965.801311	133.695804
967.979676	139.593007
970.159447	145.467133
972.332870	152.270629
974.509639	153.323077
976.682002	152.788112
978.855771	149.779720
981.025138	149.677622
983.197848	143.809091
985.368092	144.975524
987.537808	149.882517
989.706995	153.237762
991.871785	152.023776
994.039917	159.702797
996.203653	160.269231
998.368797	168.981119
1000.531481	171.088112
1002.693640	176.067832
1004.853341	176.160839
1007.012519	174.776224
1009.173103	170.988112
1011.331232	170.849650
1013.488837	172.653147
1015.645919	166.736364
1017.802478	158.183217
1019.954657	158.287413
1022.108243	150.067832
1024.261306	154.088112
1026.411922	153.425874
1028.563943	158.707692
1030.711591	159.080420
1032.862571	160.983916
1035.009181	169.103497
1037.155271	170.363636
1039.300843	175.955245
1041.447819	180.380420
1043.588508	183.530070
1045.732525	188.885315
1047.874103	189.641958
1050.015163	198.898601
1052.157628	202.067133
1054.293814	204.476224
1056.433326	203.596503
1058.568482	202.987413
1060.706963	199.776923
1062.841091	194.383916
1064.974705	198.250350
1067.109723	201.795804
1069.240392	197.199301
1071.372467	197.486014
1073.502111	195.595105
1075.631244	200.023776
1077.759866	193.697902
1079.887976	190.667832
1082.013660	185.754545
1084.138834	180.008392
1086.265411	171.139860
1088.387652	166.249650
1090.511297	164.719580
1092.630607	163.065035
1094.755146	163.143357
1096.873441	166.194406
1098.993139	169.400699
1101.110419	174.179021
1103.227193	167.631469
1105.343460	169.497203
1107.457312	164.263636
1109.572567	164.530769
1111.683500	158.999301
1113.797744	156.160839
1115.907669	145.824476
1118.018996	143.043357
1120.129820	142.560839
1122.236327	139.486713
1124.346143	138.467133
1126.451645	135.635664
1128.558551	130.552448
1130.659240	132.262238
1132.765142	131.145455
1134.866735	137.343357
1136.969731	139.917483
1139.072226	138.309091
1141.168515	137.340559
1143.270010	138.797203
1145.367203	136.792308
1147.463897	137.674126
1149.560094	139.184615
1151.655792	138.838462
1153.750993	138.271329
1155.843797	138.588112
1157.938003	134.379720
1160.026018	134.679720
1162.119231	131.674825
1164.206256	125.148252
1166.296581	126.529371
1168.382617	123.275524
1170.471951	119.376923
1172.555104	121.128671
1174.639660	122.112587
1176.725616	124.436364
1178.807291	125.373427
1180.890368	129.390210
1182.971059	130.773427
1185.051259	133.764336
1187.130967	133.347552
1189.210183	131.846853
1191.287018	133.124476
1193.361472	129.811189
1195.439218	125.667832
1197.512693	126.715385
1199.587570	123.718182
1201.658179	122.071329
1203.730189	120.459441
1205.799823	127.923776
1207.870858	128.462238
1209.941405	129.404196
1212.007691	131.300699
1214.075378	130.055944
1216.140693	130.135664
1218.207408	127.358042
1220.269867	125.598601
1222.335612	127.753846
1224.397102	125.339161
1226.459992	124.699301
1228.520515	122.297203
1230.580555	122.552448
1232.640111	120.046154
1234.697303	118.718881
1236.754012	118.310490
1238.808359	113.965035
1240.865986	112.876224
1242.921251	113.099301
1244.972275	114.346853
1247.024699	120.225175
1249.076644	120.656643
1251.126230	121.771329
1253.175337	121.099301
1255.223965	123.200000
1257.272115	125.018182
1259.319787	124.629371
1261.363228	123.916783
1263.409944	123.144755
1265.454308	124.501399
1267.498194	127.362937
1269.539730	128.516084
1271.578916	129.762937
1273.621374	127.723077
1275.659611	125.269930
1277.699245	126.392308
1279.738405	127.850350
1281.773347	131.313986
1283.809687	133.188112
1285.843682	133.248951
1287.879076	134.686014
1289.910256	132.762937
1291.942835	137.300699
1293.974941	136.914685
1296.004707	138.409790
1298.035871	138.511189
1300.062827	142.648951
1302.091181	148.630769
1304.115331	156.716783
1306.142746	164.851748
1308.165958	171.244755
1310.190568	173.802797
1312.212843	174.999301
1314.236516	173.850350
1316.257856	184.536364
1318.278729	186.088112
1320.299134	193.003497
1322.315345	196.996503
1324.332955	208.295804
1326.348236	214.152448
1328.366776	220.775524
1330.381126	224.593706
1332.393151	225.888811
1334.408434	221.188112
1336.419531	219.276224
1338.432024	217.015385
1340.440335	219.970629
1342.451902	218.450350
1344.457430	217.204895
1346.466212	212.606294
1348.470818	212.569930
1350.478677	209.463636
1352.486073	201.326573
1354.487439	190.440559
1356.490202	184.786014
1358.492505	174.137762
1360.494347	169.068531
1362.495731	163.292308
1364.494800	159.306294
1366.493411	155.919580
1368.491564	151.430769
1370.489259	147.174825
1372.482790	144.560140
1374.477718	141.009091
1376.472189	136.467133
1378.466203	131.143357
1380.457910	133.199301
1382.449161	127.797203
1384.438107	123.837762
1386.428448	121.594406
1388.418334	121.208392
1390.405917	117.623776
1392.393046	114.794406
1394.377873	114.106993
1396.364095	114.080420
1398.348016	116.716084
1400.331485	118.408392
1402.314502	119.157343
1404.295221	124.937762
1406.277334	122.967133
1408.257150	122.879720
1410.236516	121.986014
1412.211743	118.497203
1414.190208	112.295804
1416.166380	107.684615
1418.142102	108.234965
1420.117375	107.473427
1422.090357	110.441259
1424.062892	111.274825
1426.034978	113.828671
1428.006616	116.107692
1429.974127	111.402797
1431.946711	113.252448
1433.911489	109.978322
1435.881340	107.414685
1437.847066	105.041958
1439.814186	105.492308
1441.779022	105.306993
1443.739738	105.227972
1445.705522	105.658042
1447.665351	103.278322
1449.626573	101.258741
1451.589188	100.584615
1453.547688	98.563636
1455.505746	101.126573
1457.463361	98.497902
1459.420535	97.806993
1461.375433	99.608392
1463.331723	103.658042
1465.285739	104.551748
1467.239315	106.464336
1469.190618	103.830070
1471.143313	105.813986
1473.093737	105.173427
1475.043722	106.379720
1476.993267	105.634965
1478.940544	102.314685
1480.885554	97.913287
1482.831956	97.871329
1484.777920	97.652448
1486.723446	98.280420
1488.666708	99.078322
1490.609533	100.177622
1492.550095	100.034266
1494.492048	105.455944
1496.431740	103.369930
1498.370996	105.660140
1500.309818	108.772727
1502.246380	112.672028
1504.184332	112.735664
1506.120027	116.602797
1508.055288	118.337063
1509.988292	122.472028
1511.920864	122.948951
1513.853004	122.383217
1515.784712	122.589510
1517.714167	124.132168
1519.645011	121.112587
1521.575425	121.834266
1523.501766	124.394406
1525.429497	124.140559
1527.354978	122.702098
1529.280030	127.290909
1531.204653	131.382517
1533.128847	134.062937
1535.050794	131.218881
1536.974130	133.116783
1538.895221	135.825175
1540.814067	139.051748
1542.734303	141.538462
1544.652295	148.376923
1546.569861	153.769930
1548.485185	161.813986
1550.401899	172.756643
1552.314558	179.531469
1554.230421	186.310490
1556.144045	193.718182
1558.055430	197.421678
1559.968204	199.367133
1561.876929	195.794406
1563.787044	197.609091
1565.696735	196.349650
1567.606002	196.154545
1569.513036	194.188811
1571.417837	196.301399
1573.324027	195.665035
1575.227985	191.266434
1577.131523	188.984615
1579.034639	189.031469
1580.935527	184.652448
1582.837803	183.391608
1584.737850	181.345455
1586.639286	183.787413
1588.536687	176.608392
1590.433671	174.137762
1592.330236	171.247552
1594.228188	173.441958
1596.120306	168.448252
1598.015618	163.664336
1599.910511	155.432168
1601.803183	150.274126
1603.695439	147.664336
1605.585475	153.037063
1607.475095	148.723077
1609.364300	145.709091
1611.253089	137.686713
1613.139662	140.748252
1615.027621	136.151748
1616.911565	135.818182
1618.796895	128.144056
1620.681812	124.393706
1622.564515	120.175524
1624.448604	118.228671
1626.328683	119.395804
1628.210148	115.944056
1630.089403	110.803497
1631.970044	113.689510
1633.844881	113.786713
1635.724700	116.277622
1637.600513	110.294406
1639.475917	111.192308
1641.352706	110.175524
1643.223698	108.411189
1645.097872	110.031469
1646.968048	107.689510
1648.841404	106.385315
1650.712557	101.999301
1652.581508	105.461538
1654.451845	108.807692
1656.318188	109.746853
1658.185918	109.927972
1660.051448	105.944755
1661.918363	110.221678
1663.781290	104.605594
1665.645602	104.904895
1667.507719	103.758042
1669.369430	99.068531
1671.232526	92.720979
1673.093428	92.067832
1674.952136	92.187413
1676.810441	89.768531
1678.670131	92.283916
1680.524054	93.065035
1682.381149	96.255245
1684.237842	100.124476
1686.090559	98.266434
1687.946447	109.503497
1689.798361	111.401399
1691.649873	115.027273
1693.500986	112.589510
1695.351697	111.624476
1697.202008	107.588811
1699.050135	100.506294
1700.899645	97.030070
1702.743407	93.544056
1704.592119	90.029371
1706.435084	81.692308
1708.281215	79.941259
1710.123385	84.501399
1711.968719	88.113287
1713.808313	93.723077
1715.649291	92.867832
1717.491652	93.472028
1719.330057	98.667133
1721.169845	102.248951
1723.007458	98.308392
1724.844675	96.831469
1726.679719	93.886014
1728.516146	94.448951
1730.350401	93.448252
1732.184262	95.639860
1734.017728	95.311888
1735.847248	93.177622
1737.679927	93.527273
1739.508662	94.739860
1741.340555	91.189510
1743.168505	88.799301
1744.996063	78.686014
1746.823230	80.451748
1748.650004	84.698601
1750.476388	86.802797
1752.298835	84.266434
1754.124436	84.676224
1755.946103	79.407692
1757.769152	77.179021
1759.590040	80.725175
1761.410538	79.490909
1763.232418	77.674825
1765.048598	81.076923
1766.867930	80.393007
1768.683335	85.667133
1770.501891	86.879021
1772.316521	90.785315
1774.130764	91.585315
1775.944621	94.406993
1777.758091	92.461538
1779.569407	96.667832
1781.382105	98.995804
1783.194416	102.513287
1785.002810	105.411189
1786.812585	103.758042
1788.618444	102.416084
1790.427450	97.054545
1792.232542	88.788811
1794.039014	88.017483
1795.845103	85.745455
1797.647282	85.787413
1799.452604	86.490210
1801.254018	88.934266
1803.056812	90.983217
1804.855701	101.026573
1806.655969	100.698601
1808.455857	102.499301
1810.253602	100.601399
1812.050967	97.907692
1813.847951	92.559441
1815.644555	92.225175
1817.439020	90.986014
1819.234865	91.155944
1821.025054	93.469231
1822.820140	93.782517
1824.609573	98.264336
1826.402144	100.737762
1828.192579	95.549650
1829.980879	98.684615
1831.772315	96.691608
1833.558105	100.093007
1835.345275	100.041259
1837.130313	101.249650
1838.918485	97.228671
1840.702771	100.161538
1842.484928	97.649650
1844.268463	98.847552
1846.049871	97.384615
1847.832656	98.446853
1849.611562	96.300000
1851.391846	100.443357
1853.170005	99.688811
1854.949541	102.318182
1856.726953	99.537762
1858.502241	97.170629
1860.278908	96.331469
1862.053452	98.173427
1863.829373	92.682517
1865.599675	87.431469
1867.373104	82.689510
1869.144413	86.118881
1870.915351	83.691608
1872.687666	88.233566
1874.454369	89.400699
1876.224196	93.694406
1877.990160	90.354545
1879.759248	94.034266
1881.524474	96.817483
1883.289332	96.448951
1885.055566	91.693706
1886.817942	88.575524
1888.579951	85.369231
1890.341593	87.269231
1892.102867	84.181119
1893.863775	86.704196
1895.624315	90.811189
1897.382746	92.892308
1899.140812	92.583217
1900.896770	94.997203
1902.654104	95.016084
1904.411072	98.869930
1906.165935	100.618881
1907.918692	100.800699
1909.671086	95.048252
1911.424856	94.614685
1913.176522	86.448951
1914.926085	84.463636
1916.677025	82.128671
1918.427601	79.360140
1920.174339	78.045455
1921.922452	79.825175
1923.668466	82.721678
1925.415856	90.645455
1927.161147	96.567133
1928.904341	99.923077
1930.648911	100.460839
1932.391384	100.044755
1934.133497	92.537063
1935.875251	90.722378
1937.616644	88.837762
1939.355944	90.651748
1941.094885	86.909091
1942.833467	87.805594
1944.569957	86.794406
1946.306090	92.114685
1948.043597	91.362238
1949.777283	92.303497
1951.512343	92.953846
1953.245314	93.721678
1954.977929	89.897902
1956.710187	92.551748
1958.442089	92.741958
1960.171905	96.095804
1961.899637	92.241958
1963.628742	93.913986
1965.357493	95.362238
1967.084160	99.459441
1968.810473	94.658042
1970.538159	100.532867
1972.260309	102.845455
1973.985561	108.774825
1975.707005	108.244056
1977.431549	107.366434
1979.154014	104.427273
1980.872675	107.643357
1982.594435	104.177622
1984.312393	103.444755
1986.031725	107.299301
1987.747256	105.650350
1989.467609	100.271329
1991.184162	101.330070
1992.896920	95.896503
1994.612773	97.551748
1996.326554	97.778322
1998.039984	96.044755
1999.751344	96.196503
2001.464077	99.562937
2003.173018	95.009790
2004.885053	94.970629
2006.591578	103.084615
2008.301196	100.913986
2010.008746	98.185315
2011.715949	99.622378
2013.421086	97.808392
2015.125876	101.297902
2016.832038	102.285315
2018.534418	99.321678
2020.238170	96.568531
2021.939859	95.597203
2023.641202	91.539161
2025.342200	92.705594
2027.041138	96.821678
2028.741447	97.768531
2030.437980	98.065035
2032.135885	105.981818
2033.831732	107.679720
2035.530664	112.838462
2037.224110	109.905594
2038.918927	112.832867
2040.613401	111.120979
2042.304107	111.015385
2043.997897	106.134965
2045.687920	105.503497
2047.379314	103.718881
2049.068655	98.446154
2050.759366	96.297902
2052.446315	97.862937
2054.132923	95.638462
2055.820902	100.006294
2057.505121	98.436364
2059.190710	103.631469
2060.875960	100.257343
2062.559162	101.618881
2064.243734	99.483916
2065.922842	103.698601
2067.606736	103.637063
2069.285170	104.704895
2070.966681	104.776224
2072.644440	104.350350
2074.321863	101.718881
2076.000655	100.097902
2077.677404	96.237063
2079.352112	97.451748
2081.028189	93.361538
2082.702226	97.920280
2084.375927	94.858042
2086.049293	98.941259
2087.720621	99.300000
2089.391614	102.038462
2091.062273	102.629371
2092.732598	105.246154
2094.402588	104.413287
2096.070543	105.477622
2097.738165	105.025175
2099.403753	107.966434
2101.070709	104.637762
2102.735632	104.598601
2104.400222	100.322378
2106.062781	100.009091
2107.726709	97.162238
2109.388605	97.316783
2111.050170	99.902797
2112.711405	102.895804
2114.370610	106.684615
2116.029486	107.476224
2117.688031	107.194406
2119.346247	108.348252
2121.000739	104.041958
2122.658297	103.619580
2124.315524	101.583217
2125.969031	97.527972
2127.623905	96.505594
2129.275060	96.251748
2130.929278	96.739161
2132.579778	95.483916
2134.231646	96.334965
2135.878105	98.920280
2137.529318	103.700699
2139.176818	104.948951
2140.825686	107.882517
2142.472534	109.818182
2144.119056	109.713986
2145.765254	106.300000
2147.407742	107.178322
2149.053289	108.703497
2150.695129	104.479021
2152.340026	102.347552
2153.981218	104.104895
2155.622086	105.918881
2157.262631	104.843357
2158.901163	106.021678
2160.541061	107.095804
2162.177259	106.285315
2163.814823	104.997203
2165.452065	98.718182
2167.087297	95.065035
2168.722207	92.398601
2170.356796	87.275524
2171.991064	89.268531
2173.621638	89.143357
2175.255263	86.925175
2176.885197	88.790909
2178.516496	95.621678
2180.145791	94.027273
2181.774765	97.166434
2183.403421	99.545455
2185.031757	98.577622
2186.658090	92.915385
2188.284105	90.146154
2189.908119	88.112587
2191.533498	86.483916
2193.156876	81.060140
2194.781619	81.388811
2196.402680	85.509091
2198.023426	89.263636
2199.645535	87.818182
2201.265647	92.982517
2202.883763	95.090909
2204.501563	97.964336
2206.119047	99.697902
2207.736216	99.861538
2209.353070	101.555245
2210.969609	102.465734
2212.584154	99.413986
2214.196707	101.997902
2215.810625	102.228671
2217.422550	101.250350
2219.035840	100.962238
2220.647138	102.745455
2222.256448	98.408392
2223.867120	98.537063
2225.475804	100.772028
2227.084176	101.793007
2228.690560	101.239161
2230.298308	104.865734
2231.904069	99.927972
2233.509519	101.011189
2235.112985	100.778322
2236.717813	101.886713
2238.320657	103.176224
2239.921518	102.443357
2241.523742	94.317483
2243.123983	94.883217
2244.725588	95.081119
2246.323539	97.132168
2247.922853	97.312587
2249.520187	101.374825
2251.117213	102.172028
2252.715600	106.259441
2254.310339	105.264336
2255.903102	108.376224
2257.497226	109.116783
2259.092712	107.804895
2260.684554	103.895804
2262.276089	107.038462
2263.868985	98.515385
2265.456572	99.548951
2267.048856	96.390210
2268.635832	92.873427
2270.225837	92.777622
2271.810537	94.206993
2273.399931	90.374126
2274.984022	92.700699
2276.569475	93.386713
2278.152959	93.848951
2279.739468	95.020280
2281.322344	96.004196
2282.904916	90.647552
2284.487186	92.116783
2286.065825	90.730769
2287.647488	92.386713
2289.225524	93.830769
2290.806582	98.595105
2292.384013	95.464336
2293.959481	97.787413
2295.537971	94.104196
2297.112836	92.620280
2298.687401	92.142657
2300.261666	92.438462
2301.835630	90.669231
2303.409294	91.024476
2304.982657	92.469930
2306.552402	93.385315
2308.121848	95.719580
2309.694313	103.025874
2311.261503	104.850350
2312.831710	105.674126
2314.398303	103.629371
2315.966256	105.914685
2317.532254	104.015385
2319.097954	106.477622
2320.663356	104.441259
2322.226805	110.948951
2323.791613	114.851049
2325.352812	119.065734
2326.917026	120.379720
2328.475979	122.965035
2330.037945	120.146853
2331.597961	111.245455
2333.157681	103.139860
2334.715452	97.072727
2336.272929	84.606993
2337.830110	83.642657
2339.385345	80.381818
2340.940285	82.911888
2342.494932	80.451049
2344.049285	79.765035
2345.603344	80.805594
2347.157110	82.692308
2348.708931	84.448951
2350.258809	81.488811
2351.811695	78.687413
2353.359339	83.651748
2354.909990	85.574825
2356.457051	88.176224
2358.005469	90.023077
2359.553595	93.737063
2361.098134	97.751748
2362.644030	99.811189
2364.187987	102.848252
2365.733302	103.720979
2367.275032	105.058042
2368.818120	109.879021
2370.359271	108.588811
2371.900133	110.436364
2373.440706	107.224476
2374.980990	98.866434
2376.520985	97.611888
2378.057401	94.430070
2379.596819	95.406294
2381.132660	93.055944
2382.669857	93.747552
2384.203480	95.436364
2385.740102	99.337063
2387.274793	108.362937
2388.807555	110.051748
2390.340031	111.444755
2391.870578	111.899301
2393.404123	109.715385
2394.932457	102.033566
2396.462147	104.855944
2397.991552	105.062937
2399.520672	107.859441
2401.049506	106.283916
2402.573136	104.790909
2404.101401	104.492308
2405.624463	105.841958
2407.152160	110.451049
2408.673016	110.437762
2410.198506	111.962238
2411.720436	111.725175
2413.243720	105.277622
2414.765084	114.204196
2416.284528	107.862238
2417.805327	109.062937
2419.324207	101.255245
2420.842805	98.932168
2422.359486	98.706993
2423.877522	102.283217
2425.395276	102.840559
2426.909478	99.713287
2428.423400	98.305594
2429.937043	99.848252
2431.452039	99.233566
2432.963487	102.630769
2434.476290	98.330769
2435.987180	99.525874
2437.497790	96.138462
2439.006489	99.304196
2440.518175	101.582517
2442.026317	104.424476
2443.534180	102.140559
2445.041766	103.506993
2446.545812	103.878322
2448.052842	108.804895
2449.557964	111.701399
2451.062809	109.944056
2452.565747	111.321678
2454.068408	112.748951
2455.570793	108.071329
2457.071273	107.127972
2458.573106	100.875524
2460.073035	101.679720
2461.572688	96.702797
2463.072066	98.685315
2464.569541	98.458042
2466.065114	102.518881
2467.563667	104.979720
2469.058691	106.272028
2470.555069	108.182517
2472.047920	104.908392
2473.542123	96.461538
2475.036053	92.318881
2476.526460	89.530769
2478.019844	90.074825
2479.511329	88.193007
2481.000918	91.544755
2482.490236	93.312587
2483.977657	97.590909
2485.468054	100.753846
2486.954932	103.088811
2488.443162	99.470629
2489.927876	97.125874
2491.412319	92.222378
2492.898114	94.562937
2494.382016	96.153147
2495.867270	97.883217
2497.347390	99.900699
2498.830482	97.987413
2500.311684	98.654545
2501.792617	95.681818
2503.271661	90.765035
2504.750437	87.294406
2506.228944	83.334266
2507.707182	81.106294
2509.185152	78.651049
2510.659618	86.772028
2512.137052	85.234266
2513.610983	90.646853
2515.086265	91.561538
2516.561279	96.054545
2518.032792	100.858741
2519.505656	101.432867
2520.976637	102.606294
2522.448967	101.586713
2523.916185	99.226573
2525.386369	100.183916
2526.854671	100.632168
2528.322709	103.620979
2529.790482	99.225175
2531.257990	102.472727
2532.725233	98.763636
2534.188985	102.422378
2535.654086	102.118182
2537.117310	103.895105
2538.581883	100.317483
2540.042967	93.118182
2541.505402	90.695804
2542.967573	95.467832
2544.426257	99.528671
2545.889514	100.630070
2547.347674	106.044755
2548.807183	105.141259
2550.261599	103.377622
2551.720585	107.574126
2553.177698	108.559441
2554.632941	106.492308
2556.087923	101.177622
2557.541035	99.968531
2558.995496	100.230769
2560.448088	103.357343
2561.900420	106.804196
2563.350884	108.947552
2564.804304	112.144755
2566.252642	110.516783
2567.703936	109.002797
2569.153363	110.526573
2570.599319	110.887413
2572.048229	109.477622
2573.493668	109.871329
2574.940456	109.542657
2576.385380	105.855944
2577.830047	102.501399
2579.276061	102.050350
2580.718608	108.234266
2582.162503	105.539860
2583.602933	107.969231
2585.044711	106.365734
2586.484629	112.582517
2587.925894	112.973427
2589.363697	117.412587
2590.804450	118.606294
2592.240140	121.858741
2593.678780	119.262937
2595.115563	120.730070
2596.550489	118.348951
2597.988364	123.801399
2599.421181	116.309091
2600.855345	117.339161
2602.287654	114.831469
2603.721310	113.398601
2605.153113	106.980420
2606.584663	107.212587
2608.015959	106.234965
2609.445404	109.551049
2610.874596	105.065035
2612.301937	109.181818
2613.730625	105.279720
2615.159060	108.100000
2616.584049	104.059441
2618.010383	106.711888
2619.434869	107.134965
2620.860701	108.683916
2622.283089	108.392308
2623.706823	106.824476
2625.128711	105.634266
2626.550348	106.250350
2627.970140	105.342657
2629.391278	103.824476
2630.812166	99.898601
2632.229616	101.539161
2633.650005	100.040559
2635.066957	102.700000
2636.483661	106.461538
2637.900116	111.436364
2639.316323	113.744755
2640.732281	110.971329
2642.146399	109.278322
2643.560270	113.241259
2644.972301	112.631469
2646.385677	104.786713
2647.795623	104.956643
2649.208505	108.414685
2650.617958	104.014685
2652.027165	102.213986
2653.434536	103.181818
2654.844841	106.300000
2656.253310	109.674126
2657.659944	111.683916
2659.066333	111.486713
2660.470888	115.365734
2661.876787	113.834965
2663.280853	114.755245
2664.684675	120.902098
2666.088252	126.003497
2667.489997	123.909091
2668.893086	125.157343
2670.292758	124.284615
2671.693773	127.479720
2673.091371	126.515385
2674.491900	127.881818
2675.889014	123.227273
2677.287471	118.180420
2678.684100	115.627972
2680.080488	114.607692
2681.476633	113.793706
2682.870952	113.817483
2684.266614	115.023776
2685.658866	117.737762
2687.052462	115.343357
2688.444233	116.729371
2689.837346	116.092308
2691.228636	123.004196
2692.618103	123.944755
2694.007331	128.030070
2695.396318	129.353846
2696.786648	126.721678
2698.171993	121.985315
2699.560263	119.377622
2700.946712	114.796503
2702.332922	110.614685
2703.718893	104.663636
2705.101466	100.912587
2706.485380	100.881119
2707.869057	104.072727
2709.252496	106.966434
2710.632539	113.666434
2712.013924	110.197203
2713.393493	109.914685
2714.774404	110.464336
2716.153500	114.435664
2717.530781	112.583916
2718.909404	114.791608
2720.286214	113.067133
2721.662788	112.311888
2723.039126	111.077622
2724.413652	108.251748
2725.789519	106.218881
2727.161999	103.482517
2728.537396	98.298601
2729.907831	99.953147
2731.279608	100.216783
2732.651151	101.414685
2734.020885	97.281119
2735.391959	101.037063
2736.761226	99.969231
2738.130259	103.640559
2739.497485	104.639161
2740.864479	107.702098
2742.231240	106.983916
2743.597768	107.936364
2744.962492	108.731469
2746.326983	107.537063
2747.691242	102.064336
2749.055270	96.147552
2750.419065	92.832168
2751.779487	93.394406
2753.142820	92.744056
2754.501210	92.410490
2755.862510	89.521678
2757.220439	95.521678
2758.581278	92.995804
2759.940316	96.939161
2761.295986	100.558741
2762.654565	102.070629
2764.009776	100.103497
2765.364758	101.409790
2766.717943	103.201399
2768.074035	103.076224
2769.426763	103.393007
2770.779262	102.448252
2772.131533	97.110490
2773.485143	98.776224
2774.835391	92.239860
2776.183846	90.553846
2777.535205	85.591608
2778.883205	85.314685
2780.232544	78.123776
2781.580090	81.918182
2782.927409	83.183217
2784.274502	84.872727
2785.619804	83.788112
2786.964880	85.361538
2788.309730	81.595804
2789.654354	85.696503
2790.995625	84.163636
2792.338235	84.820979
2793.680620	83.206993
2795.022779	87.019580
2796.361589	87.148252
2797.703299	90.050350
2799.041660	88.733566
2800.381359	88.160839
2801.719272	87.857343
2803.055401	86.327972
2804.391307	85.606294
2805.728549	88.765734
2807.064008	86.427273
2808.399244	89.348252
2809.732698	86.170629
2811.067488	91.530070
2812.398937	95.269231
2813.733282	92.489510
2815.062729	93.465035
2816.393513	98.967832
2817.724075	103.053846
2819.052858	103.848951
2820.382978	102.942657
2821.711318	101.866434
2823.039438	95.334965
2824.365781	94.969930
2825.693459	91.118182
2827.017805	93.288811
2828.343486	90.135664
2829.667393	89.997902
2830.991079	90.288811
2832.316101	92.147552
2833.637794	92.904895
2834.959267	98.823776
2836.280522	95.444056
2837.601558	95.509091
2838.920822	93.672727
2840.241421	91.962238
2841.560248	86.346853
2842.878857	81.845455
2844.195696	81.130070
2845.512317	86.941259
2846.828720	85.471329
2848.143355	85.611189
2849.459324	88.874825
2850.771973	93.976923
2852.085958	90.720280
2853.399726	88.718881
2854.713277	81.814685
2856.025061	80.554545
2857.335080	79.139860
2858.646433	77.648252
2859.954470	80.590909
2861.263843	89.110490
2862.573000	92.937063
2863.881942	95.479720
2865.189121	100.656643
2866.494536	105.242657
2867.801286	105.409091
2869.106273	102.061538
2870.411047	99.230070
2871.714059	104.358042
2873.019953	101.262238
2874.320992	97.206294
2875.623364	92.710490
2876.923977	91.428671
2878.225924	85.565035
2879.527658	81.976224
2880.826088	85.751748
2882.125851	89.579021
2883.423857	87.038462
2884.721651	85.433566
2886.017688	89.129371
2887.315059	90.936364
2888.610674	93.628671
2889.906079	93.225874
2891.201272	88.419580
2892.493167	85.935664
2893.787939	85.307692
2895.079415	86.753846
2896.372223	87.125874
2897.664821	87.939860
2898.954124	83.060839
2900.244760	80.471329
2901.533646	82.071329
2902.823863	81.351748
2904.110789	83.950350
2905.399047	79.681818
2906.685556	75.325874
2907.971856	74.785315
2909.257948	77.202098
2910.542292	82.565734
2911.829508	81.952448
2913.111897	89.468531
2914.395618	85.220979
2915.677592	86.206294
2916.959360	87.064336
2918.239382	91.266434
2919.522274	90.597203
2920.803421	88.248951
2922.081286	90.089510
2923.362020	92.835664
2924.639473	95.988112
2925.916721	100.481818
2927.192226	95.055944
2928.470599	95.736364
2929.744157	85.818881
2931.020583	87.618881
2932.295268	86.100699
2933.568213	90.117483
2934.842488	87.707692
2936.115024	87.039860
2937.387356	89.283217
2938.656415	90.184615
2939.928339	91.353846
2941.198525	93.881119
2942.468507	88.379021
2943.738286	87.681119
2945.006328	85.153147
2946.272635	89.516084
2947.538739	86.675524
2948.806174	91.171329
2950.071873	88.379021
2951.337370	88.625175
2952.602665	87.057343
2953.864696	86.241958
2955.128056	83.370629
2956.391215	86.265035
2957.652641	78.887413
2958.915397	78.923077
2960.176422	76.854545
2961.435716	80.820979
2962.694809	75.251748
2963.953702	81.011189
2965.212395	79.050350
2966.470888	78.656643
2967.727652	74.373427
2968.984217	74.553846
2970.239053	75.599301
2971.495219	80.853846
2972.748129	82.920280
2974.002369	86.181119
2975.256410	86.300000
2976.508725	89.188112
2977.760842	82.490210
2979.011234	86.416084
2980.264481	82.069930
2981.512951	81.929371
2982.764275	81.974126
2984.012351	83.130070
2985.260229	83.976224
2986.507910	87.369930
2987.755395	87.783217
2989.001158	82.594406
2990.246724	79.905594
2991.493619	82.118182
2992.737268	77.160140
2993.982246	80.310490
2995.223981	77.230070
2996.468567	78.874825
2997.711434	73.108392
2998.951059	71.086713
3000.193536	70.253846
3001.432772	74.469231
3002.673336	71.683217
3003.912183	74.246154
3005.150836	76.665035
3006.387773	82.197902
3007.626037	79.646154
3008.862587	85.539161
3010.098943	83.326573
3011.335105	88.537762
3012.569553	86.206993
3013.803808	85.876224
3015.037870	81.891608
3016.270220	81.677622
3017.500858	78.203497
3018.734342	77.986014
3019.966115	74.334266
3021.196176	74.018182
3022.426046	73.038462
3023.654206	78.565734
3024.883693	79.114685
3026.111470	86.815385
3027.339056	87.732168
3028.567968	88.098601
3029.792138	85.460140
3031.019151	87.419580
3032.242941	85.074825
3033.468056	86.004895
3034.691465	85.484615
3035.914685	90.343357
3037.136199	90.755944
3038.360554	92.963636
3039.580174	86.816783
3040.801120	91.286014
3042.021876	88.452448
3043.240929	86.632168
3044.461308	79.459441
3045.678470	79.370629
3046.896957	73.444755
3048.113743	76.170629
3049.330340	76.615385
3050.546750	78.541259
3051.759946	73.127972
3052.975980	73.500699
3054.188802	73.767133
3055.404461	80.218182
3056.615397	76.653846
3057.827659	79.092308
3059.039733	76.511189
3060.251621	79.500699
3061.461811	77.233566
3062.671816	77.766434
3063.881634	75.862238
3065.089756	77.546154
3066.297692	76.258741
3067.503934	79.777622
3068.711500	83.190210
3069.917371	85.657343
3071.123057	86.358741
3072.328559	87.455245
3073.532367	80.389510
3074.737499	82.122378
3075.940938	80.188112
3077.142685	77.100699
3078.344249	79.243357
3079.545629	82.708392
3080.746825	78.965035
3081.946331	77.823776
3083.145653	78.064336
3084.346299	81.928671
3085.545256	79.584615
3086.741017	81.390210
3087.939608	78.148951
3089.135005	83.490210
3090.331726	82.697902
3091.525254	87.932168
3092.721610	87.970629
3093.916279	87.435664
3095.107758	83.757343
3096.303568	84.290909
3097.494685	83.276224
3098.687125	81.383916
3099.876376	79.316783
3101.068454	81.700699
3102.258848	83.404196
3103.446055	87.451049
3104.634586	84.195105
3105.824439	88.116783
3107.011107	81.053147
3108.197596	84.451049
3109.383905	80.549650
3110.571537	79.902797
3111.755986	75.779720
3112.938755	72.856643
3114.124348	73.261538
3115.308260	75.076923
3116.490494	77.838462
3117.672550	75.789510
3118.854427	70.984615
3120.036126	72.667133
3121.216148	69.413287
3122.394492	73.884615
3123.575658	70.965734
3124.753648	70.919580
3125.931461	73.029371
3127.109097	75.000000
3128.285058	71.744056
3129.460843	76.343357
3130.637948	75.229371
3131.813380	75.539860
3132.987138	75.714685
3134.159223	75.862238
3135.332629	76.674126
3136.505860	78.391608
3137.677418	78.630070
3138.850298	78.783217
3140.020010	81.892308
3141.191043	79.644755
3142.360405	72.199301
3143.528098	74.408392
3144.698606	72.537762
3145.864455	72.572028
3147.034614	67.495804
3148.200115	67.577622
3149.365443	68.802797
3150.530597	68.992308
3151.695578	70.896503
3152.861878	73.405594
3154.023525	77.237762
3155.186493	77.128671
3156.349287	75.638462
3157.511909	81.541958
3158.672866	82.339860
3159.833650	82.566434
3160.994263	78.686014
3162.153211	78.449650
3163.311987	76.709790
3164.470592	75.369930
3165.629025	73.301399
3166.787286	75.092308
3167.943885	76.317483
3169.098823	73.670629
3170.255080	71.012587
3171.409677	73.137063
3172.564102	70.297902
3173.716868	70.570629
3174.869464	71.265035
3176.021890	71.281818
3177.174145	72.123776
3178.326231	71.027273
3179.475170	71.791608
3180.626916	73.597902
3181.777005	75.647552
3182.925436	70.613986
3184.073699	68.537762
3185.221793	69.124476
3186.369717	69.161538
3187.515987	70.268531
3188.662088	73.697902
3189.806535	76.016084
3190.950813	77.753147
3192.094924	77.724476
3193.240353	79.076923
3194.382643	77.838462
3195.524765	79.372727
3196.666721	77.834266
3197.808509	77.026573
3198.950130	76.856643
3200.088615	74.243357
3201.228419	73.135664
3202.369539	78.029371
3203.507525	79.806294
3204.643862	76.579021
3205.780033	75.178322
3206.917522	69.647552
3208.053362	68.652448
3209.190518	71.883217
3210.323063	72.004895
3211.459888	70.861538
3212.592102	71.102098
3213.725634	67.062238
3214.859000	68.137762
3215.989239	67.261538
3217.122277	67.389510
3218.252187	64.489510
3219.383415	64.686014
3220.511517	62.213986
3221.642417	66.321678
3222.771672	67.099301
3223.899283	64.306993
3225.023773	61.165035
3226.152538	60.389510
3227.278181	55.167832
3228.403661	57.541259
3229.527500	58.495804
3230.654134	68.864336
3231.776169	66.991608
3232.899521	69.913287
3234.022711	71.087413
3235.145739	74.786014
3236.267127	75.015385
3237.388354	73.222378
3238.507942	70.940559
3239.627369	72.213986
3240.745159	68.392308
3241.865740	70.014685
3242.983208	69.043357
3244.100515	70.394406
3245.217661	61.332867
3246.333172	60.459441
3247.449998	55.288112
3248.563713	56.864336
3249.680219	56.830070
3250.795089	56.633566
3251.906851	61.384615
3253.018454	65.479021
3254.131372	62.301399
3255.244130	66.929371
3256.353782	66.940559
3257.464749	70.551049
3258.575557	70.636364
3259.684733	72.267832
3260.792278	69.670629
3261.901138	73.071329
3263.009839	71.260140
3264.115438	71.709790
3265.222352	71.250350
3266.327636	73.901399
3267.434234	71.003497
3268.537732	68.746853
3269.642544	67.902098
3270.747199	64.818182
3271.848756	62.940559
3272.950156	63.088811
3274.052870	59.817483
3275.155427	65.842657
3276.254889	67.004895
3277.357133	69.518182
3278.456283	68.913287
3279.553807	76.076923
3280.651176	75.048252
3281.751328	70.641958
3282.848386	73.271329
3283.945290	64.939161
3285.042038	63.542657
3286.134227	63.330769
3287.230666	57.972028
3288.325482	64.824476
3289.420143	64.481818
3290.513183	67.258741
3291.606069	70.684615
3292.697334	71.568531
3293.789912	73.883916
3294.880870	75.342657
3295.970208	76.334266
3297.059393	75.723077
3298.149890	76.723077
3299.237303	77.976923
3300.324564	75.905594
3301.413137	74.038462
3302.501557	67.769231
3303.585430	68.341259
3304.673545	69.055245
3305.758579	66.663636
3306.841997	67.442657
3307.926727	66.730769
3309.009841	62.172727
3310.094267	65.261538
3311.175615	63.791608
3312.258275	65.716084
3313.339321	64.853846
3314.420216	62.325175
3315.499498	63.993706
3316.578629	67.102797
3317.659072	71.200699
3318.736440	74.862937
3319.815120	74.246154
3320.892188	73.993706
3321.969106	71.504196
3323.044414	71.135664
3324.119572	65.587413
3325.196041	66.269930
3326.269439	64.318881
3327.342689	64.980420
3328.417250	66.274825
3329.490201	67.216783
3330.561545	70.160839
3331.634199	70.529371
3332.703786	64.846853
3333.774684	62.212587
3334.843975	58.225175
3335.914577	59.085315
3336.983572	58.450350
3338.050961	62.384615
3339.116745	58.544056
3340.186755	62.315385
3341.253702	66.037063
3342.317587	69.623776
3343.384240	67.088112
3344.449289	62.231469
3345.512734	55.739860
3346.576032	53.237063
3347.639185	50.251748
3348.702191	54.062937
3349.765050	52.220280
3350.826308	53.898601
3351.884509	51.254545
3352.946931	56.943357
3354.006296	59.971329
3355.065517	64.083217
3356.126046	64.525874
3357.182066	68.618881
3358.240851	67.872727
3359.295128	68.048951
3360.352169	68.435664
3361.407611	69.845455
3362.464362	70.862238
3363.519516	72.441958
3364.573072	74.448951
3365.625031	70.614685
3366.679752	68.601399
3367.731425	67.831469
3368.782953	64.989510
3369.835791	62.420979
3370.885581	57.609790
3371.936680	53.979720
3372.984732	50.839860
3374.035545	50.634965
3375.083312	51.334965
3376.130937	55.175524
3377.178420	59.866434
3378.224309	55.328671
3379.271508	59.606993
3380.315663	61.789510
3381.362577	64.711888
3382.407899	69.084615
3383.450181	68.343357
3384.492321	69.931469
3385.535770	67.882517
3386.579077	68.019580
3387.620794	63.588811
3388.662370	64.532168
3389.703806	62.404895
3390.743653	60.215385
3391.781911	61.423077
3392.821477	61.771329
3393.860903	62.955245
3394.898741	64.807692
3395.934992	63.889510
3396.971103	70.326573
3398.008522	68.333566
3399.042908	70.406294
3400.078602	72.966434
3401.114156	74.085315
3402.146678	71.704895
3403.181954	72.568531
3404.214199	67.477622
3405.246306	61.137063
3406.276829	55.846853
3407.308660	53.112587
3408.340352	52.093706
3409.369016	52.318881
3410.397542	52.860839
3411.427376	57.381818
3412.457072	61.801399
3413.483741	65.852448
3414.511718	66.631469
3415.536670	69.866434
3416.564372	66.203497
3417.589051	67.679021
3418.615036	70.507692
3419.639442	74.349650
3420.663710	75.165734
3421.686400	75.351049
3422.708955	75.872727
3423.732814	71.832168
3424.753654	64.825175
3425.774359	58.797902
3426.796369	54.347028
3427.815361	52.665734
3428.834218	54.947203
3429.854381	62.384615
3430.871526	76.171154
