-118.385087	23.993269
-115.715486	24.040659
-113.048821	24.179496
-110.382909	24.319830
-107.719928	24.371716
-105.055517	24.245205
-102.394037	23.850350
-99.731128	22.640559
-97.073326	20.336014
-94.414093	19.483566
-91.755609	18.374126
-89.100050	17.456643
-86.443062	17.225524
-83.791171	15.823077
-81.137851	16.449650
-78.487451	18.713986
-75.835621	19.354196
-73.188882	21.076224
-70.540713	20.908392
-67.893288	22.739161
-65.248776	24.436364
-62.602835	26.668881
-59.961977	27.297552
-57.319688	31.991608
-54.680309	32.691259
-52.039501	34.398951
-49.399432	41.559441
-46.764437	45.547902
-44.128012	49.640210
-41.494491	54.591958
-38.859540	60.847203
-36.229656	69.384965
-33.596178	76.901049
-30.967763	79.743007
-28.340082	84.209441
-25.710973	52.227273
-23.086920	-137.173077
-20.459278	-1024.838811
-17.836689	-3637.546154
-15.214831	-2905.601399
-12.593704	2322.868881
-9.973308	13354.753497
-7.355799	22994.067483
-4.736862	29798.480070
-2.120811	33705.569930
0.494512	34700.079720
3.109108	32796.905245
5.720822	28012.855944
8.333963	20476.529720
10.942071	10658.608392
13.553761	574.643706
16.160420	-4048.399650
18.768507	-4027.777972
21.375870	-555.141958
23.978208	78.243706
26.584124	87.039161
29.185019	77.571678
31.787341	67.565385
34.384645	59.620629
36.985525	53.700000
39.581391	49.901049
42.178684	43.217133
44.775258	39.537413
47.366823	37.859790
49.959816	34.520280
52.549948	33.229371
55.141508	33.707692
57.730208	33.245105
60.320336	32.448601
62.905464	34.022378
65.492020	35.611189
68.077861	37.317832
70.660849	35.856643
73.245264	32.530769
75.822549	32.298601
78.403401	32.830420
80.981404	31.321329
83.558697	30.859091
86.137416	30.397203
88.711154	28.455245
91.286318	27.291608
93.858639	28.277273
96.430253	28.892657
98.999026	29.522378
101.569226	29.886014
104.136587	33.661538
106.705375	35.448252
109.271325	37.915734
111.834441	40.893706
114.401114	41.820629
116.958564	44.362937
119.521700	51.806993
122.079877	64.938462
124.641607	93.216084
127.198382	143.161189
129.756582	215.987413
132.309830	309.238462
134.862379	420.429021
137.418480	538.565734
139.969632	654.715734
142.520086	768.745455
145.069844	866.563986
147.616782	937.625175
150.163024	986.258392
152.710693	1009.466434
155.257665	1017.079720
157.799701	1015.979720
160.341044	1007.007343
162.881695	994.938811
165.423770	984.684965
167.963035	974.391958
170.499490	965.256294
173.035255	964.408392
175.572445	963.740559
178.108943	958.675524
180.642636	961.388112
183.173526	959.209091
185.703727	958.470629
188.235353	957.548601
190.764179	958.427273
193.290205	961.046503
195.815545	962.633217
198.342310	962.821678
200.866279	961.035315
203.389562	958.121678
205.912161	956.926224
208.431967	955.079021
210.951090	954.745455
213.469530	954.544755
215.989394	956.921329
218.502257	962.106993
221.018651	967.256294
223.534364	973.687063
226.045186	979.016783
228.557433	984.388811
231.066897	987.474476
233.575683	992.454545
236.083791	999.081818
238.593323	1001.836713
241.097974	1006.564336
243.601949	1014.280420
246.107348	1018.010490
248.607872	1022.937762
251.111919	1024.979720
253.608996	1027.256294
256.109595	1032.011888
258.607423	1037.713287
261.104578	1043.664685
263.601060	1051.279021
266.092680	1058.394406
268.587818	1061.926573
271.080191	1065.979371
273.571893	1071.347902
276.060832	1078.750000
278.551194	1082.061888
281.038795	1085.953147
283.523636	1090.663636
286.011991	1098.065035
288.493408	1103.151399
290.978338	1108.019580
293.458422	1110.296853
295.942019	1113.726573
298.420774	1113.854196
300.900951	1116.638112
303.378377	1123.062587
305.855139	1141.725874
308.331237	1175.547552
310.804587	1244.231469
313.277276	1322.097552
315.749303	1394.111888
318.220668	1445.782867
320.689290	1476.062238
323.157252	1478.769231
325.626637	1462.840210
328.091199	1419.539161
330.559264	1364.710839
333.022510	1304.963986
335.485099	1254.996154
337.947030	1226.568531
340.408305	1225.182168
342.866846	1228.116783
345.326809	1231.240559
347.784040	1230.978322
350.240616	1231.209441
352.696537	1229.740559
355.149730	1230.437063
357.604345	1231.626573
360.054158	1234.982867
362.507467	1235.236364
364.955977	1232.798252
367.403837	1228.211189
369.853118	1227.749650
372.297606	1227.669930
374.743516	1224.593357
377.188777	1224.896154
379.631319	1225.476224
382.073213	1223.168881
384.514459	1223.029720
386.952990	1225.015734
389.392943	1222.895455
391.830182	1218.097203
394.264709	1218.809790
396.702724	1217.856643
399.135962	1220.600699
401.570622	1224.494406
404.000509	1228.115734
406.433881	1233.716434
408.862482	1235.888811
411.290443	1236.665734
413.719824	1237.080769
416.144441	1236.966084
418.570478	1238.587063
420.995876	1238.484615
423.420633	1243.218182
425.840631	1244.195804
428.262051	1249.370280
430.680774	1253.316084
433.100918	1255.890909
435.518367	1254.808741
437.937236	1251.553147
440.353412	1252.823077
442.764841	1250.331469
445.179746	1248.827273
447.591961	1246.031818
450.003542	1241.363636
452.414489	1239.166434
454.822750	1230.801049
457.230379	1223.375874
459.637375	1214.274126
462.043739	1203.613986
464.447422	1188.620979
466.850474	1176.513287
469.252896	1169.122378
471.654688	1163.029021
474.053802	1160.848951
476.454336	1161.968881
478.854241	1169.030769
481.249423	1175.633916
483.648072	1175.192657
486.042001	1171.523776
488.435304	1161.214336
490.827981	1140.006993
493.220033	1109.836713
495.613504	1074.256294
498.002262	1034.729720
500.388354	997.698252
502.775866	958.470280
505.162754	918.416084
507.546979	880.798951
509.932623	849.382168
512.315604	819.419231
514.695925	792.619231
517.077665	768.339161
519.456746	748.468531
521.837246	730.948601
524.215088	713.622028
526.590275	699.716434
528.964844	693.175874
531.340832	683.392308
533.714166	669.571678
536.088919	660.529720
538.458985	654.605594
540.828436	646.068182
543.199306	641.894755
545.565494	635.900699
547.933101	632.525175
550.298062	627.700699
552.662410	622.174825
555.026146	620.199650
557.391299	619.682867
559.751780	614.757692
562.113678	609.339860
564.472937	606.202797
566.829557	600.865035
569.189623	596.243357
571.542997	590.873077
573.899816	586.425524
576.254000	582.587063
578.607575	578.907692
580.960542	575.909790
583.310878	573.851748
585.662630	571.076224
588.007706	569.935315
590.358246	569.569930
592.702113	568.483566
595.051441	568.563636
597.396120	566.746503
599.738175	566.159790
602.081647	564.725874
604.422496	563.331469
606.762742	560.854545
609.100368	556.393357
611.441429	550.381818
613.777853	545.592657
616.115693	538.641958
618.450915	530.605944
620.783522	524.601748
623.117546	518.268182
625.448955	512.904196
627.779766	510.084266
630.109979	507.215385
632.439595	508.211538
634.764587	506.351748
637.095021	503.581119
639.420833	500.053147
641.744039	498.974126
644.068661	494.034266
646.390677	488.519231
648.712099	483.897203
651.030918	478.965734
653.351153	476.127622
655.670795	472.593357
657.987836	470.572727
660.304286	468.482168
662.618137	465.989161
664.933403	465.139510
667.246073	461.105594
669.560158	459.856294
671.869644	456.677273
674.180544	452.514336
676.488852	448.552448
678.796572	449.632168
681.105707	448.467832
683.410249	446.645804
685.714205	443.625874
688.017574	439.344755
690.322358	437.121678
692.622556	437.100699
694.924169	432.082168
697.225196	430.667483
699.521642	427.257692
701.819502	425.795804
704.116780	422.136713
706.413473	423.696853
708.705591	421.814336
711.001120	418.801399
713.292076	417.004545
715.584446	414.882867
717.874240	418.244755
720.163455	422.432168
722.452089	425.205245
724.738152	427.718531
727.025628	431.341958
729.310534	437.138112
731.594861	438.966434
733.876621	442.390559
736.159794	442.542308
738.442390	441.073427
740.720430	443.041958
742.999884	440.776923
745.278763	440.963636
747.557066	442.456993
749.830820	441.153147
752.105988	442.784965
754.380582	445.230420
756.652617	448.093706
758.926065	449.100000
761.196955	449.728322
763.465288	450.468182
765.735036	454.657343
768.002228	462.254895
770.268850	466.381469
772.534903	473.656294
774.798404	481.496853
777.063317	487.430420
779.327662	491.736364
781.587476	492.033566
783.848704	489.782867
786.109364	490.338112
788.367477	488.120280
790.623046	484.660839
792.882006	482.673077
795.134467	482.078671
797.392295	481.968881
799.645604	489.363287
801.896372	488.970280
804.148553	489.468182
806.398196	480.526573
808.649250	474.414685
810.895793	468.797902
813.143749	467.876224
815.389169	459.347552
817.636002	453.438112
819.882272	448.953147
822.124039	443.112587
824.369188	442.383916
826.607865	443.177273
828.849925	436.974476
831.087486	432.348252
833.326458	432.969930
835.562904	431.767133
837.800762	426.380420
840.036094	419.581818
842.268902	414.131469
844.503122	411.571329
846.734820	413.420629
848.965963	408.424126
851.196551	405.309790
853.426585	397.286364
855.656064	390.736014
857.881063	386.062937
860.109435	392.582867
862.333329	384.717133
864.558633	379.053147
866.779462	379.885315
869.003663	386.237063
871.223391	392.887762
873.444530	402.572378
875.665118	407.775524
877.883197	412.961189
880.102685	414.531119
882.317707	422.240909
884.532181	426.895804
886.746108	428.125874
888.959487	426.212937
891.172320	429.203497
893.384605	432.331818
895.594389	434.820629
897.803627	428.932168
900.012319	424.121678
902.218513	420.763287
904.426116	417.544056
906.631222	413.179371
908.835784	416.725175
911.037851	413.001748
913.241327	410.784615
915.442309	410.448252
917.642749	409.586364
919.844598	402.057343
922.040056	404.724126
924.238872	398.362587
926.433251	395.252448
928.630987	394.428322
930.824287	403.615035
933.018995	405.526573
935.211218	422.492657
937.402903	425.059790
939.594050	428.752448
941.782714	431.500000
943.970841	437.649650
946.156488	436.697552
948.345487	448.978671
950.530063	445.926224
952.714104	450.300699
954.901495	459.737063
957.080583	469.650000
959.263020	474.269231
961.444924	474.522028
963.624354	477.164685
965.801311	483.515385
967.979676	505.014336
970.159447	522.201748
972.332870	533.586364
974.509639	544.630769
976.682002	560.539510
978.855771	576.898601
981.025138	590.238112
983.197848	596.988811
985.368092	585.908042
987.537808	577.676224
989.706995	589.876923
991.871785	598.517133
994.039917	611.033566
996.203653	613.682168
998.368797	623.259441
1000.531481	646.901049
1002.693640	665.296503
1004.853341	670.474825
1007.012519	680.826224
1009.173103	660.504545
1011.331232	660.782168
1013.488837	653.451748
1015.645919	638.511538
1017.802478	626.887413
1019.954657	606.693007
1022.108243	608.159091
1024.261306	602.696154
1026.411922	610.667483
1028.563943	598.750350
1030.711591	589.597552
1032.862571	566.111189
1035.009181	531.468182
1037.155271	526.222727
1039.300843	477.120280
1041.447819	437.176573
1043.588508	407.045804
1045.732525	382.546853
1047.874103	372.278671
1050.015163	356.150350
1052.157628	373.353147
1054.293814	387.197552
1056.433326	411.145804
1058.568482	411.020979
1060.706963	409.277273
1062.841091	429.985664
1064.974705	430.206643
1067.109723	443.710140
1069.240392	454.639860
1071.372467	461.844056
1073.502111	476.005944
1075.631244	485.631469
1077.759866	525.246853
1079.887976	562.507692
1082.013660	597.088462
1084.138834	613.987063
1086.265411	624.540559
1088.387652	647.981469
1090.511297	649.969231
1092.630607	673.263986
1094.755146	681.932168
1096.873441	685.066434
1098.993139	676.360140
1101.110419	674.609441
1103.227193	675.291259
1105.343460	679.917832
1107.457312	674.725874
1109.572567	652.415734
1111.683500	636.500350
1113.797744	631.413636
1115.907669	612.708042
1118.018996	621.886713
1120.129820	604.587413
1122.236327	595.234615
1124.346143	585.993706
1126.451645	592.472028
1128.558551	566.006643
1130.659240	564.697203
1132.765142	538.884615
1134.866735	517.724126
1136.969731	524.717133
1139.072226	533.746853
1141.168515	514.705944
1143.270010	522.729021
1145.367203	504.866783
1147.463897	516.227972
1149.560094	526.750699
1151.655792	529.975524
1153.750993	531.701049
1155.843797	529.736014
1157.938003	524.666434
1160.026018	524.413287
1162.119231	521.258042
1164.206256	528.143357
1166.296581	518.992657
1168.382617	525.710140
1170.471951	521.400000
1172.555104	531.538112
1174.639660	527.899301
1176.725616	525.321329
1178.807291	522.561538
1180.890368	506.502448
1182.971059	497.003846
1185.051259	473.983566
1187.130967	466.686014
1189.210183	466.059091
1191.287018	454.492657
1193.361472	461.014685
1195.439218	462.639860
1197.512693	471.081818
1199.587570	466.070280
1201.658179	464.967483
1203.730189	463.088112
1205.799823	469.132168
1207.870858	461.875175
1209.941405	454.678671
1212.007691	458.703846
1214.075378	459.342657
1216.140693	462.686713
1218.207408	464.270979
1220.269867	458.941608
1222.335612	456.398601
1224.397102	441.595455
1226.459992	429.664336
1228.520515	426.610490
1230.580555	424.609091
1232.640111	413.633217
1234.697303	409.722028
1236.754012	410.263636
1238.808359	418.027622
1240.865986	419.085664
1242.921251	413.909091
1244.972275	407.241608
1247.024699	403.870629
1249.076644	402.490909
1251.126230	394.855245
1253.175337	405.783217
1255.223965	413.119580
1257.272115	419.051399
1259.319787	419.388811
1261.363228	412.906643
1263.409944	407.360490
1265.454308	402.919930
1267.498194	387.882168
1269.539730	370.766434
1271.578916	359.527273
1273.621374	351.649650
1275.659611	346.404196
1277.699245	339.882867
1279.738405	339.651049
1281.773347	350.658042
1283.809687	351.030420
1285.843682	350.497203
1287.879076	350.736713
1289.910256	362.332867
1291.942835	357.330769
1293.974941	362.456643
1296.004707	366.485315
1298.035871	370.220979
1300.062827	375.743706
1302.091181	376.798252
1304.115331	388.377273
1306.142746	404.647902
1308.165958	410.053497
1310.190568	399.337413
1312.212843	393.597552
1314.236516	393.164685
1316.257856	384.708392
1318.278729	380.181469
1320.299134	365.979371
1322.315345	359.185664
1324.332955	356.796853
1326.348236	362.032867
1328.366776	357.905245
1330.381126	366.905594
1332.393151	368.653846
1334.408434	357.947203
1336.419531	352.775175
1338.432024	358.788462
1340.440335	356.429720
1342.451902	348.539161
1344.457430	339.869231
1346.466212	343.214336
1348.470818	340.217483
1350.478677	344.569930
1352.486073	351.878671
1354.487439	362.105594
1356.490202	361.578671
1358.492505	360.730769
1360.494347	367.427972
1362.495731	383.355245
1364.494800	382.462587
1366.493411	383.767483
1368.491564	381.479371
1370.489259	375.221329
1372.482790	362.780070
1374.477718	365.909441
1376.472189	361.777972
1378.466203	347.360140
1380.457910	340.499301
1382.449161	337.481469
1384.438107	347.152098
1386.428448	350.414336
1388.418334	343.895804
1390.405917	352.502797
1392.393046	355.759091
1394.377873	357.355944
1396.364095	359.643007
1398.348016	361.125874
1400.331485	356.935664
1402.314502	354.731818
1404.295221	355.812238
1406.277334	353.252797
1408.257150	352.142657
1410.236516	344.962587
1412.211743	335.700000
1414.190208	340.714685
1416.166380	351.346503
1418.142102	349.963636
1420.117375	352.631818
1422.090357	349.897552
1424.062892	355.361538
1426.034978	364.192308
1428.006616	362.812587
1429.974127	365.559091
1431.946711	363.108392
1433.911489	361.570979
1435.881340	362.605944
1437.847066	362.732168
1439.814186	372.513986
1441.779022	369.984266
1443.739738	372.532517
1445.705522	374.703497
1447.665351	376.946154
1449.626573	379.877273
1451.589188	372.569930
1453.547688	379.899301
1455.505746	374.701399
1457.463361	381.352448
1459.420535	380.013636
1461.375433	378.343357
1463.331723	379.872727
1465.285739	382.560839
1467.239315	382.935315
1469.190618	390.062587
1471.143313	393.290210
1473.093737	389.379371
1475.043722	386.991958
1476.993267	388.478671
1478.940544	379.694755
1480.885554	383.836364
1482.831956	382.386014
1484.777920	388.897902
1486.723446	397.386713
1488.666708	406.448951
1490.609533	410.142657
1492.550095	427.634965
1494.492048	434.274476
1496.431740	436.624476
1498.370996	431.283916
1500.309818	418.081119
1502.246380	413.524476
1504.184332	417.616783
1506.120027	418.019930
1508.055288	426.149301
1509.988292	435.627273
1511.920864	442.855594
1513.853004	448.538811
1515.784712	459.739161
1517.714167	464.780769
1519.645011	458.102448
1521.575425	450.601049
1523.501766	448.350699
1525.429497	452.425874
1527.354978	459.260490
1529.280030	456.220629
1531.204653	461.779021
1533.128847	468.977972
1535.050794	479.469231
1536.974130	483.518182
1538.895221	494.664336
1540.814067	496.517133
1542.734303	509.275874
1544.652295	536.910140
1546.569861	578.053147
1548.485185	617.751049
1550.401899	656.830420
1552.314558	688.791259
1554.230421	730.043357
1556.144045	773.805245
1558.055430	821.850350
1559.968204	885.454895
1561.876929	985.637063
1563.787044	1112.809091
1565.696735	1326.427273
1567.606002	1632.848252
1569.513036	2091.083916
1571.417837	2675.449301
1573.324027	3314.190210
1575.227985	3914.508042
1577.131523	4372.736014
1579.034639	4622.936014
1580.935527	4627.183566
1582.837803	4395.495804
1584.737850	3956.982168
1586.639286	3355.397203
1588.536687	2706.998951
1590.433671	2110.541958
1592.330236	1638.874825
1594.228188	1307.660839
1596.120306	1099.046154
1598.015618	966.049301
1599.910511	872.145105
1601.803183	797.232168
1603.695439	729.933916
1605.585475	673.011538
1607.475095	629.381469
1609.364300	583.294755
1611.253089	574.216783
1613.139662	563.704196
1615.027621	542.782517
1616.911565	532.354545
1618.796895	529.518881
1620.681812	543.232168
1622.564515	533.376923
1624.448604	528.516084
1626.328683	510.832867
1628.210148	507.920280
1630.089403	496.650000
1631.970044	480.691608
1633.844881	478.864336
1635.724700	452.296503
1637.600513	435.468531
1639.475917	424.707692
1641.352706	384.584266
1643.223698	378.434615
1645.097872	382.160140
1646.968048	394.117133
1648.841404	408.376573
1650.712557	432.362587
1652.581508	440.008741
1654.451845	467.834965
1656.318188	469.380070
1658.185918	464.886364
1660.051448	467.493706
1661.918363	448.715734
1663.781290	406.589510
1665.645602	414.648601
1667.507719	434.949650
1669.369430	420.422727
1671.232526	426.837413
1673.093428	416.377972
1674.952136	430.477622
1676.810441	453.823776
1678.670131	431.409790
1680.524054	424.682168
1682.381149	421.001049
1684.237842	397.668531
1686.090559	368.967832
1687.946447	374.436014
1689.798361	366.753846
1691.649873	354.388811
1693.500986	360.058741
1695.351697	375.245455
1697.202008	400.104196
1699.050135	405.385664
1700.899645	387.896503
1702.743407	398.822727
1704.592119	393.298252
1706.435084	378.276224
1708.281215	364.170280
1710.123385	371.289510
1711.968719	367.541958
1713.808313	365.859441
1715.649291	377.482867
1717.491652	385.306993
1719.330057	392.900350
1721.169845	378.851748
1723.007458	382.912937
1724.844675	385.970979
1726.679719	360.675874
1728.516146	357.862587
1730.350401	363.787413
1732.184262	374.417133
1734.017728	362.162587
1735.847248	349.289161
1737.679927	345.380420
1739.508662	334.191608
1741.340555	330.136364
1743.168505	322.053147
1744.996063	347.981119
1746.823230	350.624825
1748.650004	344.916084
1750.476388	369.000699
1752.298835	379.742657
1754.124436	398.278322
1755.946103	405.815734
1757.769152	401.537413
1759.590040	399.061189
1761.410538	382.434965
1763.232418	379.311538
1765.048598	376.536014
1766.867930	379.540909
1768.683335	381.905245
1770.501891	396.567483
1772.316521	386.463986
1774.130764	378.789510
1775.944621	398.487413
1777.758091	421.273776
1779.569407	423.090210
1781.382105	449.501748
1783.194416	435.362587
1785.002810	446.615385
1786.812585	462.009790
1788.618444	458.009091
1790.427450	468.625524
1792.232542	481.890559
1794.039014	442.508741
1795.845103	427.684266
1797.647282	417.632168
1799.452604	409.203147
1801.254018	401.436364
1803.056812	412.015385
1804.855701	382.636713
1806.655969	397.335315
1808.455857	419.891958
1810.253602	405.267133
1812.050967	412.041608
1813.847951	421.864685
1815.644555	411.258741
1817.439020	404.465734
1819.234865	404.502448
1821.025054	390.517133
1822.820140	391.423427
1824.609573	387.668531
1826.402144	381.921678
1828.192579	386.710140
1829.980879	403.211888
1831.772315	403.349301
1833.558105	406.092308
1835.345275	401.459441
1837.130313	394.293007
1838.918485	390.032168
1840.702771	384.797203
1842.484928	368.028671
1844.268463	363.763287
1846.049871	360.331818
1847.832656	386.707692
1849.611562	407.713636
1851.391846	425.096154
1853.170005	425.513287
1854.949541	421.815035
1856.726953	423.329720
1858.502241	425.346503
1860.278908	437.985664
1862.053452	444.395105
1863.829373	444.719930
1865.599675	436.519580
1867.373104	435.344056
1869.144413	442.477972
1870.915351	436.899650
1872.687666	420.570629
1874.454369	404.036364
1876.224196	404.102098
1877.990160	410.451049
1879.759248	404.456294
1881.524474	426.228671
1883.289332	430.470629
1885.055566	433.209441
1886.817942	431.449301
1888.579951	418.325874
1890.341593	417.238811
1892.102867	412.062937
1893.863775	410.217133
1895.624315	410.727273
1897.382746	423.143357
1899.140812	418.192308
1900.896770	414.446853
1902.654104	412.350350
1904.411072	411.364336
1906.165935	408.629371
1907.918692	404.850000
1909.671086	392.783566
1911.424856	393.915035
1913.176522	392.916434
1914.926085	401.290210
1916.677025	413.925874
1918.427601	421.731469
1920.174339	423.069231
1921.922452	427.431119
1923.668466	419.320280
1925.415856	429.628671
1927.161147	428.528671
1928.904341	426.371678
1930.648911	423.706643
1932.391384	428.451748
1934.133497	422.511538
1935.875251	413.326049
1937.616644	402.993357
1939.355944	403.028147
1941.094885	393.155245
1942.833467	376.341434
1944.569957	368.062937
1946.306090	355.705420
1948.043597	356.940909
1949.777283	351.333392
1951.512343	350.788112
1953.245314	359.652273
1954.977929	350.166783
1956.710187	347.448776
1958.442089	361.028671
1960.171905	372.916084
1961.899637	379.318881
1963.628742	381.007343
1965.357493	385.003846
1967.084160	383.658042
1968.810473	399.526923
1970.538159	406.640210
1972.260309	394.825175
1973.985561	395.376573
1975.707005	390.197552
1977.431549	389.455594
1979.154014	386.726224
1980.872675	382.431119
1982.594435	381.626923
1984.312393	370.387762
1986.031725	371.466434
1987.747256	372.717133
1989.467609	374.569930
1991.184162	378.432168
1992.896920	371.181469
1994.612773	381.403147
1996.326554	390.959441
1998.039984	395.193706
1999.751344	400.109790
2001.464077	417.146154
2003.173018	411.873077
2004.885053	408.188462
2006.591578	409.194406
2008.301196	400.705944
2010.008746	393.285315
2011.715949	389.558392
2013.421086	385.920280
2015.125876	385.650350
2016.832038	377.661538
2018.534418	369.799650
2020.238170	371.475524
2021.939859	370.475175
2023.641202	366.789860
2025.342200	376.576573
2027.041138	380.600350
2028.741447	383.847203
2030.437980	389.699301
2032.135885	398.001399
2033.831732	403.220280
2035.530664	407.161538
2037.224110	397.554895
2038.918927	392.088462
2040.613401	394.910140
2042.304107	396.226573
2043.997897	409.980420
2045.687920	418.003846
2047.379314	409.959790
2049.068655	410.641958
2050.759366	406.857692
2052.446315	399.573077
2054.132923	392.734615
2055.820902	384.413287
2057.505121	369.960839
2059.190710	365.027972
2060.875960	372.590210
2062.559162	375.353846
2064.243734	388.981818
2065.922842	403.280070
2067.606736	405.199650
2069.285170	406.015385
2070.966681	406.261888
2072.644440	402.386364
2074.321863	402.247902
2076.000655	397.485315
2077.677404	383.770280
2079.352112	376.265734
2081.028189	379.117832
2082.702226	375.764685
2084.375927	383.050000
2086.049293	381.596154
2087.720621	376.468531
2089.391614	375.829720
2091.062273	382.334615
2092.732598	385.093007
2094.402588	392.377972
2096.070543	394.257343
2097.738165	391.785315
2099.403753	390.932517
2101.070709	397.439161
2102.735632	398.243357
2104.400222	401.279371
2106.062781	391.754895
2107.726709	405.797203
2109.388605	400.357692
2111.050170	393.263986
2112.711405	397.009091
2114.370610	391.558042
2116.029486	380.741259
2117.688031	373.882168
2119.346247	366.105245
2121.000739	366.122727
2122.658297	372.345804
2124.315524	376.051399
2125.969031	381.275874
2127.623905	398.343357
2129.275060	392.875874
2130.929278	392.527972
2132.579778	395.608392
2134.231646	394.704895
2135.878105	389.017133
2137.529318	388.824476
2139.176818	386.060490
2140.825686	377.204895
2142.472534	374.451748
2144.119056	374.401399
2145.765254	376.101049
2147.407742	376.073427
2149.053289	372.708741
2150.695129	369.810839
2152.340026	373.317483
2153.981218	377.241608
2155.622086	375.096503
2157.262631	360.140210
2158.901163	346.036014
2160.541061	344.201399
2162.177259	335.556993
2163.814823	335.327622
2165.452065	343.930420
2167.087297	362.789860
2168.722207	385.583566
2170.356796	399.762587
2171.991064	410.524476
2173.621638	408.990909
2175.255263	408.282517
2176.885197	379.172378
2178.516496	377.205944
2180.145791	370.171678
2181.774765	339.634965
2183.403421	330.848252
2185.031757	332.700000
2186.658090	337.485315
2188.284105	342.272378
2189.908119	345.485315
2191.533498	359.121678
2193.156876	375.143007
2194.781619	391.411538
2196.402680	387.010490
2198.023426	406.819930
2199.645535	408.012587
2201.265647	401.613986
2202.883763	409.730070
2204.501563	413.183566
2206.119047	406.781119
2207.736216	401.069231
2209.353070	388.753497
2210.969609	382.907692
2212.584154	381.782867
2214.196707	378.525175
2215.810625	375.265385
2217.422550	375.414685
2219.035840	369.942308
2220.647138	362.154545
2222.256448	374.507692
2223.867120	376.034965
2225.475804	384.837063
2227.084176	387.638811
2228.690560	401.313986
2230.298308	402.784615
2231.904069	404.718881
2233.509519	410.000350
2235.112985	409.549301
2236.717813	388.924126
2238.320657	383.265385
2239.921518	379.551748
2241.523742	382.345455
2243.123983	382.740909
2244.725588	384.159441
2246.323539	385.584965
2247.922853	397.068182
2249.520187	387.227972
2251.117213	388.231818
2252.715600	388.844755
2254.310339	382.625524
2255.903102	374.260839
2257.497226	382.055245
2259.092712	387.790210
2260.684554	399.773427
2262.276089	409.935664
2263.868985	408.886014
2265.456572	423.985664
2267.048856	423.467483
2268.635832	425.495105
2270.225837	423.008741
2271.810537	410.278322
2273.399931	387.162238
2274.984022	366.660140
2276.569475	351.869580
2278.152959	346.594755
2279.739468	350.536364
2281.322344	347.693007
2282.904916	352.615210
2284.487186	362.861189
2286.065825	353.550874
2287.647488	344.342657
2289.225524	344.737937
2290.806582	344.057343
2292.384013	339.906119
2293.959481	354.059441
2295.537971	350.213811
2297.112836	359.691958
2298.687401	367.696329
2300.261666	363.275524
2301.835630	371.767308
2303.409294	377.566084
2304.982657	372.104196
2306.552402	367.739161
2308.121848	378.859441
2309.694313	396.449650
2311.261503	417.105944
2312.831710	440.151748
2314.398303	419.844056
2315.966256	404.432867
2317.532254	395.208042
2319.097954	389.444056
2320.663356	401.815385
2322.226805	413.591259
2323.791613	438.576923
2325.352812	461.802448
2326.917026	472.962937
2328.475979	491.562238
2330.037945	495.023776
2331.597961	492.774825
2333.157681	452.358042
2334.715452	402.341608
2336.272929	399.560839
2337.830110	374.406993
2339.385345	355.928671
2340.940285	357.101399
2342.494932	357.606643
2344.049285	357.294056
2345.603344	338.430420
2347.157110	354.556294
2348.708931	359.952448
2350.258809	363.826573
2351.811695	352.691958
2353.359339	348.414336
2354.909990	375.204196
2356.457051	355.345105
2358.005469	357.447552
2359.553595	361.267832
2361.098134	348.329021
2362.644030	341.294056
2364.187987	349.059091
2365.733302	382.650000
2367.275032	389.279021
2368.818120	393.609790
2370.359271	396.052448
2371.900133	414.063287
2373.440706	409.091958
2374.980990	400.617832
2376.520985	397.536014
2378.057401	381.942657
2379.596819	347.610839
2381.132660	330.007343
2382.669857	332.982867
2384.203480	349.330070
2385.740102	367.423776
2387.274793	380.828671
2388.807555	392.392308
2390.340031	401.423427
2391.870578	383.298951
2393.404123	396.161189
2394.932457	403.467832
2396.462147	393.818881
2397.991552	358.850000
2399.520672	369.029021
2401.049506	372.908042
2402.573136	387.379720
2404.101401	398.741608
2405.624463	392.953846
2407.152160	392.875175
2408.673016	382.412587
2410.198506	370.475524
2411.720436	401.668531
2413.243720	416.834965
2414.765084	421.273077
2416.284528	403.660490
2417.805327	421.339161
2419.324207	405.043706
2420.842805	405.583916
2422.359486	409.965035
2423.877522	409.222378
2425.395276	404.824126
2426.909478	404.108392
2428.423400	415.545804
2429.937043	439.672028
2431.452039	427.506294
2432.963487	455.571329
2434.476290	465.190559
2435.987180	485.030769
2437.497790	483.863636
2439.006489	482.988112
2440.518175	507.459790
2442.026317	508.834266
2443.534180	478.309091
2445.041766	478.872727
2446.545812	464.883916
2448.052842	455.091608
2449.557964	453.554196
2451.062809	472.881469
2452.565747	467.458741
2454.068408	470.023776
2455.570793	471.760839
2457.071273	467.068531
2458.573106	494.076573
2460.073035	472.002448
2461.572688	444.977273
2463.072066	456.262937
2464.569541	451.858042
2466.065114	468.140559
2467.563667	459.570979
2469.058691	443.838112
2470.555069	426.822378
2472.047920	425.662238
2473.542123	420.168182
2475.036053	402.451399
2476.526460	398.776923
2478.019844	387.336364
2479.511329	394.458741
2481.000918	396.692657
2482.490236	415.815734
2483.977657	414.236364
2485.468054	417.236364
2486.954932	436.513287
2488.443162	435.205245
2489.927876	451.863986
2491.412319	453.136014
2492.898114	457.959441
2494.382016	472.115035
2495.867270	479.913287
2497.347390	466.110839
2498.830482	448.367832
2500.311684	441.294755
2501.792617	406.636364
2503.271661	412.354545
2504.750437	402.240559
2506.228944	388.395105
2507.707182	406.362937
2509.185152	398.335664
2510.659618	407.266434
2512.137052	398.384266
2513.610983	403.627273
2515.086265	388.359790
2516.561279	401.853497
2518.032792	404.856993
2519.505656	415.081119
2520.976637	430.966084
2522.448967	437.481818
2523.916185	441.622028
2525.386369	461.134965
2526.854671	447.969930
2528.322709	436.668531
2529.790482	416.288462
2531.257990	418.490909
2532.725233	406.039510
2534.188985	393.795105
2535.654086	370.998601
2537.117310	372.637762
2538.581883	371.728671
2540.042967	391.012238
2541.505402	386.876923
2542.967573	418.379371
2544.426257	418.904545
2545.889514	438.500350
2547.347674	447.070280
2548.807183	455.489161
2550.261599	455.996853
2551.720585	434.679021
2553.177698	424.128671
2554.632941	422.579021
2556.087923	426.479371
2557.541035	432.661538
2558.995496	428.809091
2560.448088	430.325874
2561.900420	424.151399
2563.350884	444.076573
2564.804304	418.366084
2566.252642	417.642657
2567.703936	413.308392
2569.153363	407.820280
2570.599319	403.815385
2572.048229	391.029371
2573.493668	393.879021
2574.940456	386.825874
2576.385380	388.212587
2577.830047	378.177622
2579.276061	392.455245
2580.718608	399.559790
2582.162503	406.937762
2583.602933	414.852448
2585.044711	426.175175
2586.484629	451.406993
2587.925894	462.612937
2589.363697	457.047902
2590.804450	448.332867
2592.240140	431.715385
2593.678780	411.689161
2595.115563	394.165734
2596.550489	393.124126
2597.988364	386.801399
2599.421181	392.469580
2600.855345	387.688112
2602.287654	404.332867
2603.721310	425.345804
2605.153113	441.621678
2606.584663	440.638112
2608.015959	449.176923
2609.445404	444.220629
2610.874596	459.750350
2612.301937	485.717483
2613.730625	521.892308
2615.159060	533.004545
2616.584049	536.597203
2618.010383	539.114336
2619.434869	530.994056
2620.860701	513.982168
2622.283089	499.280420
2623.706823	480.180420
2625.128711	469.835664
2626.550348	471.125524
2627.970140	489.477972
2629.391278	500.427273
2630.812166	519.898252
2632.229616	519.572727
2633.650005	524.947552
2635.066957	537.014336
2636.483661	535.668531
2637.900116	541.353846
2639.316323	541.369580
2640.732281	551.801399
2642.146399	548.885664
2643.560270	582.791259
2644.972301	574.797552
2646.385677	587.390909
2647.795623	594.859441
2649.208505	596.709790
2650.617958	609.901399
2652.027165	637.681119
2653.434536	654.668881
2654.844841	671.958042
2656.253310	699.590559
2657.659944	732.981818
2659.066333	752.384266
2660.470888	788.702448
2661.876787	772.872727
2663.280853	813.211189
2664.684675	837.651049
2666.088252	855.515035
2667.489997	862.586014
2668.893086	871.076573
2670.292758	875.816783
2671.693773	886.178671
2673.091371	920.871678
2674.491900	937.199650
2675.889014	945.693357
2677.287471	947.836364
2678.684100	936.168182
2680.080488	971.022378
2681.476633	984.602797
2682.870952	977.726224
2684.266614	966.222028
2685.658866	965.258392
2687.052462	992.146503
2688.444233	1016.115385
2689.837346	1037.471678
2691.228636	1061.390559
2692.618103	1061.871329
2694.007331	1075.075524
2695.396318	1076.932517
2696.786648	1090.071329
2698.171993	1080.465035
2699.560263	1077.946154
2700.946712	1077.683566
2702.332922	1091.725874
2703.718893	1149.531469
2705.101466	1213.200699
2706.485380	1289.700000
2707.869057	1354.839161
2709.252496	1410.982517
2710.632539	1509.152448
2712.013924	1583.763636
2713.393493	1638.570979
2714.774404	1657.059790
2716.153500	1657.139161
2717.530781	1653.386014
2718.909404	1633.106294
2720.286214	1616.591608
2721.662788	1583.787762
2723.039126	1525.154545
2724.413652	1448.485315
2725.789519	1393.070629
2727.161999	1360.422028
2728.537396	1308.209091
2729.907831	1242.380420
2731.279608	1178.501049
2732.651151	1126.648601
2734.020885	1080.465035
2735.391959	1025.216084
2736.761226	982.168531
2738.130259	932.728322
2739.497485	881.031469
2740.864479	846.439510
2742.231240	821.238462
2743.597768	786.809790
2744.962492	751.539510
2746.326983	727.256294
2747.691242	700.361189
2749.055270	667.130769
2750.419065	614.981119
2751.779487	594.041958
2753.142820	576.319580
2754.501210	549.112937
2755.862510	535.027622
2757.220439	536.362937
2758.581278	519.034965
2759.940316	484.358392
2761.295986	484.116084
2762.654565	469.026573
2764.009776	437.053846
2765.364758	412.358042
2766.717943	394.147902
2768.074035	381.873427
2769.426763	390.613986
2770.779262	395.393706
2772.131533	406.584266
2773.485143	416.116434
2774.835391	401.108392
2776.183846	389.879021
2777.535205	388.437413
2778.883205	370.928671
2780.232544	355.708741
2781.580090	365.469231
2782.927409	379.005594
2784.274502	373.420979
2785.619804	392.654196
2786.964880	407.989860
2788.309730	420.456993
2789.654354	440.804545
2790.995625	443.960839
2792.338235	450.822028
2793.680620	435.363287
2795.022779	428.810140
2796.361589	434.231818
2797.703299	433.101049
2799.041660	420.823077
2800.381359	399.769231
2801.719272	388.728322
2803.055401	374.130070
2804.391307	370.493706
2805.728549	364.636364
2807.064008	348.612587
2808.399244	340.830420
2809.732698	330.568182
2811.067488	343.183217
2812.398937	375.155245
2813.733282	368.034266
2815.062729	387.390559
2816.393513	400.311888
2817.724075	404.556993
2819.052858	383.679371
2820.382978	386.222028
2821.711318	362.187063
2823.039438	346.320979
2824.365781	335.420979
2825.693459	345.911189
2827.017805	353.262587
2828.343486	360.055594
2829.667393	356.847552
2830.991079	380.768531
2832.316101	388.750699
2833.637794	401.904895
2834.959267	391.709790
2836.280522	386.816783
2837.601558	365.330070
2838.920822	342.401049
2840.241421	342.356294
2841.560248	360.252098
2842.878857	363.618881
2844.195696	375.403147
2845.512317	383.361189
2846.828720	398.490559
2848.143355	411.223427
2849.459324	416.478671
2850.771973	400.243706
2852.085958	388.826224
2853.399726	364.567133
2854.713277	348.731818
2856.025061	356.644755
2857.335080	350.462587
2858.646433	344.829021
2859.954470	347.935315
2861.263843	341.626224
2862.573000	340.714685
2863.881942	331.563287
2865.189121	310.966084
2866.494536	311.880070
2867.801286	306.236713
2869.106273	309.937063
2870.411047	331.622028
2871.714059	353.055944
2873.019953	356.302098
2874.320992	359.004545
2875.623364	374.574476
2876.923977	375.773776
2878.225924	386.269231
2879.527658	379.836014
2880.826088	373.873427
2882.125851	378.892308
2883.423857	353.344056
2884.721651	357.017483
2886.017688	351.866084
2887.315059	331.069580
2888.610674	317.110140
2889.906079	292.854196
2891.201272	286.670979
2892.493167	282.015035
2893.787939	300.144755
2895.079415	297.369930
2896.372223	308.944755
2897.664821	308.400000
2898.954124	303.992308
2900.244760	309.979021
2901.533646	306.064336
2902.823863	282.938112
2904.110789	294.076573
2905.399047	292.701399
2906.685556	302.550699
2907.971856	311.300350
2909.257948	317.523427
2910.542292	324.701748
2911.829508	361.755594
2913.111897	372.177972
2914.395618	386.787762
2915.677592	391.430070
2916.959360	380.631119
2918.239382	382.748601
2919.522274	391.743357
2920.803421	391.924825
2922.081286	368.532517
2923.362020	352.300699
2924.639473	328.821329
2925.916721	323.661189
2927.192226	320.081818
2928.470599	304.408741
2929.744157	299.246154
2931.020583	297.432867
2932.295268	305.822727
2933.568213	321.331818
2934.842488	345.665734
2936.115024	359.129021
2937.387356	370.593357
2938.656415	382.772378
2939.928339	386.391608
2941.198525	386.857692
2942.468507	378.209091
2943.738286	384.634266
2945.006328	394.344755
2946.272635	383.680070
2947.538739	379.923776
2948.806174	358.616434
2950.071873	367.664336
2951.337370	344.544406
2952.602665	336.341259
2953.864696	313.770979
2955.128056	304.123776
2956.391215	274.543007
2957.652641	268.079371
2958.915397	267.752797
2960.176422	268.187413
2961.435716	255.015385
2962.694809	270.751748
2963.953702	273.591259
2965.212395	279.858741
2966.470888	285.669930
2967.727652	280.716434
2968.984217	285.599650
2970.239053	281.980070
2971.495219	265.845804
2972.748129	286.948601
2974.002369	299.304895
2975.256410	310.627972
2976.508725	308.745455
2977.760842	321.870979
2979.011234	324.600699
2980.264481	317.610140
2981.512951	319.551049
2982.764275	308.066084
2984.012351	309.865734
2985.260229	301.190210
2986.507910	301.416084
2987.755395	315.322028
2989.001158	319.144755
2990.246724	313.120629
2991.493619	290.930769
2992.737268	287.981119
2993.982246	268.189860
2995.223981	269.336364
2996.468567	274.071329
2997.711434	296.362587
2998.951059	308.382168
3000.193536	316.868531
3001.432772	321.734266
3002.673336	320.354895
3003.912183	325.032867
3005.150836	307.782168
3006.387773	295.647902
3007.626037	300.792657
3008.862587	294.218881
3010.098943	307.596154
3011.335105	310.983217
3012.569553	336.446853
3013.803808	347.227972
3015.037870	346.725524
3016.270220	322.403147
3017.500858	320.373776
3018.734342	306.364336
3019.966115	288.831469
3021.196176	295.436014
3022.426046	310.606294
3023.654206	301.444406
3024.883693	303.109790
3026.111470	315.711888
3027.339056	325.209790
3028.567968	337.959441
3029.792138	339.555944
3031.019151	310.449301
3032.242941	312.543007
3033.468056	293.121329
3034.691465	315.044406
3035.914685	319.028671
3037.136199	331.941958
3038.360554	317.690210
3039.580174	326.134965
3040.801120	321.806993
3042.021876	310.497552
3043.240929	326.565035
3044.461308	311.221329
3045.678470	292.429371
3046.896957	292.345804
3048.113743	290.761888
3049.330340	305.742657
3050.546750	294.305594
3051.759946	299.764685
3052.975980	298.505944
3054.188802	305.731119
3055.404461	308.156294
3056.615397	314.663636
3057.827659	337.402797
3059.039733	337.506643
3060.251621	335.717483
3061.461811	330.014685
3062.671816	317.028147
3063.881634	299.198951
3065.089756	287.964510
3066.297692	283.170629
3067.503934	290.372552
3068.711500	293.466783
3069.917371	288.088636
3071.123057	305.457692
3072.328559	320.894580
3073.532367	323.160490
3074.737499	327.644580
3075.940938	323.890909
3077.142685	315.588986
3078.344249	304.793706
3079.545629	289.115385
3080.746825	277.489161
3081.946331	290.339510
3083.145653	280.128322
3084.346299	278.261538
3085.545256	297.498601
3086.741017	296.901049
3087.939608	311.514685
3089.135005	333.667832
3090.331726	332.099650
3091.525254	324.865385
3092.721610	313.808392
3093.916279	293.838811
3095.107758	278.788462
3096.303568	285.193007
3097.494685	267.674825
3098.687125	272.561538
3099.876376	281.288811
3101.068454	280.240210
3102.258848	294.267832
3103.446055	299.679720
3104.634586	305.617133
3105.824439	307.426224
3107.011107	305.093357
3108.197596	284.736364
3109.383905	274.212937
3110.571537	268.962937
3111.755986	259.208042
3112.938755	262.273776
3114.124348	275.832867
3115.308260	277.470280
3116.490494	280.677622
3117.672550	274.709790
3118.854427	282.172727
3120.036126	294.633916
3121.216148	281.421678
3122.394492	272.242308
3123.575658	277.264685
3124.753648	282.655245
3125.931461	274.167832
3127.109097	278.299301
3128.285058	281.960839
3129.460843	281.389161
3130.637948	266.374126
3131.813380	271.549650
3132.987138	273.852098
3134.159223	282.284615
3135.332629	279.661538
3136.505860	278.167832
3137.677418	286.554895
3138.850298	279.994755
3140.020010	260.377622
3141.191043	276.295455
3142.360405	281.047203
3143.528098	284.568881
3144.698606	278.063287
3145.864455	289.946853
3147.034614	283.595105
3148.200115	297.054545
3149.365443	294.240559
3150.530597	272.593357
3151.695578	260.464685
3152.861878	245.848951
3154.023525	244.870629
3155.186493	266.639161
3156.349287	257.059441
3157.511909	258.103846
3158.672866	256.697902
3159.833650	261.538112
3160.994263	269.502098
3162.153211	281.797203
3163.311987	272.718531
3164.470592	276.840559
3165.629025	278.874825
3166.787286	288.266783
3167.943885	287.140559
3169.098823	288.095804
3170.255080	262.690210
3171.409677	265.232867
3172.564102	255.308741
3173.716868	253.653846
3174.869464	256.653147
3176.021890	267.150350
3177.174145	279.701049
3178.326231	295.889860
3179.475170	298.179371
3180.626916	312.599301
3181.777005	301.138462
3182.925436	290.133566
3184.073699	281.019580
3185.221793	280.853846
3186.369717	274.897552
3187.515987	269.696853
3188.662088	280.127972
3189.806535	294.781469
3190.950813	298.127273
3192.094924	296.634615
3193.240353	299.377622
3194.382643	303.406643
3195.524765	292.089161
3196.666721	301.419231
3197.808509	292.795455
3198.950130	298.258392
3200.088615	300.649650
3201.228419	296.809091
3202.369539	290.584965
3203.507525	279.353846
3204.643862	271.967483
3205.780033	270.848951
3206.917522	262.254196
3208.053362	252.246853
3209.190518	251.928671
3210.323063	255.777972
3211.459888	254.021329
3212.592102	275.188811
3213.725634	276.250350
3214.859000	278.446503
3215.989239	273.158392
3217.122277	286.406294
3218.252187	292.270280
3219.383415	294.093007
3220.511517	278.704895
3221.642417	266.153147
3222.771672	263.866434
3223.899283	255.321329
3225.023773	259.002448
3226.152538	241.487413
3227.278181	245.457343
3228.403661	244.674476
3229.527500	246.012937
3230.654134	254.139860
3231.776169	265.298252
3232.899521	281.330070
3234.022711	290.741958
3235.145739	313.458392
3236.267127	335.157692
3237.388354	349.662587
3238.507942	362.615734
3239.627369	367.047203
3240.745159	386.144406
3241.865740	387.952797
3242.983208	394.006294
3244.100515	377.385315
3245.217661	388.094406
3246.333172	378.730070
3247.449998	365.841958
3248.563713	350.979720
3249.680219	333.370979
3250.795089	319.821329
3251.906851	300.238112
3253.018454	283.512238
3254.131372	283.334615
3255.244130	286.705245
3256.353782	293.331469
3257.464749	289.861538
3258.575557	321.488811
3259.684733	310.147203
3260.792278	308.737413
3261.901138	304.685315
3263.009839	296.469231
3264.115438	293.650699
3265.222352	283.802098
3266.327636	270.533916
3267.434234	263.640909
3268.537732	264.667133
3269.642544	258.990559
3270.747199	271.051399
3271.848756	281.790909
3272.950156	274.657692
3274.052870	278.553497
3275.155427	287.209790
3276.254889	286.263287
3277.357133	289.153497
3278.456283	285.836364
3279.553807	284.090559
3280.651176	267.347203
3281.751328	278.200000
3282.848386	257.847203
3283.945290	262.658741
3285.042038	251.696154
3286.134227	249.476573
3287.230666	250.463287
3288.325482	250.287063
3289.420143	257.923776
3290.513183	250.282517
3291.606069	255.446154
3292.697334	262.205944
3293.789912	262.531469
3294.880870	277.009441
3295.970208	273.265035
3297.059393	278.810140
3298.149890	277.741958
3299.237303	281.513636
3300.324564	282.853147
3301.413137	273.777972
3302.501557	275.383217
3303.585430	265.101748
3304.673545	260.999301
3305.758579	254.264685
3306.841997	247.033566
3307.926727	243.667832
3309.009841	237.275175
3310.094267	234.583566
3311.175615	240.140210
3312.258275	240.624126
3313.339321	249.966084
3314.420216	256.778322
3315.499498	264.583566
3316.578629	259.858741
3317.659072	266.119580
3318.736440	260.245455
3319.815120	259.491958
3320.892188	266.052448
3321.969106	258.501748
3323.044414	255.349650
3324.119572	247.961888
3325.196041	237.702797
3326.269439	240.796154
3327.342689	229.523077
3328.417250	226.330420
3329.490201	221.253147
3330.561545	237.422028
3331.634199	236.100350
3332.703786	237.270629
3333.774684	249.345455
3334.843975	260.732517
3335.914577	267.310140
3336.983572	265.753147
3338.050961	271.740559
3339.116745	275.826573
3340.186755	275.839860
3341.253702	279.323776
3342.317587	273.890210
3343.384240	272.050699
3344.449289	269.660490
3345.512734	250.029021
3346.576032	249.896503
3347.639185	243.399650
3348.702191	238.351748
3349.765050	234.593357
3350.826308	233.348951
3351.884509	227.656993
3352.946931	233.189510
3354.006296	230.577972
3355.065517	224.742308
3356.126046	232.025874
3357.182066	244.367133
3358.240851	240.290210
3359.295128	239.842657
3360.352169	236.004895
3361.407611	253.600000
3362.464362	252.526224
3363.519516	241.543706
3364.573072	234.543357
3365.625031	240.513636
3366.679752	232.397552
3367.731425	221.505594
3368.782953	216.194056
3369.835791	214.325175
3370.885581	209.763636
3371.936680	210.644056
3372.984732	213.645105
3374.035545	222.269930
3375.083312	223.326224
3376.130937	214.986713
3377.178420	226.402448
3378.224309	236.392657
3379.271508	243.467133
3380.315663	252.297902
3381.362577	264.941608
3382.407899	271.872378
3383.450181	277.748951
3384.492321	278.036713
3385.535770	265.332517
3386.579077	266.614685
3387.620794	267.297203
3388.662370	251.703147
3389.703806	244.779720
3390.743653	237.208042
3391.781911	231.302797
3392.821477	228.949650
3393.860903	220.607692
3394.898741	214.275524
3395.934992	208.523427
3396.971103	208.633916
3398.008522	216.549301
3399.042908	236.627972
3400.078602	236.041608
3401.114156	245.250699
3402.146678	239.752448
3403.181954	239.602098
3404.214199	232.747552
3405.246306	230.774126
3406.276829	210.779720
3407.308660	212.544406
3408.340352	197.550350
3409.369016	200.257692
3410.397542	230.658392
3411.427376	237.889860
3412.457072	235.892308
3413.483741	248.504895
3414.511718	247.136014
3415.536670	241.756294
3416.564372	243.931119
3417.589051	236.816434
3418.615036	224.319930
3419.639442	234.576224
3420.663710	218.615035
3421.686400	229.742657
3422.708955	238.927273
3423.732814	233.142308
3424.753654	228.400699
3425.774359	228.513487
3426.796369	228.725162
3427.815361	228.766583
3428.834218	228.368606
3429.854381	227.262088
3430.871526	225.177885
