-118.702670	-2.600000
-116.033069	6.800000
-113.366404	-6.400000
-110.700491	-10.000000
-108.037511	21.800000
-105.373100	-21.800000
-102.711620	-5.600000
-100.048711	-2.800000
-97.390908	-9.800000
-94.731676	12.600000
-92.073192	-5.800000
-89.417633	-9.400000
-86.760644	-0.800000
-84.108754	29.200000
-81.455434	9.400000
-78.805033	-13.800000
-76.153204	14.800000
-73.506465	8.000000
-70.858296	-2.400000
-68.210870	-6.000000
-65.566359	-10.000000
-62.920418	-17.000000
-60.279559	-16.800000
-57.637271	7.000000
-54.997892	-2.600000
-52.357084	16.600000
-49.717015	-6.200000
-47.082020	1.000000
-44.445595	-8.800000
-41.812073	0.200000
-39.177123	-4.000000
-36.547239	5.400000
-33.913761	1.400000
-31.285346	3.200000
-28.657665	18.600000
-26.028555	-3.000000
-23.404503	2.800000
-20.776860	-2.600000
-18.154272	7.200000
-15.532414	24.600000
-12.911287	32.600000
-10.290891	69.200000
-7.673382	228.400000
-5.054445	830.200000
-2.438394	1878.800000
0.176930	2991.800000
2.791525	1718.000000
5.403239	304.600000
8.016381	23.200000
10.624489	20.000000
13.236178	11.000000
15.842837	10.800000
18.450925	3.400000
21.058287	-7.400000
23.660625	-12.000000
26.266542	-2.400000
28.867436	8.800000
31.469758	-8.400000
34.067062	25.200000
36.667943	26.000000
39.263808	1.800000
41.861101	-5.000000
44.457675	22.400000
47.049240	1.600000
49.642234	5.800000
52.232366	-6.400000
54.823925	2.800000
57.412626	3.800000
60.002753	3.000000
62.587881	-2.200000
65.174437	-13.800000
67.760278	-1.200000
70.343266	-8.800000
72.927681	18.000000
75.504967	9.400000
78.085818	8.000000
80.663822	10.400000
83.241114	-0.600000
85.819834	9.000000
88.393571	-11.200000
90.968735	-8.400000
93.541056	-0.800000
96.112670	18.600000
98.681443	20.600000
101.251643	-9.200000
103.819004	-5.400000
106.387792	19.200000
108.953743	7.600000
111.516859	11.200000
114.083531	-4.000000
116.640981	8.600000
119.204117	-8.600000
121.762294	13.200000
124.324025	0.200000
126.880799	8.600000
129.438999	18.600000
131.992247	18.600000
134.544797	41.200000
137.100897	24.800000
139.652049	26.400000
142.202504	34.600000
144.752261	52.000000
147.299199	33.800000
149.845442	37.000000
152.393110	31.800000
154.940082	41.000000
157.482118	21.600000
160.023462	31.200000
162.564112	28.600000
165.106187	40.800000
167.645452	46.200000
170.181907	64.800000
172.717672	56.200000
175.254862	37.000000
177.791361	41.200000
180.325054	52.400000
182.855943	50.800000
185.386144	68.600000
187.917771	22.800000
190.446596	20.600000
192.972622	51.400000
195.497962	63.800000
198.024727	27.800000
200.548696	28.400000
203.071979	35.400000
205.594578	54.000000
208.114384	66.600000
210.633507	48.000000
213.151947	83.400000
215.671812	45.800000
218.184674	56.800000
220.701068	56.400000
223.216781	23.800000
225.727603	31.400000
228.239850	55.400000
230.749314	69.200000
233.258100	45.200000
235.766208	44.600000
238.275740	51.000000
240.780391	31.800000
243.284366	45.600000
245.789765	61.000000
248.290289	50.400000
250.794336	59.000000
253.291413	58.400000
255.792012	60.200000
258.289840	42.800000
260.786995	59.800000
263.283478	38.200000
265.775097	20.200000
268.270236	50.600000
270.762608	40.000000
273.254310	54.000000
275.743249	58.200000
278.233611	20.800000
280.721212	56.600000
283.206053	48.200000
285.694409	45.000000
288.175825	50.200000
290.660755	32.800000
293.140839	67.000000
295.624436	51.000000
298.103191	79.800000
300.583368	49.600000
303.060794	77.400000
305.537556	38.600000
308.013654	58.600000
310.487004	63.800000
312.959693	71.000000
315.431720	45.800000
317.903085	53.600000
320.371707	73.800000
322.839669	59.600000
325.309054	89.800000
327.773616	57.800000
330.241682	52.800000
332.704927	71.200000
335.167516	37.400000
337.629448	29.200000
340.090723	67.400000
342.549263	41.600000
345.009226	55.000000
347.466457	48.000000
349.923033	48.000000
352.378955	70.200000
354.832147	39.000000
357.286762	56.800000
359.736575	43.200000
362.189884	53.400000
364.638394	32.000000
367.086254	36.400000
369.535536	38.400000
371.980023	51.400000
374.425933	44.400000
376.871194	44.600000
379.313736	53.000000
381.755630	63.600000
384.196876	59.600000
386.635408	58.200000
389.075360	46.800000
391.512599	61.200000
393.947127	51.800000
396.385141	67.000000
398.818380	46.600000
401.253039	62.200000
403.682926	74.400000
406.116298	72.400000
408.544900	56.200000
410.972860	54.800000
413.402241	61.800000
415.826858	50.400000
418.252895	48.400000
420.678293	41.200000
423.103050	50.200000
425.523048	41.000000
427.944468	39.200000
430.363192	51.400000
432.783335	56.400000
435.200784	40.800000
437.619654	49.000000
440.035829	69.200000
442.447258	62.000000
444.862163	74.000000
447.274378	56.000000
449.685960	63.400000
452.096907	59.800000
454.505167	72.000000
456.912796	45.000000
459.319792	60.600000
461.726157	54.400000
464.129839	59.600000
466.532891	61.400000
468.935313	58.600000
471.337105	31.600000
473.736219	38.600000
476.136753	68.600000
478.536658	46.200000
480.931841	56.000000
483.330489	74.800000
485.724418	65.800000
488.117721	50.800000
490.510399	38.800000
492.902451	64.000000
495.295921	68.800000
497.684679	53.000000
500.070771	60.000000
502.458283	24.200000
504.845172	47.800000
507.229396	36.400000
509.615040	47.200000
511.998022	29.600000
514.378342	36.800000
516.760083	41.400000
519.139164	38.000000
521.519663	31.000000
523.897506	30.800000
526.272692	29.600000
528.647261	12.000000
531.023249	25.400000
533.396584	38.200000
535.771336	53.400000
538.141402	20.400000
540.510854	24.000000
542.881723	33.600000
545.247911	33.400000
547.615518	30.400000
549.980479	49.000000
552.344828	33.600000
554.708563	28.200000
557.073716	33.600000
559.434197	32.800000
561.796095	32.600000
564.155354	34.600000
566.511974	28.400000
568.872040	27.800000
571.225414	31.600000
573.582233	17.000000
575.936417	15.000000
578.289992	54.400000
580.642960	51.400000
582.993295	33.400000
585.345048	5.800000
587.690124	29.400000
590.040663	23.800000
592.384530	39.800000
594.733858	17.000000
597.078537	50.200000
599.420592	53.200000
601.764064	37.000000
604.104913	23.400000
606.445159	19.400000
608.782785	24.600000
611.123846	36.800000
613.460270	28.000000
615.798110	45.000000
618.133333	41.600000
620.465939	27.600000
622.799963	19.400000
625.131372	35.800000
627.462183	32.000000
629.792396	33.200000
632.122012	10.000000
634.447004	35.600000
636.777438	29.800000
639.103251	27.200000
641.426456	24.800000
643.751078	18.400000
646.073094	29.200000
648.394516	42.000000
650.713335	32.200000
653.033571	29.200000
655.353212	22.400000
657.670254	23.400000
659.986703	17.200000
662.300554	18.200000
664.615821	15.800000
666.928491	36.800000
669.242576	31.600000
671.552061	31.600000
673.862962	25.200000
676.171270	25.000000
678.478989	34.000000
680.788124	42.600000
683.092666	22.600000
685.396622	37.200000
687.699991	24.600000
690.004776	36.400000
692.304973	12.400000
694.606586	40.200000
696.907613	33.600000
699.204059	18.000000
701.501920	42.200000
703.799197	20.800000
706.095891	19.600000
708.388009	-4.800000
710.683538	15.200000
712.974493	24.200000
715.266863	24.800000
717.556657	14.400000
719.845872	12.600000
722.134507	5.000000
724.420569	10.400000
726.708045	48.200000
728.992951	20.000000
731.277279	29.400000
733.559038	30.000000
735.842211	25.200000
738.124807	29.200000
740.402847	26.600000
742.682301	37.600000
744.961180	30.800000
747.239484	13.200000
749.513237	27.600000
751.788405	5.200000
754.062999	3.600000
756.335034	14.000000
758.608482	22.200000
760.879372	30.000000
763.147706	34.200000
765.417453	28.000000
767.684645	15.200000
769.951268	38.000000
772.217320	12.600000
774.480821	55.600000
776.745734	3.200000
779.010079	33.000000
781.269893	43.000000
783.531121	15.400000
785.791781	49.600000
788.049895	27.000000
790.305464	17.000000
792.564423	38.000000
794.816884	26.400000
797.074712	48.200000
799.328021	30.800000
801.578790	11.200000
803.830971	29.200000
806.080613	22.800000
808.331667	30.200000
810.578210	10.800000
812.826166	42.600000
815.071586	19.000000
817.318419	38.400000
819.564689	22.200000
821.806456	13.000000
824.051605	13.600000
826.290283	18.000000
828.532342	35.200000
830.769903	37.000000
833.008876	20.600000
835.245322	7.400000
837.483179	23.600000
839.718511	28.400000
841.951320	30.800000
844.185539	33.000000
846.417237	16.000000
848.648380	39.200000
850.878968	19.600000
853.109002	33.800000
855.338481	27.200000
857.563480	8.200000
859.791852	13.600000
862.015746	17.000000
864.241051	26.000000
866.461880	10.400000
868.686081	23.600000
870.905809	41.200000
873.126947	13.200000
875.347535	21.000000
877.565614	26.600000
879.785102	0.600000
882.000124	35.000000
884.214598	22.200000
886.428525	16.200000
888.641904	12.200000
890.854737	43.000000
893.067022	37.000000
895.276806	38.400000
897.486044	12.000000
899.694737	14.200000
901.900930	27.400000
904.108533	24.000000
906.313639	20.200000
908.518201	13.400000
910.720268	23.400000
912.923744	28.600000
915.124726	9.200000
917.325166	12.600000
919.527015	12.800000
921.722473	36.400000
923.921289	26.200000
926.115668	25.000000
928.313404	17.800000
930.506704	26.800000
932.701413	36.400000
934.893635	26.400000
937.085320	31.200000
939.276467	20.400000
941.465131	19.200000
943.653259	24.200000
945.838905	24.200000
948.027905	21.200000
950.212480	27.000000
952.396521	36.000000
954.583913	67.600000
956.763000	37.200000
958.945438	42.600000
961.127342	22.800000
963.306771	47.800000
965.483728	38.400000
967.662093	40.200000
969.841865	24.000000
972.015288	31.600000
974.192057	28.600000
976.364419	30.600000
978.538189	27.400000
980.707555	42.600000
982.880265	2.600000
985.050510	33.200000
987.220225	14.000000
989.389412	36.000000
991.554202	9.800000
993.722334	41.000000
995.886070	45.600000
998.051214	26.400000
1000.213898	52.200000
1002.376057	44.800000
1004.535759	51.800000
1006.694936	38.200000
1008.855520	20.000000
1011.013649	51.800000
1013.171255	36.200000
1015.328337	51.000000
1017.484895	39.000000
1019.637074	17.200000
1021.790660	50.800000
1023.943724	35.000000
1026.094339	37.400000
1028.246360	18.000000
1030.394009	40.000000
1032.544989	27.400000
1034.691598	46.600000
1036.837688	34.600000
1038.983260	23.800000
1041.130237	38.600000
1043.270925	74.000000
1045.414942	30.200000
1047.556520	46.000000
1049.697580	27.600000
1051.840046	44.600000
1053.976231	56.800000
1056.115743	26.000000
1058.250899	28.000000
1060.389380	43.200000
1062.523508	73.000000
1064.657122	16.000000
1066.792140	28.200000
1068.922810	37.400000
1071.054884	39.600000
1073.184528	45.800000
1075.313661	14.000000
1077.442283	41.800000
1079.570393	34.800000
1081.696077	49.800000
1083.821251	47.400000
1085.947829	50.400000
1088.070069	34.800000
1090.193714	38.200000
1092.313024	10.000000
1094.437563	36.200000
1096.555858	21.200000
1098.675556	38.800000
1100.792837	38.400000
1102.909610	28.800000
1105.025877	15.000000
1107.139729	45.200000
1109.254984	38.600000
1111.365917	19.600000
1113.480162	19.000000
1115.590086	54.400000
1117.701413	32.800000
1119.812237	39.600000
1121.918744	16.600000
1124.028560	36.200000
1126.134062	57.000000
1128.240968	23.000000
1130.341658	19.600000
1132.447560	38.000000
1134.549153	16.200000
1136.652148	39.200000
1138.754644	35.600000
1140.850932	38.200000
1142.952427	42.200000
1145.049620	36.000000
1147.146314	35.800000
1149.242511	6.000000
1151.338209	33.800000
1153.433410	26.400000
1155.526214	41.800000
1157.620420	19.800000
1159.708435	43.400000
1161.801648	19.800000
1163.888674	2.000000
1165.978998	33.400000
1168.065034	41.400000
1170.154368	24.200000
1172.237521	50.600000
1174.322077	24.000000
1176.408034	20.200000
1178.489709	13.400000
1180.572785	11.200000
1182.653476	24.800000
1184.733676	24.800000
1186.813384	22.400000
1188.892601	37.000000
1190.969435	24.400000
1193.043889	40.000000
1195.121635	33.400000
1197.195110	17.800000
1199.269987	32.200000
1201.340596	37.400000
1203.412606	22.400000
1205.482240	9.800000
1207.553275	31.600000
1209.623822	14.200000
1211.690109	14.400000
1213.757796	37.200000
1215.823110	19.000000
1217.889825	38.800000
1219.952284	32.200000
1222.018029	29.200000
1224.079519	17.600000
1226.142410	21.200000
1228.202932	45.800000
1230.262972	47.000000
1232.322528	35.600000
1234.379720	37.800000
1236.436429	37.200000
1238.490776	28.800000
1240.548403	20.400000
1242.603668	22.200000
1244.654693	28.600000
1246.707117	9.600000
1248.759061	27.800000
1250.808647	40.400000
1252.857754	17.000000
1254.906382	33.400000
1256.954532	20.200000
1259.002204	28.400000
1261.045645	34.000000
1263.092362	30.000000
1265.136725	25.000000
1267.180611	13.000000
1269.222147	9.200000
1271.261333	40.200000
1273.303792	-3.800000
1275.342028	26.600000
1277.381663	26.400000
1279.420822	20.400000
1281.455764	31.000000
1283.492104	32.400000
1285.526100	15.000000
1287.561493	34.200000
1289.592673	13.000000
1291.625252	36.400000
1293.657359	24.000000
1295.687125	15.000000
1297.718288	11.800000
1299.745244	16.000000
1301.773599	24.600000
1303.797748	7.400000
1305.825163	16.600000
1307.848375	21.400000
1309.872985	14.600000
1311.895260	35.000000
1313.918933	28.400000
1315.940273	33.200000
1317.961146	41.200000
1319.981551	18.200000
1321.997763	25.400000
1324.015372	27.400000
1326.030653	24.000000
1328.049193	29.200000
1330.063543	15.800000
1332.075568	8.000000
1334.090851	29.400000
1336.101948	17.800000
1338.114441	31.000000
1340.122752	30.400000
1342.134319	37.000000
1344.139847	12.800000
1346.148630	38.400000
1348.153235	10.400000
1350.161094	22.600000
1352.168491	30.400000
1354.169857	38.800000
1356.172619	32.400000
1358.174922	15.400000
1360.176765	18.600000
1362.178148	43.800000
1364.177217	27.800000
1366.175828	25.400000
1368.173981	31.800000
1370.171676	46.600000
1372.165208	20.600000
1374.160135	27.200000
1376.154606	36.000000
1378.148620	33.000000
1380.140327	27.600000
1382.131578	3.400000
1384.120524	40.600000
1386.110865	9.200000
1388.100752	17.400000
1390.088334	4.000000
1392.075463	19.800000
1394.060290	39.400000
1396.046512	7.200000
1398.030433	11.200000
1400.013902	33.800000
1401.996919	16.600000
1403.977638	6.600000
1405.959751	20.600000
1407.939567	0.000000
1409.918933	24.000000
1411.894160	18.400000
1413.872625	3.200000
1415.848797	36.800000
1417.824519	39.800000
1419.799792	8.200000
1421.772775	-0.800000
1423.745309	13.600000
1425.717395	32.200000
1427.689034	16.800000
1429.656544	44.800000
1431.629128	38.400000
1433.593906	23.800000
1435.563757	14.200000
1437.529483	26.000000
1439.496603	24.000000
1441.461439	21.000000
1443.422155	27.200000
1445.387939	21.000000
1447.347768	9.800000
1449.308991	16.800000
1451.271605	58.600000
1453.230105	33.000000
1455.188163	33.800000
1457.145779	43.200000
1459.102952	8.000000
1461.057850	42.600000
1463.014141	22.600000
1464.968157	42.400000
1466.921732	24.200000
1468.873035	32.000000
1470.825730	32.000000
1472.776154	22.400000
1474.726139	15.800000
1476.675685	8.200000
1478.622962	33.800000
1480.567971	8.800000
1482.514373	34.600000
1484.460337	22.000000
1486.405864	18.400000
1488.349125	15.800000
1490.291950	20.400000
1492.232512	32.000000
1494.174466	21.200000
1496.114157	24.000000
1498.053413	13.400000
1499.992235	42.200000
1501.928797	21.400000
1503.866750	20.400000
1505.802444	9.800000
1507.737705	23.200000
1509.670709	1.600000
1511.603281	51.400000
1513.535421	39.600000
1515.467129	20.600000
1517.396584	15.400000
1519.327429	12.600000
1521.257842	26.200000
1523.184183	51.400000
1525.111914	49.600000
1527.037396	25.400000
1528.962448	14.800000
1530.887070	27.600000
1532.811264	38.000000
1534.733211	32.000000
1536.656548	32.200000
1538.577638	38.000000
1540.496484	30.200000
1542.416720	24.200000
1544.334712	26.600000
1546.252278	19.400000
1548.167603	14.800000
1550.084317	36.200000
1551.996975	72.800000
1553.912838	38.800000
1555.826462	28.000000
1557.737847	30.600000
1559.650622	44.000000
1561.559347	47.000000
1563.469461	48.800000
1565.379152	52.800000
1567.288420	72.600000
1569.195453	72.000000
1571.100254	99.800000
1573.006444	106.000000
1574.910403	168.200000
1576.813940	158.000000
1578.717057	173.400000
1580.617944	178.400000
1582.520220	150.200000
1584.420267	139.600000
1586.321703	97.400000
1588.219104	87.600000
1590.116088	90.200000
1592.012653	56.000000
1593.910605	61.800000
1595.802723	53.200000
1597.698035	56.200000
1599.592928	65.800000
1601.485601	64.000000
1603.377856	37.000000
1605.267892	27.000000
1607.157512	21.200000
1609.046717	29.200000
1610.935506	12.400000
1612.822079	47.400000
1614.710039	25.800000
1616.593982	33.800000
1618.479312	23.000000
1620.364229	41.000000
1622.246932	21.000000
1624.131022	9.400000
1626.011100	50.600000
1627.892566	30.600000
1629.771820	34.600000
1631.652462	5.000000
1633.527299	28.600000
1635.407117	26.200000
1637.282930	21.400000
1639.158334	22.600000
1641.035123	28.400000
1642.906115	13.200000
1644.780290	31.200000
1646.650465	33.200000
1648.523821	24.400000
1650.394974	27.000000
1652.263925	14.200000
1654.134262	14.200000
1656.000606	6.600000
1657.868335	45.800000
1659.733865	37.200000
1661.600781	29.200000
1663.463707	32.000000
1665.328020	1.600000
1667.190136	34.400000
1669.051847	38.000000
1670.914943	26.400000
1672.775845	40.400000
1674.634554	38.400000
1676.492859	26.000000
1678.352548	46.000000
1680.206471	-7.600000
1682.063567	20.600000
1683.920259	29.400000
1685.772976	25.800000
1687.628864	13.600000
1689.480778	23.200000
1691.332291	32.200000
1693.183403	33.800000
1695.034114	26.200000
1696.884425	4.400000
1698.732552	32.800000
1700.582063	16.600000
1702.425824	8.600000
1704.274536	14.600000
1706.117501	27.200000
1707.963632	17.200000
1709.805802	28.400000
1711.651137	31.200000
1713.490730	20.800000
1715.331709	29.600000
1717.174070	32.000000
1719.012474	36.000000
1720.852262	25.600000
1722.689875	38.600000
1724.527093	18.600000
1726.362137	9.000000
1728.198564	25.800000
1730.032818	33.000000
1731.866679	18.000000
1733.700145	29.800000
1735.529665	21.400000
1737.362345	32.200000
1739.191079	27.800000
1741.022972	15.200000
1742.850922	20.200000
1744.678480	44.600000
1746.505647	15.800000
1748.332422	23.800000
1750.158805	28.200000
1751.981252	19.600000
1753.806854	33.600000
1755.628520	29.200000
1757.451569	21.600000
1759.272457	19.600000
1761.092955	38.800000
1762.914835	31.000000
1764.731015	52.200000
1766.550347	15.000000
1768.365752	24.800000
1770.184308	36.000000
1771.998938	10.600000
1773.813181	41.600000
1775.627038	33.200000
1777.440508	29.000000
1779.251824	36.800000
1781.064522	15.400000
1782.876834	48.000000
1784.685227	22.800000
1786.495002	29.000000
1788.300861	26.400000
1790.109867	27.600000
1791.914959	7.400000
1793.721432	15.800000
1795.527520	33.000000
1797.329699	-2.000000
1799.135021	26.400000
1800.936435	21.600000
1802.739230	19.400000
1804.538118	26.200000
1806.338387	20.600000
1808.138274	13.000000
1809.936019	35.000000
1811.733384	37.200000
1813.530368	9.200000
1815.326972	28.000000
1817.121437	29.200000
1818.917282	26.400000
1820.707471	17.000000
1822.502557	12.200000
1824.291990	40.000000
1826.084561	31.200000
1827.874996	34.000000
1829.663296	54.400000
1831.454732	16.400000
1833.240523	8.600000
1835.027692	35.800000
1836.812731	17.000000
1838.600902	21.400000
1840.385188	19.800000
1842.167345	41.800000
1843.950881	5.000000
1845.732288	21.800000
1847.515073	24.000000
1849.293979	8.000000
1851.074263	-3.000000
1852.852422	30.600000
1854.631958	21.400000
1856.409370	37.600000
1858.184659	14.800000
1859.961325	33.400000
1861.735869	8.200000
1863.511790	34.000000
1865.282092	8.200000
1867.055521	13.400000
1868.826830	22.400000
1870.597768	22.000000
1872.370084	14.200000
1874.136786	16.600000
1875.906613	27.000000
1877.672577	13.600000
1879.441665	23.600000
1881.206891	11.600000
1882.971749	39.200000
1884.737983	7.600000
1886.500359	35.000000
1888.262368	19.800000
1890.024010	25.200000
1891.785284	19.000000
1893.546192	23.400000
1895.306732	24.200000
1897.065164	26.600000
1898.823229	26.400000
1900.579187	29.400000
1902.336521	4.400000
1904.093490	31.600000
1905.848352	22.000000
1907.601109	20.000000
1909.353503	21.000000
1911.107273	52.800000
1912.858939	12.200000
1914.608502	32.200000
1916.359442	26.200000
1918.110018	22.600000
1919.856756	25.000000
1921.604869	20.400000
1923.350883	32.000000
1925.098273	27.000000
1926.843564	14.200000
1928.586758	30.400000
1930.331328	10.400000
1932.073801	40.000000
1933.815914	11.400000
1935.557668	12.400000
1937.299061	22.600000
1939.038361	24.400000
1940.777302	16.600000
1942.515884	32.800000
1944.252375	39.400000
1945.988507	35.800000
1947.726015	32.200000
1949.459700	20.000000
1951.194760	41.800000
1952.927731	32.800000
1954.660346	29.800000
1956.392604	13.600000
1958.124506	56.400000
1959.854323	30.600000
1961.582054	36.200000
1963.311160	-1.200000
1965.039910	19.000000
1966.766577	18.000000
1968.492890	44.600000
1970.220577	35.000000
1971.942727	35.000000
1973.667978	41.600000
1975.389422	11.000000
1977.113966	31.800000
1978.836431	31.000000
1980.555092	15.400000
1982.276852	25.000000
1983.994811	41.000000
1985.714142	21.800000
1987.429674	32.200000
1989.150026	34.600000
1990.866580	31.000000
1992.579337	34.600000
1994.295190	-11.400000
1996.008971	27.600000
1997.722402	22.000000
1999.433762	22.200000
2001.146494	32.000000
2002.855435	32.800000
2004.567470	27.400000
2006.273995	43.000000
2007.983613	33.600000
2009.691163	39.400000
2011.398366	35.000000
2013.103503	10.800000
2014.808293	21.600000
2016.514456	25.400000
2018.216835	25.600000
2019.920587	33.200000
2021.622276	21.200000
2023.323619	34.800000
2025.024618	14.000000
2026.723555	28.400000
2028.423864	34.000000
2030.120397	30.400000
2031.818302	27.200000
2033.514149	31.800000
2035.213081	30.200000
2036.906527	22.800000
2038.601344	36.400000
2040.295818	21.200000
2041.986525	34.800000
2043.680314	29.000000
2045.370338	45.200000
2047.061731	21.200000
2048.751072	16.800000
2050.441784	20.400000
2052.128732	12.200000
2053.815340	34.800000
2055.503319	24.000000
2057.187538	38.000000
2058.873127	19.000000
2060.558377	17.600000
2062.241579	8.000000
2063.926151	22.400000
2065.605259	22.000000
2067.289154	30.800000
2068.967587	22.400000
2070.649098	40.600000
2072.326857	7.000000
2074.004280	21.600000
2075.683072	44.200000
2077.359821	13.000000
2079.034529	30.400000
2080.710607	19.000000
2082.384643	24.800000
2084.058345	42.800000
2085.731711	21.400000
2087.403038	4.400000
2089.074031	32.200000
2090.744690	28.400000
2092.415015	22.800000
2094.085006	40.200000
2095.752960	23.000000
2097.420582	43.600000
2099.086170	34.000000
2100.753126	33.800000
2102.418049	11.600000
2104.082640	28.000000
2105.745199	16.000000
2107.409126	30.200000
2109.071022	36.600000
2110.732587	15.600000
2112.393822	12.800000
2114.053027	48.400000
2115.711903	21.600000
2117.370448	2.000000
2119.028664	25.000000
2120.683157	44.000000
2122.340714	33.200000
2123.997941	24.400000
2125.651448	34.200000
2127.306322	36.200000
2128.957477	18.000000
2130.611695	19.600000
2132.262195	32.200000
2133.914063	26.800000
2135.560522	21.000000
2137.211735	20.800000
2138.859236	32.400000
2140.508103	50.000000
2142.154951	9.800000
2143.801474	29.400000
2145.447671	31.800000
2147.090159	36.000000
2148.735706	51.000000
2150.377546	40.200000
2152.022443	34.400000
2153.663635	44.000000
2155.304503	27.400000
2156.945048	49.200000
2158.583580	33.200000
2160.223478	27.000000
2161.859676	42.200000
2163.497240	5.000000
2165.134482	41.200000
2166.769714	23.800000
2168.404624	20.400000
2170.039213	23.600000
2171.673481	21.800000
2173.304055	15.800000
2174.937681	26.800000
2176.567614	33.000000
2178.198914	21.800000
2179.828208	26.600000
2181.457183	39.800000
2183.085838	9.800000
2184.714174	27.600000
2186.340507	12.400000
2187.966522	32.400000
2189.590536	25.400000
2191.215915	24.400000
2192.839293	50.800000
2194.464036	17.600000
2196.085098	35.200000
2197.705843	3.400000
2199.327952	-4.200000
2200.948064	27.800000
2202.566180	28.400000
2204.183980	6.200000
2205.801464	44.000000
2207.418634	31.600000
2209.035487	5.400000
2210.652026	17.600000
2212.266571	35.200000
2213.879125	17.600000
2215.493042	1.800000
2217.104968	16.000000
2218.718257	17.200000
2220.329555	47.400000
2221.938865	21.800000
2223.549537	35.400000
2225.158221	35.800000
2226.766593	23.200000
2228.372978	17.200000
2229.980725	-0.600000
2231.586487	30.400000
2233.191937	14.600000
2234.795402	36.200000
2236.400230	27.800000
2238.003074	5.400000
2239.603935	21.600000
2241.206159	37.000000
2242.806401	23.600000
2244.408005	35.200000
2246.005956	21.600000
2247.605270	25.200000
2249.202604	17.400000
2250.799630	42.200000
2252.398017	15.600000
2253.992757	32.800000
2255.585519	12.800000
2257.179644	31.400000
2258.775130	24.200000
2260.366971	32.800000
2261.958506	29.800000
2263.551402	8.200000
2265.138990	41.200000
2266.731273	29.600000
2268.318249	27.800000
2269.908254	12.000000
2271.492954	29.000000
2273.082348	7.600000
2274.666439	34.600000
2276.251892	47.600000
2277.835376	11.800000
2279.421885	22.800000
2281.004761	41.000000
2282.587334	29.600000
2284.169603	22.200000
2285.748242	21.400000
2287.329906	50.000000
2288.907941	25.400000
2290.488999	23.800000
2292.066430	17.600000
2293.641898	11.400000
2295.220388	38.800000
2296.795254	16.400000
2298.369819	30.000000
2299.944083	22.800000
2301.518047	23.000000
2303.091711	26.000000
2304.665075	27.200000
2306.234820	35.800000
2307.804266	21.000000
2309.376730	17.000000
2310.943920	34.200000
2312.514127	33.400000
2314.080721	11.800000
2315.648673	16.600000
2317.214671	27.400000
2318.780371	16.200000
2320.345773	12.000000
2321.909222	8.000000
2323.474030	13.600000
2325.035229	2.000000
2326.599443	33.000000
2328.158396	36.800000
2329.720362	17.400000
2331.280378	36.200000
2332.840098	27.000000
2334.397870	34.400000
2335.955346	34.600000
2337.512528	15.600000
2339.067762	22.800000
2340.622702	22.400000
2342.177349	29.000000
2343.731702	40.600000
2345.285761	11.600000
2346.839527	13.200000
2348.391348	48.400000
2349.941226	4.000000
2351.494113	17.600000
2353.041756	16.800000
2354.592407	8.600000
2356.139468	13.000000
2357.687886	13.800000
2359.236013	14.000000
2360.780551	13.800000
2362.326447	26.800000
2363.870404	21.400000
2365.415719	24.800000
2366.957449	-0.200000
2368.500537	7.800000
2370.041688	-2.400000
2371.582550	-7.000000
2373.123123	57.200000
2374.663407	36.200000
2376.203402	18.600000
2377.739818	30.600000
2379.279236	12.800000
2380.815077	30.600000
2382.352275	13.400000
2383.885897	24.400000
2385.422519	25.200000
2386.957211	22.800000
2388.489972	9.800000
2390.022448	32.200000
2391.552995	26.200000
2393.086540	17.000000
2394.614874	30.000000
2396.144564	25.800000
2397.673969	32.200000
2399.203089	-2.200000
2400.731923	24.600000
2402.255553	47.600000
2403.783818	31.200000
2405.306880	6.000000
2406.834577	31.400000
2408.355434	36.600000
2409.880923	14.800000
2411.402853	5.800000
2412.926137	44.600000
2414.447501	36.400000
2415.966945	35.200000
2417.487744	38.800000
2419.006624	33.800000
2420.525223	10.200000
2422.041903	43.000000
2423.559939	8.200000
2425.077693	20.600000
2426.591895	30.400000
2428.105818	46.600000
2429.619460	28.000000
2431.134456	36.800000
2432.645905	28.600000
2434.158707	17.600000
2435.669597	24.600000
2437.180208	17.800000
2438.688907	33.800000
2440.200592	13.000000
2441.708734	14.600000
2443.216598	37.200000
2444.724183	40.000000
2446.228229	22.000000
2447.735259	3.200000
2449.240381	12.200000
2450.745226	37.400000
2452.248164	45.000000
2453.750825	13.400000
2455.253211	3.400000
2456.753690	37.600000
2458.255524	11.600000
2459.755452	27.800000
2461.255105	41.600000
2462.754483	24.600000
2464.251958	40.400000
2465.747531	18.400000
2467.246084	8.000000
2468.741109	50.200000
2470.237486	27.600000
2471.730337	9.400000
2473.224541	3.600000
2474.718471	30.000000
2476.208877	25.000000
2477.702261	22.200000
2479.193747	41.000000
2480.683336	43.600000
2482.172653	7.000000
2483.660074	10.600000
2485.150471	32.600000
2486.637350	44.400000
2488.125580	40.800000
2489.610293	30.600000
2491.094736	19.800000
2492.580531	8.000000
2494.064434	4.800000
2495.549687	28.600000
2497.029807	31.000000
2498.512899	-0.800000
2499.994102	21.800000
2501.475035	33.400000
2502.954078	18.000000
2504.432854	19.000000
2505.911361	32.200000
2507.389599	26.400000
2508.867570	33.600000
2510.342035	32.600000
2511.819470	29.400000
2513.293400	19.400000
2514.768682	44.400000
2516.243696	14.800000
2517.715209	12.600000
2519.188073	21.000000
2520.659054	22.200000
2522.131385	34.000000
2523.598602	30.200000
2525.068786	30.800000
2526.537089	31.400000
2528.005126	32.400000
2529.472899	20.600000
2530.940407	26.800000
2532.407651	14.000000
2533.871402	28.800000
2535.336503	30.000000
2536.799727	22.000000
2538.264300	45.600000
2539.725385	18.400000
2541.187819	32.200000
2542.649990	25.600000
2544.108674	17.400000
2545.571931	19.800000
2547.030091	5.400000
2548.489601	44.600000
2549.944016	0.800000
2551.403002	5.000000
2552.860116	38.200000
2554.315358	28.600000
2555.770340	10.400000
2557.223452	14.600000
2558.677913	31.400000
2560.130505	15.400000
2561.582837	40.600000
2563.033301	23.000000
2564.486722	14.000000
2565.935060	12.200000
2567.386353	41.600000
2568.835780	6.000000
2570.281736	33.200000
2571.730646	3.200000
2573.176085	13.000000
2574.622873	4.000000
2576.067797	25.400000
2577.512464	29.200000
2578.958478	36.200000
2580.401025	34.800000
2581.844920	31.000000
2583.285350	14.400000
2584.727128	0.800000
2586.167046	39.400000
2587.608311	37.400000
2589.046114	22.800000
2590.486867	10.400000
2591.922558	23.000000
2593.361197	34.400000
2594.797980	22.800000
2596.232907	18.600000
2597.670781	36.400000
2599.103598	22.200000
2600.537762	31.600000
2601.970071	38.600000
2603.403728	35.200000
2604.835530	34.200000
2606.267080	5.200000
2607.698376	44.200000
2609.127821	1.000000
2610.557013	32.200000
2611.984354	17.000000
2613.413042	47.400000
2614.841477	40.200000
2616.266466	16.400000
2617.692800	13.200000
2619.117287	26.200000
2620.543118	28.800000
2621.965507	1.800000
2623.389240	26.000000
2624.811128	32.000000
2626.232765	51.200000
2627.652558	28.000000
2629.073696	33.200000
2630.494584	41.800000
2631.912033	27.800000
2633.332422	30.600000
2634.749374	23.000000
2636.166078	35.400000
2637.582533	31.000000
2638.998740	41.800000
2640.414699	14.400000
2641.828817	33.800000
2643.242687	28.800000
2644.654718	10.400000
2646.068094	14.800000
2647.478040	38.600000
2648.890922	18.600000
2650.300375	39.200000
2651.709582	2.000000
2653.116953	13.800000
2654.527258	40.200000
2655.935727	20.800000
2657.342362	41.000000
2658.748750	47.200000
2660.153306	38.800000
2661.559205	18.200000
2662.963270	38.200000
2664.367092	54.600000
2665.770669	61.200000
2667.172415	46.400000
2668.575504	37.600000
2669.975175	52.800000
2671.376190	46.600000
2672.773789	42.800000
2674.174317	40.600000
2675.571431	43.600000
2676.969888	32.200000
2678.366517	41.000000
2679.762905	47.800000
2681.159050	38.800000
2682.553369	21.800000
2683.949031	34.000000
2685.341284	61.000000
2686.734879	49.600000
2688.126650	70.400000
2689.519764	43.800000
2690.911053	51.600000
2692.300521	68.800000
2693.689748	49.000000
2695.078735	51.800000
2696.469065	54.200000
2697.854411	35.000000
2699.242680	38.600000
2700.629129	80.000000
2702.015339	67.800000
2703.401310	40.400000
2704.783883	47.000000
2706.167798	60.200000
2707.551474	65.400000
2708.934913	54.800000
2710.314956	66.200000
2711.696341	47.400000
2713.075910	75.200000
2714.456821	67.000000
2715.835917	64.600000
2717.213199	77.800000
2718.591822	45.200000
2719.968631	65.200000
2721.345205	56.800000
2722.721543	48.800000
2724.096069	74.400000
2725.471936	60.600000
2726.844416	56.200000
2728.219813	56.400000
2729.590249	54.800000
2730.962025	48.200000
2732.333568	39.200000
2733.703302	40.600000
2735.074376	39.400000
2736.443643	26.000000
2737.812676	50.200000
2739.179903	25.400000
2740.546896	61.200000
2741.913657	20.000000
2743.280185	33.600000
2744.644909	34.400000
2746.009400	19.600000
2747.373659	12.200000
2748.737687	35.800000
2750.101482	35.000000
2751.461905	20.600000
2752.825237	36.000000
2754.183627	24.400000
2755.544927	39.000000
2756.902857	-3.000000
2758.263695	47.600000
2759.622733	16.600000
2760.978403	16.000000
2762.336982	7.600000
2763.692193	32.200000
2765.047175	14.800000
2766.400360	46.400000
2767.756452	8.400000
2769.109180	24.400000
2770.461679	18.800000
2771.813951	3.400000
2773.167560	30.200000
2774.517808	14.800000
2775.866263	21.200000
2777.217622	39.400000
2778.565622	23.400000
2779.914961	18.600000
2781.262507	18.800000
2782.609827	19.800000
2783.956919	25.800000
2785.302221	47.600000
2786.647297	23.000000
2787.992147	17.200000
2789.336771	22.800000
2790.678043	14.200000
2792.020652	-6.000000
2793.363037	8.400000
2794.705196	14.800000
2796.044006	26.800000
2797.385716	34.600000
2798.724077	34.800000
2800.063776	28.400000
2801.401689	27.400000
2802.737818	13.800000
2804.073724	7.600000
2805.410967	26.600000
2806.746425	31.600000
2808.081661	3.400000
2809.415115	27.400000
2810.749905	19.000000
2812.081354	28.800000
2813.415699	24.400000
2814.745146	9.600000
2816.075930	25.600000
2817.406492	28.600000
2818.735275	7.200000
2820.065395	26.800000
2821.393736	2.800000
2822.721855	14.000000
2824.048198	24.600000
2825.375876	18.800000
2826.700222	28.200000
2828.025904	17.200000
2829.349810	47.600000
2830.673496	18.400000
2831.998518	22.200000
2833.320211	-6.000000
2834.641685	20.400000
2835.962939	9.000000
2837.283975	15.400000
2838.603239	42.800000
2839.923838	-2.200000
2841.242665	13.800000
2842.561274	25.400000
2843.878113	22.600000
2845.194734	34.800000
2846.511138	25.400000
2847.825772	16.000000
2849.141741	15.600000
2850.454391	20.200000
2851.768375	5.600000
2853.082143	28.600000
2854.395694	4.000000
2855.707479	27.800000
2857.017497	21.800000
2858.328850	20.800000
2859.636888	21.000000
2860.946260	19.400000
2862.255417	18.800000
2863.564359	18.400000
2864.871538	19.200000
2866.176953	15.000000
2867.483703	12.000000
2868.788691	16.000000
2870.093464	32.800000
2871.396477	16.200000
2872.702370	28.400000
2874.003409	27.000000
2875.305781	-10.800000
2876.606395	-9.000000
2877.908341	26.400000
2879.210075	30.000000
2880.508505	30.400000
2881.808268	13.800000
2883.106274	12.600000
2884.404068	22.600000
2885.700105	12.400000
2886.997476	38.400000
2888.293092	16.400000
2889.588496	30.400000
2890.883689	19.600000
2892.175585	20.200000
2893.470356	33.800000
2894.761832	13.000000
2896.054640	37.600000
2897.347238	20.400000
2898.636541	26.200000
2899.927178	29.400000
2901.216063	24.800000
2902.506280	19.800000
2903.793206	47.800000
2905.081464	25.800000
2906.367973	31.400000
2907.654273	11.600000
2908.940365	1.800000
2910.224709	29.400000
2911.511925	5.800000
2912.794314	47.000000
2914.078035	29.000000
2915.360009	-1.800000
2916.641777	6.200000
2917.921799	15.600000
2919.204691	14.000000
2920.485838	27.000000
2921.763703	19.000000
2923.044437	48.200000
2924.321890	24.200000
2925.599138	19.400000
2926.874643	22.000000
2928.153016	8.200000
2929.426575	8.400000
2930.703001	-4.000000
2931.977685	45.200000
2933.250630	26.600000
2934.524906	-5.600000
2935.797441	19.400000
2937.069773	9.600000
2938.338832	32.800000
2939.610756	35.400000
2940.880942	8.400000
2942.150924	21.600000
2943.420703	16.000000
2944.688746	29.600000
2945.955052	22.200000
2947.221156	23.400000
2948.488591	13.200000
2949.754290	-13.800000
2951.019788	13.000000
2952.285083	6.400000
2953.547113	5.600000
2954.810473	12.200000
2956.073632	12.800000
2957.335058	13.800000
2958.597815	22.400000
2959.858839	31.800000
2961.118133	11.000000
2962.377226	10.000000
2963.636120	41.000000
2964.894812	13.800000
2966.153305	36.800000
2967.410069	22.400000
2968.666634	35.600000
2969.921470	26.400000
2971.177636	25.800000
2972.430547	5.200000
2973.684786	21.000000
2974.938827	24.200000
2976.191142	1.600000
2977.443259	24.400000
2978.693651	34.000000
2979.946898	11.200000
2981.195368	18.600000
2982.446693	36.800000
2983.694768	37.600000
2984.942646	32.600000
2986.190328	13.400000
2987.437812	27.800000
2988.683575	19.600000
2989.929141	17.600000
2991.176036	26.000000
2992.419686	33.200000
2993.664663	27.600000
2994.906398	9.000000
2996.150984	1.400000
2997.393851	18.400000
2998.633477	13.000000
2999.875953	0.800000
3001.115189	18.200000
3002.355753	15.200000
3003.594600	23.600000
3004.833253	25.800000
3006.070190	24.200000
3007.308455	-3.600000
3008.545004	34.200000
3009.781360	14.400000
3011.017522	15.600000
3012.251970	23.600000
3013.486225	10.200000
3014.720287	13.800000
3015.952637	26.200000
3017.183275	14.600000
3018.416759	29.400000
3019.648532	3.600000
3020.878593	5.200000
3022.108463	31.400000
3023.336623	1.400000
3024.566110	10.400000
3025.793887	18.800000
3027.021473	5.800000
3028.250385	17.400000
3029.474555	23.800000
3030.701568	-9.600000
3031.925358	7.200000
3033.150473	13.400000
3034.373883	1.600000
3035.597102	9.600000
3036.818616	11.000000
3038.042971	18.400000
3039.262591	11.400000
3040.483537	41.800000
3041.704293	11.800000
3042.923347	21.800000
3044.143725	-7.200000
3045.360887	7.200000
3046.579374	31.800000
3047.796160	13.800000
3049.012757	18.400000
3050.229167	26.600000
3051.442363	19.600000
3052.658397	17.400000
3053.871219	9.600000
3055.086878	29.000000
3056.297814	18.600000
3057.510076	23.000000
3058.722150	-6.200000
3059.934038	1.200000
3061.144229	32.800000
3062.354233	35.200000
3063.564051	28.800000
3064.772173	46.800000
3065.980110	12.600000
3067.186351	25.600000
3068.393917	7.400000
3069.599788	2.400000
3070.805474	-2.600000
3072.010976	33.000000
3073.214784	25.600000
3074.419916	29.800000
3075.623355	21.600000
3076.825102	12.400000
3078.026666	27.400000
3079.228046	7.800000
3080.429242	19.000000
3081.628748	3.400000
3082.828071	15.200000
3084.028717	9.800000
3085.227673	6.800000
3086.423434	13.400000
3087.622025	4.200000
3088.817422	31.400000
3090.014143	17.200000
3091.207671	4.400000
3092.404027	3.400000
3093.598696	14.800000
3094.790175	6.200000
3095.985986	45.400000
3097.177102	22.200000
3098.369542	10.000000
3099.558793	13.200000
3100.750871	8.400000
3101.941265	15.400000
3103.128473	25.600000
3104.317003	15.600000
3105.506856	0.200000
3106.693524	18.200000
3107.880013	18.400000
3109.066323	16.200000
3110.253954	28.800000
3111.438403	9.800000
3112.621173	12.600000
3113.806765	34.400000
3114.990678	29.800000
3116.172911	-1.000000
3117.354967	2.600000
3118.536844	36.800000
3119.718543	10.000000
3120.898565	17.400000
3122.076910	12.000000
3123.258075	-3.400000
3124.436065	25.800000
3125.613878	23.800000
3126.791514	-8.200000
3127.967475	15.800000
3129.143260	24.400000
3130.320365	30.000000
3131.495797	24.400000
3132.669555	17.000000
3133.841640	7.600000
3135.015046	11.200000
3136.188277	22.200000
3137.359836	17.800000
3138.532715	30.400000
3139.702427	17.600000
3140.873460	13.600000
3142.042822	10.800000
3143.210515	27.400000
3144.381023	9.000000
3145.546872	21.000000
3146.717031	5.600000
3147.882532	8.400000
3149.047860	18.600000
3150.213014	4.800000
3151.377995	13.000000
3152.544295	15.600000
3153.705942	22.000000
3154.868910	22.600000
3156.031705	3.000000
3157.194326	10.600000
3158.355283	22.200000
3159.516068	20.800000
3160.676680	7.600000
3161.835628	22.800000
3162.994405	24.200000
3164.153009	10.400000
3165.311442	21.400000
3166.469703	12.200000
3167.626303	6.800000
3168.781241	30.200000
3169.937498	27.800000
3171.092094	8.600000
3172.246520	17.400000
3173.399285	23.000000
3174.551881	10.800000
3175.704307	24.000000
3176.856562	24.200000
3178.008648	34.600000
3179.157587	16.800000
3180.309333	14.800000
3181.459422	-1.800000
3182.607853	19.800000
3183.756116	8.000000
3184.904210	17.400000
3186.052135	11.800000
3187.198404	12.200000
3188.344505	22.200000
3189.488952	26.800000
3190.633230	13.800000
3191.777341	6.400000
3192.922770	32.000000
3194.065060	17.200000
3195.207182	37.600000
3196.349138	35.800000
3197.490926	2.000000
3198.632547	-4.000000
3199.771033	4.200000
3200.910836	7.800000
3202.051956	4.000000
3203.189943	28.600000
3204.326279	10.400000
3205.462451	23.400000
3206.599939	-15.600000
3207.735779	36.600000
3208.872936	20.800000
3210.005480	9.200000
3211.142305	21.600000
3212.274520	29.400000
3213.408051	16.800000
3214.541417	8.200000
3215.671657	34.800000
3216.804694	8.600000
3217.934605	7.600000
3219.065832	16.200000
3220.193934	-2.400000
3221.324834	11.800000
3222.454089	4.400000
3223.581701	29.200000
3224.706190	12.800000
3225.834955	30.600000
3226.960598	17.600000
3228.086078	3.600000
3229.209917	10.600000
3230.336551	-3.400000
3231.458587	26.200000
3232.581939	21.800000
3233.705128	12.600000
3234.828156	17.200000
3235.949544	14.600000
3237.070771	47.000000
3238.190359	14.000000
3239.309786	21.800000
3240.427576	4.200000
3241.548157	23.400000
3242.665625	10.600000
3243.782932	54.600000
3244.900079	9.800000
3246.015589	13.800000
3247.132415	5.400000
3248.246130	24.000000
3249.362636	18.200000
3250.477506	24.200000
3251.589268	36.400000
3252.700871	30.000000
3253.813789	32.400000
3254.926547	10.200000
3256.036199	22.200000
3257.147166	22.400000
3258.257974	16.800000
3259.367150	0.200000
3260.474695	14.000000
3261.583555	18.400000
3262.692256	24.000000
3263.797855	10.800000
3264.904769	-16.800000
3266.010053	13.800000
3267.116651	5.200000
3268.220149	21.600000
3269.324961	14.800000
3270.429616	22.000000
3271.531173	6.800000
3272.632573	17.800000
3273.735287	17.600000
3274.837845	38.400000
3275.937306	34.000000
3277.039551	-19.400000
3278.138700	-1.800000
3279.236224	25.400000
3280.333594	1.400000
3281.433745	19.600000
3282.530804	35.000000
3283.627707	38.000000
3284.724455	26.400000
3285.816644	-15.200000
3286.913083	5.000000
3288.007899	16.400000
3289.102560	16.400000
3290.195600	27.800000
3291.288486	-5.600000
3292.379751	16.000000
3293.472329	17.400000
3294.563287	-6.800000
3295.652625	9.600000
3296.741810	14.200000
3297.832307	5.600000
3298.919721	0.000000
3300.006981	0.200000
3301.095554	3.400000
3302.183974	7.000000
3303.267848	2.200000
3304.355963	15.200000
3305.440996	13.000000
3306.524414	24.000000
3307.609144	25.000000
3308.692258	12.800000
3309.776684	0.600000
3310.858033	21.000000
3311.940693	45.600000
3313.021738	16.400000
3314.102633	32.800000
3315.181915	15.200000
3316.261046	49.200000
3317.341489	32.800000
3318.418857	3.200000
3319.497537	15.600000
3320.574605	11.200000
3321.651523	9.600000
3322.726831	-2.800000
3323.801989	42.000000
3324.878458	-2.200000
3325.951857	7.400000
3327.025106	7.600000
3328.099667	-13.000000
3329.172619	16.000000
3330.243962	17.400000
3331.316616	9.000000
3332.386203	34.600000
3333.457101	21.800000
3334.526393	-2.000000
3335.596994	23.200000
3336.665989	11.000000
3337.733379	22.200000
3338.799163	-1.200000
3339.869173	10.800000
3340.936120	10.000000
3342.000005	6.800000
3343.066657	6.400000
3344.131706	8.000000
3345.195151	13.200000
3346.258450	25.200000
3347.321602	-16.400000
3348.384608	13.000000
3349.447468	-5.400000
3350.508725	26.000000
3351.566926	24.800000
3352.629348	31.800000
3353.688714	4.600000
3354.747934	-6.800000
3355.808463	9.800000
3356.864484	38.000000
3357.923268	-1.400000
3358.977545	10.600000
3360.034586	8.000000
3361.090028	27.800000
3362.146780	16.800000
3363.201933	16.200000
3364.255489	31.800000
3365.307448	24.800000
3366.362170	15.600000
3367.413842	-2.800000
3368.465370	-16.800000
3369.518208	0.400000
3370.567998	10.000000
3371.619097	25.400000
3372.667149	33.800000
3373.717962	-9.200000
3374.765729	21.000000
3375.813354	6.800000
3376.860837	29.400000
3377.906727	18.000000
3378.953925	22.800000
3379.998080	16.200000
3381.044995	3.800000
3382.090317	20.000000
3383.132598	28.800000
3384.174738	16.800000
3385.218187	17.000000
3386.261494	-7.400000
3387.303211	11.600000
3388.344788	12.000000
3389.386223	12.200000
3390.426070	50.200000
3391.464328	3.600000
3392.503894	22.800000
3393.543320	20.800000
3394.581158	22.200000
3395.617409	0.600000
3396.653520	31.200000
3397.690939	20.800000
3398.725325	7.800000
3399.761019	20.200000
3400.796573	-9.400000
3401.829095	-11.600000
3402.864371	34.800000
3403.896617	22.200000
3404.928723	25.200000
3405.959247	13.400000
3406.991077	17.400000
3408.022769	15.400000
3409.051433	27.800000
3410.079960	10.000000
3411.109793	15.400000
3412.139489	2.400000
3413.166159	4.600000
3414.194135	31.200000
3415.219087	39.800000
3416.246790	17.400000
3417.271468	5.400000
3418.297453	8.600000
3419.321859	2.000000
3420.346128	27.400000
3421.368818	24.000000
3422.391372	21.400000
3423.415232	12.200000
3424.436072	9.800000
3425.456776	-14.200000
3426.478786	13.200000
3427.497778	6.000000
3428.516635	34.600000
3429.536798	0.000000
3430.553944	1.000000
