-165.528079	-7.000000
-162.858479	13.400000
-160.191814	-29.200000
-157.525901	2.400000
-154.862921	12.400000
-152.198510	-3.800000
-149.537030	-21.200000
-146.874121	-8.600000
-144.216318	7.000000
-141.557086	3.200000
-138.898602	6.800000
-136.243043	2.000000
-133.586054	6.600000
-130.934164	-15.800000
-128.280844	20.200000
-125.630443	1.600000
-122.978614	16.600000
-120.331874	-4.200000
-117.683706	1.800000
-115.036280	23.600000
-112.391769	11.400000
-109.745828	-38.800000
-107.104969	6.200000
-104.462681	17.000000
-101.823302	1.200000
-99.182493	-12.600000
-96.542425	-1.600000
-93.907430	-13.400000
-91.271005	25.800000
-88.637483	-7.000000
-86.002533	12.200000
-83.372648	-7.600000
-80.739171	33.200000
-78.110756	-10.200000
-75.483075	0.800000
-72.853965	-4.200000
-70.229912	9.200000
-67.602270	30.600000
-64.979681	38.600000
-62.357824	10.400000
-59.736697	53.600000
-57.116301	103.400000
-54.498792	293.000000
-51.879855	927.800000
-49.263803	2181.200000
-46.648480	2648.400000
-44.033885	1736.600000
-41.422171	278.400000
-38.809029	43.200000
-36.200921	7.000000
-33.589231	11.800000
-30.982572	9.000000
-28.374485	1.400000
-25.767122	13.800000
-23.164784	16.400000
-20.558868	-16.000000
-17.957974	-3.400000
-15.355652	16.200000
-12.758347	50.000000
-10.157467	7.400000
-7.561602	-5.400000
-4.964308	11.200000
-2.367734	0.800000
0.223831	4.400000
2.816824	9.600000
5.406956	19.000000
7.998515	5.200000
10.587216	4.600000
13.177343	9.800000
15.762471	-28.800000
18.349027	-7.800000
20.934869	-5.200000
23.517857	-0.400000
26.102271	-20.600000
28.679557	-9.000000
31.260409	-11.200000
33.838412	-29.600000
36.415705	-5.000000
38.994424	15.800000
41.568161	-16.200000
44.143326	2.200000
46.715647	9.600000
49.287260	22.600000
51.856033	4.400000
54.426233	-1.600000
56.993594	-19.000000
59.562382	12.600000
62.128333	8.200000
64.691449	5.800000
67.258121	-8.600000
69.815572	3.800000
72.378708	-22.400000
74.936884	7.000000
77.498615	10.200000
80.055389	22.600000
82.613589	40.800000
85.166837	58.400000
87.719387	82.800000
90.275487	102.800000
92.826639	160.400000
95.377094	165.200000
97.926851	205.400000
100.473789	222.200000
103.020032	225.000000
105.567700	232.200000
108.114672	227.400000
110.656709	232.200000
113.198052	236.800000
115.738702	234.000000
118.280778	224.600000
120.820042	223.800000
123.356498	247.600000
125.892262	230.200000
128.429452	225.000000
130.965951	227.000000
133.499644	216.400000
136.030533	232.000000
138.560735	214.600000
141.092361	233.200000
143.621186	215.800000
146.147212	217.400000
148.672552	220.000000
151.199317	218.600000
153.723286	209.400000
156.246570	217.200000
158.769169	225.000000
161.288975	227.000000
163.808098	213.200000
166.326538	223.400000
168.846402	191.000000
171.359265	235.600000
173.875659	233.600000
176.391371	254.400000
178.902193	222.400000
181.414440	231.400000
183.923905	238.800000
186.432690	226.800000
188.940798	208.200000
191.450330	219.600000
193.954981	194.800000
196.458956	229.000000
198.964355	224.200000
201.464879	258.600000
203.968926	231.600000
206.466003	216.200000
208.966603	214.400000
211.464431	220.200000
213.961586	232.000000
216.458068	223.800000
218.949687	223.600000
221.444826	254.200000
223.937198	216.800000
226.428900	241.000000
228.917839	229.400000
231.408201	231.600000
233.895802	226.400000
236.380643	255.600000
238.868999	228.800000
241.350415	230.200000
243.835345	234.800000
246.315430	245.800000
248.799027	240.000000
251.277781	223.400000
253.757958	248.600000
256.235384	288.400000
258.712146	246.600000
261.188244	241.800000
263.661595	253.400000
266.134283	287.200000
268.606310	273.800000
271.077676	356.400000
273.546297	343.400000
276.014260	352.000000
278.483644	308.200000
280.948206	327.200000
283.416272	300.000000
285.879518	266.600000
288.342106	276.200000
290.804038	251.600000
293.265313	245.200000
295.723854	260.000000
298.183817	237.200000
300.641047	259.200000
303.097623	278.600000
305.553545	266.800000
308.006737	288.000000
310.461352	265.800000
312.911165	237.200000
315.364474	237.000000
317.812984	291.000000
320.260844	248.800000
322.710126	259.600000
325.154614	242.400000
327.600524	235.800000
330.045784	264.000000
332.488326	255.000000
334.930220	258.800000
337.371467	255.600000
339.809998	275.400000
342.249951	266.200000
344.687190	248.200000
347.121717	265.400000
349.559732	282.000000
351.992970	242.800000
354.427629	258.600000
356.857516	255.000000
359.290888	257.400000
361.719490	274.000000
364.147450	245.400000
366.576832	257.200000
369.001448	238.400000
371.427486	290.400000
373.852883	255.800000
376.277640	242.600000
378.697639	290.000000
381.119058	297.800000
383.537782	261.400000
385.957926	243.800000
388.375375	275.600000
390.794244	262.400000
393.210420	271.800000
395.621848	249.000000
398.036753	277.200000
400.448969	222.000000
402.860550	244.000000
405.271497	277.400000
407.679758	263.800000
410.087386	247.800000
412.494382	239.200000
414.900747	266.600000
417.304429	258.200000
419.707481	262.600000
422.109903	271.800000
424.511695	243.800000
426.910809	251.200000
429.311343	241.400000
431.711248	234.200000
434.106431	234.000000
436.505080	284.200000
438.899009	236.200000
441.292311	284.800000
443.684989	234.200000
446.077041	268.600000
448.470511	231.000000
450.859269	221.400000
453.245361	219.800000
455.632873	206.800000
458.019762	212.200000
460.403987	206.000000
462.789630	193.000000
465.172612	184.000000
467.552933	194.000000
469.934673	184.600000
472.313754	178.200000
474.694254	184.200000
477.072096	168.000000
479.447282	173.600000
481.821852	172.400000
484.197839	159.400000
486.571174	157.600000
488.945926	183.400000
491.315993	164.800000
493.685444	183.000000
496.056313	153.200000
498.422501	164.200000
500.790108	158.200000
503.155070	146.200000
505.519418	141.600000
507.883153	145.200000
510.248306	157.600000
512.608787	162.000000
514.970686	128.600000
517.329944	192.000000
519.686564	134.400000
522.046630	143.000000
524.400004	152.200000
526.756823	137.200000
529.111007	137.000000
531.464582	114.400000
533.817550	132.200000
536.167885	151.200000
538.519638	153.200000
540.864714	135.600000
543.215254	133.400000
545.559120	169.600000
547.908448	159.400000
550.253127	130.000000
552.595182	141.600000
554.938654	134.000000
557.279503	118.200000
559.619750	142.400000
561.957376	131.400000
564.298437	172.600000
566.634860	121.800000
568.972700	158.200000
571.307923	134.400000
573.640530	139.000000
575.974553	135.000000
578.305962	140.600000
580.636773	142.000000
582.966987	131.200000
585.296602	121.400000
587.621594	148.400000
589.952028	128.000000
592.277841	116.400000
594.601046	115.000000
596.925668	132.600000
599.247684	120.200000
601.569106	134.000000
603.887926	121.200000
606.208161	116.000000
608.527803	116.600000
610.844844	124.600000
613.161293	130.600000
615.475144	118.600000
617.790411	116.200000
620.103081	113.800000
622.417166	123.400000
624.726651	149.800000
627.037552	101.600000
629.345860	114.400000
631.653580	151.400000
633.962714	149.200000
636.267256	122.800000
638.571212	121.400000
640.874582	119.600000
643.179366	110.800000
645.479563	114.600000
647.781176	107.200000
650.082203	113.000000
652.378649	93.200000
654.676510	98.600000
656.973787	133.200000
659.270481	114.200000
661.562599	119.200000
663.858128	110.200000
666.149083	97.800000
668.441453	102.400000
670.731248	136.600000
673.020462	104.800000
675.309097	142.600000
677.595159	113.800000
679.882636	136.400000
682.167541	96.400000
684.451869	120.200000
686.733628	114.800000
689.016801	103.000000
691.299397	91.200000
693.577437	123.000000
695.856892	106.000000
698.135770	126.600000
700.414074	117.400000
702.687828	120.800000
704.962995	111.800000
707.237589	132.400000
709.509624	140.200000
711.783072	109.600000
714.053962	126.600000
716.322296	145.000000
718.592043	130.400000
720.859236	125.400000
723.125858	139.400000
725.391910	147.200000
727.655411	110.800000
729.920325	103.000000
732.184669	106.600000
734.444484	137.000000
736.705711	121.600000
738.966371	130.800000
741.224485	130.600000
743.480054	120.400000
745.739014	137.000000
747.991475	142.800000
750.249302	119.600000
752.502611	157.000000
754.753380	136.800000
757.005561	118.000000
759.255203	109.000000
761.506258	114.800000
763.752801	99.000000
766.000756	112.600000
768.246177	128.000000
770.493009	101.000000
772.739280	101.200000
774.981046	121.800000
777.226196	99.000000
779.464873	126.600000
781.706932	137.400000
783.944493	153.600000
786.183466	91.000000
788.419912	134.800000
790.657769	112.000000
792.893101	99.400000
795.125910	134.600000
797.360130	110.400000
799.591827	116.800000
801.822970	106.600000
804.053558	97.600000
806.283592	128.600000
808.513072	105.600000
810.738070	107.800000
812.966443	84.200000
815.190336	144.200000
817.415641	115.600000
819.636470	120.200000
821.860671	118.200000
824.080399	116.000000
826.301537	135.200000
828.522125	116.000000
830.740204	94.400000
832.959692	112.800000
835.174714	107.600000
837.389188	134.400000
839.603115	104.400000
841.816495	120.200000
844.029327	105.000000
846.241613	116.200000
848.451396	127.400000
850.660634	109.400000
852.869327	114.800000
855.075520	112.400000
857.283124	100.200000
859.488229	110.000000
861.692791	79.600000
863.894858	99.200000
866.098334	112.600000
868.299316	125.800000
870.499756	126.800000
872.701605	128.600000
874.897063	123.400000
877.095880	118.400000
879.290258	119.200000
881.487994	117.400000
883.681294	88.400000
885.876003	106.200000
888.068226	132.800000
890.259910	123.200000
892.451057	107.000000
894.639721	128.000000
896.827849	107.600000
899.013496	141.000000
901.202495	116.200000
903.387071	128.400000
905.571112	123.600000
907.758503	147.000000
909.937590	134.000000
912.120028	128.400000
914.301932	137.000000
916.481361	145.200000
918.658318	99.600000
920.836683	122.200000
923.016455	157.600000
925.189878	165.800000
927.366647	111.800000
929.539009	148.600000
931.712779	127.200000
933.882145	146.000000
936.054855	142.600000
938.225100	154.600000
940.394815	121.200000
942.564003	156.200000
944.728793	159.600000
946.896924	146.600000
949.060660	142.200000
951.225804	163.000000
953.388488	154.200000
955.550647	183.800000
957.710349	142.000000
959.869526	191.800000
962.030110	162.400000
964.188239	166.200000
966.345845	152.000000
968.502927	153.800000
970.659485	154.400000
972.811664	188.400000
974.965250	172.400000
977.118314	188.800000
979.268929	186.600000
981.420951	168.800000
983.568599	190.000000
985.719579	172.800000
987.866188	159.200000
990.012278	182.600000
992.157850	149.000000
994.304827	186.000000
996.445515	210.400000
998.589533	185.600000
1000.731110	217.200000
1002.872171	217.400000
1005.014636	193.000000
1007.150821	191.800000
1009.290333	197.000000
1011.425490	201.600000
1013.563971	163.800000
1015.698098	192.000000
1017.831712	173.800000
1019.966731	211.400000
1022.097400	196.200000
1024.229474	201.800000
1026.359119	180.600000
1028.488252	190.600000
1030.616873	188.800000
1032.744983	168.800000
1034.870667	145.200000
1036.995841	190.000000
1039.122419	173.800000
1041.244659	197.000000
1043.368304	174.600000
1045.487614	193.200000
1047.612153	166.000000
1049.730448	168.800000
1051.850147	181.800000
1053.967427	180.400000
1056.084200	156.400000
1058.200468	152.400000
1060.314319	168.400000
1062.429575	165.200000
1064.540507	159.000000
1066.654752	153.800000
1068.764676	129.800000
1070.876004	174.200000
1072.986827	150.400000
1075.093334	162.600000
1077.203150	149.400000
1079.308653	142.800000
1081.415558	165.800000
1083.516248	166.200000
1085.622150	135.400000
1087.723743	166.800000
1089.826739	159.800000
1091.929234	149.600000
1094.025522	153.000000
1096.127017	125.600000
1098.224210	141.800000
1100.320905	151.000000
1102.417101	148.000000
1104.512800	154.400000
1106.608000	122.400000
1108.700804	125.800000
1110.795011	137.400000
1112.883025	146.000000
1114.976239	149.400000
1117.063264	148.600000
1119.153588	165.400000
1121.239624	144.600000
1123.328959	167.600000
1125.412112	179.800000
1127.496667	162.800000
1129.582624	161.400000
1131.664299	145.400000
1133.747376	157.200000
1135.828066	160.800000
1137.908266	133.600000
1139.987974	133.000000
1142.067191	144.800000
1144.144026	143.400000
1146.218479	154.200000
1148.296225	168.800000
1150.369701	162.400000
1152.444577	167.000000
1154.515186	140.800000
1156.587196	148.600000
1158.656831	143.800000
1160.727865	143.600000
1162.798413	172.200000
1164.864699	165.400000
1166.932386	147.400000
1168.997701	145.000000
1171.064416	150.200000
1173.126875	108.600000
1175.192619	154.400000
1177.254109	153.200000
1179.317000	149.800000
1181.377523	125.400000
1183.437562	145.200000
1185.497118	147.000000
1187.554310	155.400000
1189.611020	134.600000
1191.665366	155.000000
1193.722994	134.800000
1195.778259	142.400000
1197.829283	149.600000
1199.881707	167.800000
1201.933651	109.000000
1203.983237	171.000000
1206.032344	154.400000
1208.080973	151.400000
1210.129122	173.600000
1212.176794	150.800000
1214.220235	180.400000
1216.266952	182.200000
1218.311315	136.800000
1220.355202	193.200000
1222.396737	175.000000
1224.435923	146.600000
1226.478382	173.400000
1228.516618	163.000000
1230.556253	188.800000
1232.595413	175.000000
1234.630354	190.200000
1236.666694	169.400000
1238.700690	206.200000
1240.736083	226.800000
1242.767264	186.600000
1244.799842	221.600000
1246.831949	200.600000
1248.861715	210.000000
1250.892878	197.400000
1252.919835	229.000000
1254.948189	214.200000
1256.972338	246.200000
1258.999753	268.200000
1261.022965	250.000000
1263.047575	240.800000
1265.069851	263.800000
1267.093524	267.200000
1269.114863	304.000000
1271.135736	323.800000
1273.156141	311.400000
1275.172353	315.400000
1277.189962	318.600000
1279.205243	326.800000
1281.223783	323.600000
1283.238134	327.600000
1285.250158	328.800000
1287.265441	321.600000
1289.276538	325.600000
1291.289032	326.600000
1293.297343	294.800000
1295.308909	289.400000
1297.314437	298.600000
1299.323220	291.000000
1301.327825	308.200000
1303.335684	261.600000
1305.343081	241.600000
1307.344447	237.800000
1309.347209	263.000000
1311.349512	232.400000
1313.351355	229.000000
1315.352738	202.000000
1317.351808	209.600000
1319.350419	221.800000
1321.348572	223.000000
1323.346266	195.400000
1325.339798	216.800000
1327.334725	206.200000
1329.329196	192.200000
1331.323210	190.800000
1333.314917	203.800000
1335.306168	193.000000
1337.295114	173.800000
1339.285456	151.400000
1341.275342	164.200000
1343.262924	166.200000
1345.250053	171.000000
1347.234880	172.200000
1349.221102	140.400000
1351.205023	164.400000
1353.188492	154.400000
1355.171509	157.600000
1357.152228	151.800000
1359.134341	162.600000
1361.114158	162.200000
1363.093523	156.000000
1365.068750	150.400000
1367.047215	187.400000
1369.023387	150.400000
1370.999110	142.000000
1372.974383	153.400000
1374.947365	139.600000
1376.919899	176.200000
1378.891985	145.200000
1380.863624	174.000000
1382.831134	139.600000
1384.803718	158.600000
1386.768496	151.600000
1388.738347	147.400000
1390.704074	155.200000
1392.671193	166.000000
1394.636029	147.400000
1396.596745	154.000000
1398.562529	163.200000
1400.522358	137.200000
1402.483581	149.000000
1404.446195	182.000000
1406.404695	146.600000
1408.362753	141.600000
1410.320369	144.000000
1412.277542	161.800000
1414.232440	154.400000
1416.188731	141.800000
1418.142747	129.200000
1420.096322	153.200000
1422.047625	173.000000
1424.000321	129.000000
1425.950744	122.600000
1427.900729	160.400000
1429.850275	156.800000
1431.797552	174.400000
1433.742561	178.600000
1435.688963	166.200000
1437.634927	158.400000
1439.580454	155.400000
1441.523715	139.600000
1443.466541	164.000000
1445.407103	136.600000
1447.349056	181.400000
1449.288747	152.600000
1451.228004	139.200000
1453.166825	143.200000
1455.103387	159.800000
1457.041340	148.800000
1458.977034	174.000000
1460.912295	170.200000
1462.845299	151.400000
1464.777872	152.000000
1466.710012	139.200000
1468.641720	143.800000
1470.571174	195.600000
1472.502019	160.600000
1474.432432	178.400000
1476.358773	157.000000
1478.286504	182.000000
1480.211986	174.800000
1482.137038	176.600000
1484.061661	179.000000
1485.985854	205.000000
1487.907801	168.800000
1489.831138	212.400000
1491.752228	194.600000
1493.671074	211.200000
1495.591310	204.600000
1497.509303	223.400000
1499.426869	202.000000
1501.342193	252.200000
1503.258907	208.000000
1505.171566	293.600000
1507.087429	246.800000
1509.001052	275.200000
1510.912437	244.000000
1512.825212	264.200000
1514.733937	274.600000
1516.644051	281.200000
1518.553742	277.800000
1520.463010	288.400000
1522.370044	257.600000
1524.274845	280.200000
1526.181035	275.800000
1528.084993	285.200000
1529.988530	255.800000
1531.891647	285.200000
1533.792534	264.800000
1535.694810	281.000000
1537.594858	209.800000
1539.496293	264.600000
1541.393695	226.400000
1543.290678	213.800000
1545.187243	212.200000
1547.085196	237.400000
1548.977313	193.400000
1550.872625	218.200000
1552.767519	204.000000
1554.660191	209.600000
1556.552446	207.400000
1558.442482	213.400000
1560.332102	209.200000
1562.221307	213.200000
1564.110097	192.000000
1565.996669	195.400000
1567.884629	182.200000
1569.768572	182.200000
1571.653902	156.800000
1573.538819	185.600000
1575.421522	168.400000
1577.305612	185.000000
1579.185690	173.000000
1581.067156	172.400000
1582.946411	175.800000
1584.827052	138.600000
1586.701889	120.800000
1588.581707	144.400000
1590.457521	154.000000
1592.332924	168.600000
1594.209713	141.000000
1596.080706	149.600000
1597.954880	141.600000
1599.825055	148.400000
1601.698411	169.600000
1603.569564	160.000000
1605.438516	130.200000
1607.308852	136.800000
1609.175196	138.200000
1611.042925	138.000000
1612.908455	135.800000
1614.775371	151.600000
1616.638298	120.600000
1618.502610	146.400000
1620.364726	134.200000
1622.226437	136.600000
1624.089534	132.400000
1625.950435	115.800000
1627.809144	97.600000
1629.667449	138.800000
1631.527138	112.200000
1633.381061	157.600000
1635.238157	119.400000
1637.094849	141.800000
1638.947566	105.800000
1640.803454	126.400000
1642.655368	131.600000
1644.506881	146.200000
1646.357993	126.600000
1648.208705	144.600000
1650.059015	135.000000
1651.907142	139.600000
1653.756653	147.400000
1655.600414	132.400000
1657.449126	134.200000
1659.292091	97.200000
1661.138223	113.800000
1662.980392	113.000000
1664.825727	105.600000
1666.665321	142.200000
1668.506299	123.800000
1670.348660	142.600000
1672.187065	141.600000
1674.026853	144.600000
1675.864465	121.800000
1677.701683	128.600000
1679.536727	124.600000
1681.373154	121.200000
1683.207409	135.000000
1685.041269	114.200000
1686.874735	120.600000
1688.704256	116.800000
1690.536935	126.800000
1692.365670	135.600000
1694.197562	94.800000
1696.025512	136.000000
1697.853071	113.000000
1699.680237	111.200000
1701.507012	148.600000
1703.333395	107.000000
1705.155842	119.200000
1706.981444	135.400000
1708.803111	105.200000
1710.626160	151.200000
1712.447047	118.600000
1714.267546	119.400000
1716.089425	125.200000
1717.905606	131.600000
1719.724938	102.000000
1721.540342	146.000000
1723.358898	107.600000
1725.173528	111.000000
1726.987771	124.200000
1728.801628	114.000000
1730.615098	127.000000
1732.426415	122.800000
1734.239112	102.400000
1736.051424	124.200000
1737.859817	130.600000
1739.669592	134.200000
1741.475452	103.800000
1743.284457	129.400000
1745.089549	112.800000
1746.896022	129.400000
1748.702111	146.200000
1750.504289	119.400000
1752.309612	142.000000
1754.111026	150.400000
1755.913820	100.400000
1757.712708	141.600000
1759.512977	134.200000
1761.312864	120.200000
1763.110609	122.000000
1764.907974	130.800000
1766.704959	79.400000
1768.501563	128.200000
1770.296028	104.800000
1772.091872	129.200000
1773.882061	107.600000
1775.677147	115.800000
1777.466581	113.800000
1779.259151	128.000000
1781.049586	119.200000
1782.837887	125.000000
1784.629323	134.600000
1786.415113	121.400000
1788.202283	87.600000
1789.987321	131.200000
1791.775493	124.600000
1793.559779	124.400000
1795.341935	116.600000
1797.125471	104.600000
1798.906878	139.400000
1800.689664	128.400000
1802.468569	134.400000
1804.248853	140.800000
1806.027012	118.800000
1807.806549	123.200000
1809.583961	115.600000
1811.359249	114.400000
1813.135915	116.600000
1814.910459	128.800000
1816.686381	125.000000
1818.456682	136.600000
1820.230111	155.800000
1822.001420	134.600000
1823.772358	104.200000
1825.544674	142.400000
1827.311376	124.200000
1829.081203	129.600000
1830.847167	110.400000
1832.616255	113.000000
1834.381481	117.000000
1836.146339	118.600000
1837.912574	133.000000
1839.674950	125.200000
1841.436959	141.000000
1843.198600	124.800000
1844.959875	132.000000
1846.720782	125.800000
1848.481323	124.000000
1850.239754	99.800000
1851.997819	110.600000
1853.753777	126.600000
1855.511111	126.600000
1857.268080	119.400000
1859.022942	111.800000
1860.775700	110.200000
1862.528093	99.200000
1864.281863	136.400000
1866.033529	108.000000
1867.783093	141.600000
1869.534032	120.800000
1871.284609	130.600000
1873.031346	119.000000
1874.779460	132.000000
1876.525474	117.200000
1878.272863	123.600000
1880.018155	112.800000
1881.761349	129.200000
1883.505918	100.000000
1885.248391	112.200000
1886.990505	114.800000
1888.732258	115.600000
1890.473651	112.400000
1892.212951	102.000000
1893.951892	114.000000
1895.690474	118.200000
1897.426965	131.200000
1899.163098	132.100000
1900.900605	133.000000
1902.634290	144.800000
1904.369350	136.200000
1906.102321	129.800000
1907.834936	116.800000
1909.567195	129.200000
1911.299097	118.600000
1913.028913	124.600000
1914.756644	127.800000
1916.485750	119.200000
1918.214500	121.600000
1919.941168	88.600000
1921.667481	117.600000
1923.395167	131.200000
1925.117317	100.000000
1926.842568	132.200000
1928.564012	126.600000
1930.288557	133.000000
1932.011021	110.000000
1933.729683	140.400000
1935.451443	124.400000
1937.169401	116.000000
1938.888732	108.400000
1940.604264	131.800000
1942.324616	110.000000
1944.041170	129.400000
1945.753927	119.600000
1947.469780	130.400000
1949.183561	123.200000
1950.896992	136.400000
1952.608352	142.600000
1954.321084	156.000000
1956.030026	67.800000
1957.742060	160.600000
1959.448585	153.600000
1961.158203	103.000000
1962.865754	125.800000
1964.572956	117.200000
1966.278093	126.200000
1967.982884	141.200000
1969.689046	115.400000
1971.391426	138.000000
1973.095177	96.200000
1974.796866	124.200000
1976.498210	127.200000
1978.199208	148.400000
1979.898145	124.400000
1981.598454	118.400000
1983.294987	123.400000
1984.992893	144.600000
1986.688739	137.400000
1988.387671	131.000000
1990.081117	131.000000
1991.775934	119.400000
1993.470409	137.800000
1995.161115	132.200000
1996.854905	117.200000
1998.544928	133.000000
2000.236322	120.000000
2001.925663	129.400000
2003.616374	110.400000
2005.303322	144.800000
2006.989931	126.200000
2008.677909	143.600000
2010.362128	121.400000
2012.047718	134.600000
2013.732968	109.600000
2015.416169	114.400000
2017.100741	109.000000
2018.779849	125.000000
2020.463744	114.600000
2022.142177	130.800000
2023.823688	124.200000
2025.501447	128.200000
2027.178870	130.400000
2028.857662	138.200000
2030.534412	134.400000
2032.209120	125.000000
2033.885197	129.800000
2035.559233	141.000000
2037.232935	136.600000
2038.906301	136.400000
2040.577628	126.600000
2042.248621	143.000000
2043.919280	151.200000
2045.589605	105.400000
2047.259596	89.400000
2048.927551	129.400000
2050.595173	126.800000
2052.260760	145.200000
2053.927716	109.200000
2055.592639	136.400000
2057.257230	122.600000
2058.919789	123.600000
2060.583716	116.400000
2062.245612	139.000000
2063.907178	127.600000
2065.568412	97.000000
2067.227618	109.400000
2068.886493	134.800000
2070.545039	103.200000
2072.203254	134.000000
2073.857747	135.200000
2075.515304	131.200000
2077.172531	134.800000
2078.826038	109.000000
2080.480912	138.400000
2082.132067	129.800000
2083.786285	127.200000
2085.436785	129.200000
2087.088653	136.600000
2088.735112	131.200000
2090.386326	135.800000
2092.033826	117.800000
2093.682693	130.600000
2095.329541	149.800000
2096.976064	128.400000
2098.622261	161.800000
2100.264750	118.800000
2101.910297	125.600000
2103.552137	116.000000
2105.197034	118.600000
2106.838225	121.400000
2108.479094	152.800000
2110.119638	121.200000
2111.758170	133.000000
2113.398068	114.000000
2115.034266	133.600000
2116.671830	132.800000
2118.309072	147.200000
2119.944304	116.200000
2121.579214	129.000000
2123.213803	111.200000
2124.848071	131.800000
2126.478645	120.600000
2128.112271	127.400000
2129.742205	114.600000
2131.373504	151.800000
2133.002798	101.000000
2134.631773	150.600000
2136.260428	125.800000
2137.888764	143.000000
2139.515098	131.400000
2141.141113	132.400000
2142.765126	119.000000
2144.390505	139.800000
2146.013883	129.400000
2147.638626	133.000000
2149.259688	118.800000
2150.880433	153.000000
2152.502543	119.000000
2154.122655	122.200000
2155.740770	141.400000
2157.358570	114.800000
2158.976055	129.200000
2160.593224	135.800000
2162.210078	134.800000
2163.826616	124.800000
2165.441162	135.600000
2167.053715	131.000000
2168.667632	134.400000
2170.279558	139.400000
2171.892847	124.400000
2173.504146	149.400000
2175.113455	144.000000
2176.724128	124.800000
2178.332812	131.600000
2179.941183	118.200000
2181.547568	106.200000
2183.155315	130.600000
2184.761077	115.800000
2186.366527	138.600000
2187.969992	118.000000
2189.574820	128.800000
2191.177664	113.200000
2192.778525	143.200000
2194.380749	120.200000
2195.980991	134.600000
2197.582595	116.800000
2199.180546	141.400000
2200.779860	113.000000
2202.377194	139.200000
2203.974220	150.400000
2205.572608	132.000000
2207.167347	108.600000
2208.760109	130.000000
2210.354234	108.600000
2211.949720	150.200000
2213.541561	140.200000
2215.133096	128.800000
2216.725993	153.400000
2218.313580	145.600000
2219.905863	122.800000
2221.492840	151.400000
2223.082844	119.000000
2224.667544	107.600000
2226.256938	130.200000
2227.841030	149.000000
2229.426482	128.200000
2231.009966	112.000000
2232.596475	117.200000
2234.179351	149.800000
2235.761924	123.600000
2237.344193	120.200000
2238.922832	122.200000
2240.504496	127.200000
2242.082531	141.000000
2243.663589	118.200000
2245.241020	131.200000
2246.816488	144.200000
2248.394978	101.400000
2249.969844	135.200000
2251.544409	125.200000
2253.118673	156.400000
2254.692638	111.200000
2256.266301	120.200000
2257.839665	156.600000
2259.409410	122.200000
2260.978856	110.800000
2262.551320	137.400000
2264.118510	116.200000
2265.688718	140.800000
2267.255311	101.800000
2268.823264	139.000000
2270.389261	142.000000
2271.954961	118.400000
2273.520363	102.800000
2275.083812	154.600000
2276.648620	148.800000
2278.209820	117.800000
2279.774034	129.400000
2281.332986	138.600000
2282.894952	134.000000
2284.454968	153.600000
2286.014689	126.200000
2287.572460	112.800000
2289.129936	112.400000
2290.687118	134.800000
2292.242352	119.800000
2293.797293	161.600000
2295.351939	130.600000
2296.906292	137.000000
2298.460351	123.600000
2300.014117	118.200000
2301.565938	156.800000
2303.115817	120.600000
2304.668703	128.400000
2306.216346	141.600000
2307.766998	113.000000
2309.314058	132.400000
2310.862476	126.000000
2312.410603	122.400000
2313.955141	122.400000
2315.501037	114.000000
2317.044995	102.600000
2318.590309	122.000000
2320.132040	145.600000
2321.675127	85.800000
2323.216278	130.800000
2324.757140	130.800000
2326.297713	132.600000
2327.837997	150.600000
2329.377992	101.400000
2330.914409	135.800000
2332.453827	123.200000
2333.989667	143.000000
2335.526865	148.600000
2337.060487	144.000000
2338.597109	125.400000
2340.131801	117.800000
2341.664563	133.200000
2343.197038	146.600000
2344.727585	132.400000
2346.261130	154.800000
2347.789464	135.600000
2349.319154	145.400000
2350.848559	121.400000
2352.377679	114.200000
2353.906513	164.800000
2355.430143	131.000000
2356.958408	116.000000
2358.481471	139.000000
2360.009167	126.800000
2361.530024	130.000000
2363.055513	139.000000
2364.577443	145.400000
2366.100727	130.600000
2367.622091	140.200000
2369.141535	116.800000
2370.662334	133.400000
2372.181214	108.800000
2373.699813	160.600000
2375.216494	141.200000
2376.734529	131.400000
2378.252283	135.400000
2379.766485	135.800000
2381.280408	173.400000
2382.794050	114.000000
2384.309047	115.000000
2385.820495	128.000000
2387.333298	145.400000
2388.844187	145.800000
2390.354798	133.400000
2391.863497	131.200000
2393.375182	118.200000
2394.883324	144.600000
2396.391188	132.000000
2397.898774	137.600000
2399.402819	122.600000
2400.909849	145.400000
2402.414971	126.600000
2403.919816	143.400000
2405.422754	156.600000
2406.925416	138.800000
2408.427801	145.000000
2409.928281	140.400000
2411.430114	131.200000
2412.930042	128.000000
2414.429695	117.600000
2415.929073	155.600000
2417.426548	152.400000
2418.922121	136.800000
2420.420674	149.800000
2421.915699	163.400000
2423.412076	150.200000
2424.904927	124.000000
2426.399131	134.800000
2427.893061	153.400000
2429.383467	120.400000
2430.876851	138.800000
2432.368337	123.600000
2433.857926	155.600000
2435.347243	113.400000
2436.834664	133.800000
2438.325061	142.800000
2439.811940	124.000000
2441.300170	112.800000
2442.784883	137.600000
2444.269327	176.000000
2445.755121	152.000000
2447.239024	118.800000
2448.724277	121.000000
2450.204397	144.400000
2451.687490	127.800000
2453.168692	143.000000
2454.649625	123.200000
2456.128669	136.200000
2457.607444	125.600000
2459.085951	113.000000
2460.564190	147.000000
2462.042160	144.400000
2463.516625	146.600000
2464.994060	129.800000
2466.467991	147.400000
2467.943272	105.800000
2469.418286	108.000000
2470.889799	106.400000
2472.362663	146.000000
2473.833644	148.200000
2475.305975	149.800000
2476.773192	120.000000
2478.243376	158.200000
2479.711679	136.800000
2481.179717	139.600000
2482.647490	118.400000
2484.114998	158.800000
2485.582241	131.600000
2487.045992	131.800000
2488.511093	140.800000
2489.974317	138.400000
2491.438890	122.600000
2492.899975	146.200000
2494.362409	128.800000
2495.824580	129.000000
2497.283265	126.000000
2498.746521	148.400000
2500.204682	125.200000
2501.664191	153.200000
2503.118606	123.000000
2504.577592	148.800000
2506.034706	141.400000
2507.489948	154.000000
2508.944930	141.200000
2510.398043	145.000000
2511.852504	146.200000
2513.305095	115.000000
2514.757427	133.400000
2516.207892	136.200000
2517.661312	148.800000
2519.109650	142.800000
2520.560943	132.800000
2522.010371	143.400000
2523.456326	143.600000
2524.905236	160.400000
2526.350676	124.000000
2527.797463	133.800000
2529.242387	129.400000
2530.687054	129.800000
2532.133068	127.400000
2533.575616	139.000000
2535.019511	136.600000
2536.459941	184.200000
2537.901718	159.800000
2539.341636	132.000000
2540.782901	141.200000
2542.220704	136.200000
2543.661457	128.200000
2545.097148	174.400000
2546.535788	146.800000
2547.972570	156.600000
2549.407497	157.000000
2550.845371	141.200000
2552.278188	152.200000
2553.712352	142.800000
2555.144662	146.800000
2556.578318	165.000000
2558.010121	150.600000
2559.441670	177.600000
2560.872967	149.400000
2562.302411	156.800000
2563.731603	150.800000
2565.158945	145.000000
2566.587632	127.200000
2568.016068	183.000000
2569.441056	140.400000
2570.867391	164.400000
2572.291877	149.400000
2573.717709	173.800000
2575.140097	167.000000
2576.563831	144.600000
2577.985718	147.800000
2579.407356	185.000000
2580.827148	155.000000
2582.248286	143.000000
2583.669174	146.000000
2585.086623	145.600000
2586.507013	159.200000
2587.923965	153.800000
2589.340668	151.000000
2590.757123	178.600000
2592.173330	136.800000
2593.589289	178.000000
2595.003407	163.200000
2596.417277	151.800000
2597.829309	148.400000
2599.242684	137.200000
2600.652630	158.600000
2602.065512	148.600000
2603.474965	150.800000
2604.884172	154.000000
2606.291543	181.000000
2607.701848	167.800000
2609.110318	148.800000
2610.516952	168.200000
2611.923341	174.000000
2613.327896	184.200000
2614.733795	145.000000
2616.137861	173.200000
2617.541682	182.600000
2618.945259	186.000000
2620.347005	192.600000
2621.750094	196.400000
2623.149765	141.000000
2624.550780	169.200000
2625.948379	139.400000
2627.348907	165.600000
2628.746021	138.000000
2630.144478	142.600000
2631.541108	166.800000
2632.937495	180.400000
2634.333640	132.000000
2635.727959	165.200000
2637.123621	142.400000
2638.515874	143.600000
2639.909469	142.400000
2641.301240	183.800000
2642.694354	148.200000
2644.085644	167.600000
2645.475111	146.000000
2646.864338	114.600000
2648.253326	133.600000
2649.643655	145.600000
2651.029001	157.400000
2652.417270	157.600000
2653.803719	129.400000
2655.189929	175.600000
2656.575900	130.600000
2657.958473	135.600000
2659.342388	148.800000
2660.726065	156.200000
2662.109503	176.000000
2663.489546	162.600000
2664.870931	131.000000
2666.250501	143.000000
2667.631411	149.600000
2669.010507	139.000000
2670.387789	169.600000
2671.766412	130.400000
2673.143222	128.600000
2674.519795	138.600000
2675.896133	143.000000
2677.270660	159.800000
2678.646527	147.600000
2680.019007	145.800000
2681.394403	134.400000
2682.764839	123.000000
2684.136616	133.800000
2685.508158	154.000000
2686.877892	147.800000
2688.248967	144.000000
2689.618233	122.400000
2690.987266	135.000000
2692.354493	138.000000
2693.721486	122.400000
2695.088247	122.800000
2696.454776	142.000000
2697.819499	140.200000
2699.183990	160.600000
2700.548250	145.400000
2701.912277	115.800000
2703.276073	148.800000
2704.636495	131.200000
2705.999827	116.200000
2707.358217	136.600000
2708.719517	132.200000
2710.077447	123.400000
2711.438285	142.600000
2712.797324	123.600000
2714.152994	140.800000
2715.511572	127.400000
2716.866783	107.200000
2718.221765	135.600000
2719.574950	100.000000
2720.931042	167.000000
2722.283770	111.600000
2723.636270	121.400000
2724.988541	121.000000
2726.342150	132.600000
2727.692399	111.800000
2729.040853	134.400000
2730.392212	122.600000
2731.740213	123.800000
2733.089551	151.800000
2734.437097	141.200000
2735.784417	122.000000
2737.131510	146.400000
2738.476812	128.200000
2739.821887	133.800000
2741.166737	139.200000
2742.511361	146.400000
2743.852633	120.200000
2745.195243	151.400000
2746.537627	105.200000
2747.879786	128.200000
2749.218596	129.000000
2750.560306	116.000000
2751.898667	129.200000
2753.238366	157.200000
2754.576280	116.800000
2755.912409	135.600000
2757.248314	120.400000
2758.585557	124.800000
2759.921016	116.400000
2761.256252	143.000000
2762.589705	117.000000
2763.924495	113.200000
2765.255945	119.000000
2766.590290	152.800000
2767.919737	130.200000
2769.250520	118.000000
2770.581083	128.800000
2771.909866	127.600000
2773.239985	145.200000
2774.568326	136.800000
2775.896446	122.800000
2777.222788	109.400000
2778.550467	122.000000
2779.874812	118.200000
2781.200494	126.600000
2782.524400	135.600000
2783.848086	116.400000
2785.173109	135.000000
2786.494801	125.600000
2787.816275	117.400000
2789.137530	131.600000
2790.458566	123.600000
2791.777829	137.000000
2793.098428	108.600000
2794.417256	108.400000
2795.735865	142.000000
2797.052703	115.400000
2798.369324	100.400000
2799.685728	108.400000
2801.000362	123.600000
2802.316332	116.000000
2803.628981	130.600000
2804.942965	132.000000
2806.256733	112.400000
2807.570284	125.200000
2808.882069	144.400000
2810.192087	100.400000
2811.503440	136.200000
2812.811478	111.800000
2814.120850	114.600000
2815.430008	118.800000
2816.738950	120.400000
2818.046128	118.600000
2819.351544	135.800000
2820.658293	136.000000
2821.963281	133.200000
2823.268054	126.000000
2824.571067	111.600000
2825.876960	102.800000
2827.177999	134.600000
2828.480372	126.000000
2829.780985	162.800000
2831.082932	114.400000
2832.384665	124.800000
2833.683095	128.000000
2834.982858	126.600000
2836.280864	129.000000
2837.578658	144.600000
2838.874696	140.800000
2840.172067	126.000000
2841.467682	135.400000
2842.763086	140.000000
2844.058279	123.800000
2845.350175	118.000000
2846.644947	109.600000
2847.936422	119.200000
2849.229230	119.200000
2850.521828	128.400000
2851.811132	126.600000
2853.101768	118.200000
2854.390653	116.800000
2855.680870	135.600000
2856.967796	145.600000
2858.256054	140.600000
2859.542563	143.000000
2860.828863	109.000000
2862.114956	154.000000
2863.399300	150.000000
2864.686515	127.400000
2865.968904	156.800000
2867.252625	117.400000
2868.534600	124.000000
2869.816367	126.000000
2871.096390	153.000000
2872.379282	113.800000
2873.660429	164.800000
2874.938294	131.200000
2876.219028	127.200000
2877.496481	108.400000
2878.773728	141.400000
2880.049233	122.200000
2881.327606	128.800000
2882.601165	125.600000
2883.877591	135.200000
2885.152276	105.000000
2886.425220	139.200000
2887.699496	89.400000
2888.972032	140.000000
2890.244363	134.600000
2891.513422	150.000000
2892.785346	120.400000
2894.055532	127.400000
2895.325514	119.000000
2896.595293	136.400000
2897.863336	121.200000
2899.129642	111.800000
2900.395747	130.600000
2901.663181	113.000000
2902.928880	118.600000
2904.194378	144.000000
2905.459673	107.200000
2906.721703	123.600000
2907.985063	120.200000
2909.248222	151.000000
2910.509649	123.400000
2911.772405	130.000000
2913.033429	115.400000
2914.292723	127.000000
2915.551817	146.600000
2916.810710	119.200000
2918.069403	122.200000
2919.327896	116.800000
2920.584660	122.800000
2921.841224	123.000000
2923.096061	109.000000
2924.352226	133.400000
2925.605137	107.400000
2926.859377	120.200000
2928.113417	105.800000
2929.365732	102.000000
2930.617849	96.400000
2931.868241	129.200000
2933.121488	131.800000
2934.369958	128.800000
2935.621283	136.200000
2936.869358	152.400000
2938.117237	109.800000
2939.364918	144.400000
2940.612402	110.000000
2941.858165	146.600000
2943.103732	142.200000
2944.350626	112.400000
2945.594276	117.200000
2946.839254	135.600000
2948.080988	84.800000
2949.325574	149.800000
2950.568441	110.600000
2951.808067	97.200000
2953.050543	126.400000
2954.289779	107.800000
2955.530343	114.000000
2956.769190	126.000000
2958.007843	110.600000
2959.244780	121.600000
2960.483045	89.800000
2961.719594	142.200000
2962.955950	118.200000
2964.192112	126.000000
2965.426560	110.200000
2966.660816	124.800000
2967.894878	121.600000
2969.127227	120.600000
2970.357866	129.000000
2971.591350	100.200000
2972.823122	119.800000
2974.053184	148.000000
2975.283053	137.600000
2976.511213	106.000000
2977.740700	137.800000
2978.968477	128.200000
2980.196063	133.800000
2981.424975	111.400000
2982.649146	123.600000
2983.876159	117.000000
2985.099948	104.000000
2986.325064	111.000000
2987.548473	119.400000
2988.771692	107.400000
2989.993206	136.600000
2991.217561	130.400000
2992.437181	119.200000
2993.658127	126.400000
2994.878884	112.400000
2996.097937	105.400000
2997.318315	112.200000
2998.535477	118.800000
2999.753965	130.400000
3000.970750	144.400000
3002.187348	133.000000
3003.403757	128.800000
3004.616953	117.800000
3005.832988	146.800000
3007.045810	126.600000
3008.261469	116.200000
3009.472405	112.200000
3010.684666	121.800000
3011.896741	112.200000
3013.108628	125.600000
3014.318819	100.000000
3015.528823	124.800000
3016.738641	109.200000
3017.946763	102.400000
3019.154700	126.200000
3020.360941	130.400000
3021.568507	113.600000
3022.774378	104.900000
3023.980065	96.200000
3025.185566	127.400000
3026.389374	111.400000
3027.594506	107.600000
3028.797945	102.600000
3029.999693	103.000000
3031.201256	101.400000
3032.402636	116.400000
3033.603832	126.600000
3034.803338	110.200000
3036.002661	119.000000
3037.203307	123.000000
3038.402263	122.800000
3039.598025	131.200000
3040.796616	132.600000
3041.992013	100.400000
3043.188733	107.600000
3044.382261	119.400000
3045.578617	131.400000
3046.773286	131.800000
3047.964765	116.000000
3049.160576	107.600000
3050.351692	102.600000
3051.544132	128.000000
3052.733384	111.000000
3053.925461	104.800000
3055.115855	113.600000
3056.303063	116.200000
3057.491593	118.200000
3058.681446	122.400000
3059.868115	109.600000
3061.054603	128.600000
3062.240913	117.000000
3063.428544	121.800000
3064.612993	131.400000
3065.795763	110.800000
3066.981355	99.200000
3068.165268	130.200000
3069.347502	108.800000
3070.529557	100.600000
3071.711434	124.600000
3072.893133	116.400000
3074.073155	107.800000
3075.251500	128.800000
3076.432665	121.200000
3077.610655	118.200000
3078.788468	125.400000
3079.966104	130.400000
3081.142066	118.800000
3082.317850	112.600000
3083.494956	101.800000
3084.670387	106.200000
3085.844145	85.000000
3087.016230	119.400000
3088.189637	117.000000
3089.362867	130.000000
3090.534426	106.400000
3091.707305	137.600000
3092.877017	119.000000
3094.048050	118.200000
3095.217413	135.200000
3096.385105	131.200000
3097.555613	106.400000
3098.721463	122.600000
3099.891621	132.800000
3101.057123	138.400000
3102.222450	124.000000
3103.387604	136.600000
3104.552585	95.400000
3105.718885	126.200000
3106.880533	129.800000
3108.043500	104.600000
3109.206295	99.000000
3110.368917	123.600000
3111.529873	114.800000
3112.690658	98.600000
3113.851270	126.000000
3115.010218	124.000000
3116.168995	102.200000
3117.327599	131.600000
3118.486032	104.200000
3119.644294	100.800000
3120.800893	104.800000
3121.955831	108.400000
3123.112088	93.400000
3124.266684	115.600000
3125.421110	110.400000
3126.573876	90.600000
3127.726471	126.200000
3128.878897	109.600000
3130.031153	101.400000
3131.183238	108.400000
3132.332177	78.800000
3133.483924	128.600000
3134.634012	131.200000
3135.782444	108.000000
3136.930706	114.200000
3138.078800	117.800000
3139.226725	110.800000
3140.372994	101.000000
3141.519095	114.800000
3142.663542	124.600000
3143.807821	126.600000
3144.951932	112.000000
3146.097360	132.000000
3147.239650	118.800000
3148.381773	110.600000
3149.523728	106.600000
3150.665516	108.400000
3151.807137	122.200000
3152.945623	112.200000
3154.085426	129.800000
3155.226546	92.800000
3156.364533	122.000000
3157.500870	120.400000
3158.637041	112.200000
3159.774529	102.800000
3160.910369	125.000000
3162.047526	119.200000
3163.180070	112.000000
3164.316896	122.800000
3165.449110	123.400000
3166.582641	102.200000
3167.716008	143.600000
3168.846247	112.000000
3169.979284	113.000000
3171.109195	74.200000
3172.240422	94.400000
3173.368525	97.000000
3174.499424	101.200000
3175.628679	105.200000
3176.756291	81.800000
3177.880780	120.000000
3179.009545	130.400000
3180.135188	111.800000
3181.260669	102.400000
3182.384507	104.600000
3183.511141	103.200000
3184.633177	109.600000
3185.756529	102.400000
3186.879719	77.800000
3188.002746	118.200000
3189.124135	85.800000
3190.245361	126.400000
3191.364950	90.200000
3192.484377	111.400000
3193.602166	95.400000
3194.722747	113.800000
3195.840215	106.200000
3196.957522	105.800000
3198.074669	135.600000
3199.190179	82.800000
3200.307005	88.400000
3201.420721	109.400000
3202.537226	110.400000
3203.652097	105.400000
3204.763858	99.200000
3205.875461	92.200000
3206.988379	97.400000
3208.101137	135.600000
3209.210789	86.800000
3210.321756	111.600000
3211.432564	113.800000
3212.541740	122.000000
3213.649285	75.000000
3214.758145	108.400000
3215.866847	91.600000
3216.972446	116.200000
3218.079359	104.600000
3219.184643	134.200000
3220.291241	119.600000
3221.394739	85.800000
3222.499552	117.800000
3223.604206	118.800000
3224.705763	117.000000
3225.807163	87.200000
3226.909877	124.400000
3228.012435	109.200000
3229.111896	85.000000
3230.214141	119.200000
3231.313290	86.800000
3232.410815	114.200000
3233.508184	144.200000
3234.608335	96.400000
3235.705394	93.800000
3236.802297	108.600000
3237.899045	89.400000
3238.991235	115.200000
3240.087673	118.000000
3241.182489	104.200000
3242.277151	107.400000
3243.370191	112.400000
3244.463076	92.200000
3245.554341	96.200000
3246.646919	72.800000
3247.737877	122.600000
3248.827215	106.400000
3249.916400	118.400000
3251.006898	119.200000
3252.094311	103.600000
3253.181571	109.000000
3254.270144	120.600000
3255.358564	122.000000
3256.442438	109.000000
3257.530553	100.600000
3258.615586	105.400000
3259.699004	87.200000
3260.783734	98.600000
3261.866848	102.200000
3262.951275	99.600000
3264.032623	87.000000
3265.115283	111.000000
3266.196329	93.000000
3267.277224	125.400000
3268.356505	122.800000
3269.435636	147.400000
3270.516079	120.000000
3271.593447	117.000000
3272.672127	102.200000
3273.749195	143.800000
3274.826114	100.600000
3275.901421	119.400000
3276.976579	110.600000
3278.053048	104.000000
3279.126447	101.200000
3280.199696	101.400000
3281.274257	89.600000
3282.347209	81.200000
3283.418552	115.400000
3284.491206	118.200000
3285.560794	106.000000
3286.631692	127.000000
3287.700983	88.000000
3288.771585	98.200000
3289.840580	105.800000
3290.907969	93.400000
3291.973753	96.200000
3293.043763	78.600000
3294.110710	88.200000
3295.174595	114.000000
3296.241247	108.800000
3297.306296	99.600000
3298.369741	106.400000
3299.433040	103.400000
3300.496192	95.200000
3301.559198	129.600000
3302.622058	103.800000
3303.683316	112.600000
3304.741517	99.600000
3305.803938	80.200000
3306.863304	87.200000
3307.922524	136.000000
3308.983053	106.800000
3310.039074	115.800000
3311.097858	114.200000
3312.152135	93.200000
3313.209176	112.800000
3314.264618	106.400000
3315.321370	102.400000
3316.376523	109.400000
3317.430079	70.800000
3318.482039	86.000000
3319.536760	105.000000
3320.588432	133.600000
3321.639961	62.800000
3322.692798	99.600000
3323.742588	97.600000
3324.793687	89.000000
3325.841740	90.000000
3326.892552	88.800000
3327.940320	99.200000
3328.987944	77.400000
3330.035427	89.400000
3331.081317	126.200000
3332.128515	123.800000
3333.172671	96.800000
3334.219585	86.600000
3335.264907	103.400000
3336.307188	94.600000
3337.349329	114.000000
3338.392777	104.800000
3339.436084	109.600000
3340.477802	101.200000
3341.519378	78.200000
3342.560813	92.400000
3343.600660	122.600000
3344.638918	96.800000
3345.678484	90.800000
3346.717910	78.800000
3347.755748	92.400000
3348.791999	104.400000
3349.828111	85.800000
3350.865530	78.200000
3351.899916	128.000000
3352.935609	96.600000
3353.971163	103.200000
3355.003686	96.000000
3356.038962	103.600000
3357.071207	102.000000
3358.103314	95.800000
3359.133837	99.400000
3360.165667	132.400000
3361.197359	108.200000
3362.226023	104.800000
3363.254550	124.800000
3364.284383	98.000000
3365.314079	100.400000
3366.340749	94.000000
3367.368725	109.400000
3368.393678	109.400000
3369.421380	91.400000
3370.446059	104.200000
3371.472044	102.000000
3372.496449	85.600000
3373.520718	68.600000
3374.543408	133.400000
3375.565962	83.600000
3376.589822	99.600000
3377.610662	70.000000
3378.631366	104.800000
3379.653377	113.200000
3380.672369	77.200000
3381.691225	85.400000
3382.711388	102.200000
3383.728534	84.400000
