-118.277064	0.764835
-115.607463	-1.459341
-112.940798	-2.564486
-110.274885	-2.794306
-107.611905	-2.392507
-104.947494	-1.602797
-102.286014	-0.668881
-99.623105	-0.374825
-96.965303	-0.448951
-94.306070	0.784266
-91.647586	-1.329021
-88.992027	-2.355944
-86.335039	-4.602098
-83.683148	-3.632517
-81.029828	-3.778322
-78.379427	-2.752098
-75.727598	-2.379720
-73.080859	-2.618531
-70.432690	-1.740909
-67.785265	-1.623776
-65.140753	0.390559
-62.494812	1.503147
-59.853954	-0.040909
-57.211665	-0.496154
-54.572286	0.850699
-51.931478	1.654895
-49.291409	1.301049
-46.656414	1.053846
-44.019989	-0.626224
-41.386468	-2.802448
-38.751517	-1.570280
-36.121633	-0.294755
-33.488155	1.329021
-30.859740	2.184266
-28.232059	3.112937
-25.602950	1.397552
-22.978897	-16.195105
-20.351254	-76.901399
-17.728666	-182.170280
-15.106808	-134.843357
-12.485681	290.137762
-9.865285	933.198951
-7.247776	1455.304196
-4.628839	1809.524126
-2.012788	1993.004545
0.602536	2006.033916
3.217131	1851.551049
5.828845	1530.845804
8.441986	1058.224476
11.050095	484.034266
13.661784	-52.260140
16.268443	-290.202448
18.876530	-177.622727
21.483893	-15.461189
24.086231	3.292308
26.692147	4.471678
29.293042	4.415385
31.895364	4.076573
34.492668	4.419930
37.093548	3.593007
39.689414	3.415385
42.286707	2.891259
44.883281	2.453147
47.474846	3.007343
50.067839	4.584615
52.657972	4.496503
55.249531	2.848951
57.838231	2.310490
60.428359	1.745804
63.013487	0.452098
65.600043	0.454196
68.185884	0.840210
70.768872	1.208741
73.353287	-0.472727
75.930572	0.397552
78.511424	0.623776
81.089427	2.890559
83.666720	2.669580
86.245440	2.594755
88.819177	2.654545
91.394341	2.939161
93.966662	1.896853
96.538276	2.951399
99.107049	3.154895
101.677249	2.102797
104.244610	0.555944
106.813398	2.836713
109.379349	2.752797
111.942464	3.689860
114.509137	2.394755
117.066587	3.613636
119.629723	6.852448
122.187900	9.156294
124.749631	15.623427
127.306405	25.083217
129.864605	40.123776
132.417853	60.375524
134.970402	85.131469
137.526503	111.191958
140.077655	140.172378
142.628110	166.461888
145.177867	190.667133
147.724805	210.331119
150.271048	224.620629
152.818716	230.840909
155.365688	234.588112
157.907724	236.247203
160.449068	236.218881
162.989718	234.682517
165.531793	231.734266
168.071058	228.481469
170.607513	227.185664
173.143278	224.627273
175.680468	223.833566
178.216967	222.379021
180.750660	220.047902
183.281549	216.291608
185.811750	215.148252
188.343376	216.551399
190.872202	216.167483
193.398228	217.408042
195.923568	218.875524
198.450333	220.573077
200.974302	221.900699
203.497585	224.640559
206.020184	227.932517
208.539990	229.805944
211.059113	230.118881
213.577553	228.691608
216.097418	228.447552
218.610280	228.160839
221.126674	226.360140
223.642387	225.159091
226.153209	224.930769
228.665456	223.198601
231.174920	226.581119
233.683706	228.375175
236.191814	231.023077
238.701346	231.920979
241.205997	233.640210
243.709972	233.418182
246.215371	234.826573
248.715895	235.113636
251.219942	234.316783
253.717019	234.431469
256.217618	234.694406
258.715446	233.972028
261.212601	236.600350
263.709084	234.266783
266.200703	233.325524
268.695841	235.478671
271.188214	236.979720
273.679916	237.174825
276.168855	238.108042
278.659217	240.454895
281.146818	241.292657
283.631659	242.542657
286.120014	244.646853
288.601431	246.815734
291.086361	248.767483
293.566445	247.849650
296.050042	248.164685
298.528797	250.894406
301.008974	249.230420
303.486400	248.602098
305.963162	249.403147
308.439260	254.688811
310.912610	264.271329
313.385299	274.549650
315.857326	286.174825
318.328691	294.856294
320.797313	299.762238
323.265275	298.210490
325.734660	296.337762
328.199222	289.866783
330.667287	280.465385
333.130533	273.580070
335.593122	265.050350
338.055053	261.577273
340.516328	263.438462
342.974869	264.776923
345.434832	267.460140
347.892063	266.859441
350.348639	266.562587
352.804560	265.791958
355.257753	267.588112
357.712368	267.813636
360.162181	266.342657
362.615490	266.941608
365.064000	264.551399
367.511860	265.926224
369.961141	265.677972
372.405629	265.470979
374.851539	265.559091
377.296800	263.955245
379.739342	265.290210
382.181236	265.792657
384.622482	266.189510
387.061013	265.838811
389.500966	264.081818
391.938205	264.551748
394.372732	263.844755
396.810747	263.975524
399.243985	261.783217
401.678645	260.939860
404.108532	262.793007
406.541904	264.747203
408.970506	266.740909
411.398466	268.079720
413.827847	266.087413
416.252464	265.075874
418.678501	266.225524
421.103899	266.237413
423.528656	266.711538
425.948654	264.352448
428.370074	265.368881
430.788797	265.919930
433.208941	266.108392
435.626390	265.600699
438.045259	265.184266
440.461435	266.595455
442.872864	263.554545
445.287769	264.551049
447.699984	264.987413
450.111565	265.951748
452.522513	266.420629
454.930773	264.513986
457.338402	264.280769
459.745398	262.157692
462.151762	257.935664
464.555445	255.807692
466.958497	255.411888
469.360919	255.187413
471.762711	252.922378
474.161825	253.829021
476.562359	252.592657
478.962264	254.930420
481.357447	254.563986
483.756095	255.826573
486.150024	253.635315
488.543327	254.360490
490.936004	253.135315
493.328056	249.153497
495.721527	244.880769
498.110285	239.257692
500.496377	231.659441
502.883889	225.585315
505.270777	218.108392
507.655002	213.247552
510.040646	206.285315
512.423627	202.990909
514.803948	198.746503
517.185688	198.103147
519.564770	195.585315
521.945269	192.603497
524.323111	192.984965
526.698298	192.493357
529.072867	190.751748
531.448855	190.739510
533.822189	188.647203
536.196942	186.557692
538.567008	184.612937
540.936459	184.197902
543.307329	181.524476
545.673517	180.603497
548.041124	179.153497
550.406085	179.202797
552.770434	180.731469
555.134169	180.337413
557.499322	180.375524
559.859803	178.806294
562.221701	177.222028
564.580960	174.922378
566.937580	174.837762
569.297646	174.063986
571.651020	170.968182
574.007839	170.461189
576.362023	169.202448
578.715598	170.560490
581.068565	170.811538
583.418901	172.954545
585.770654	174.781469
588.115729	174.609441
590.466269	175.811538
592.810136	175.259790
595.159464	175.385315
597.504143	173.648601
599.846198	172.841259
602.189670	173.418881
604.530519	174.277972
606.870765	173.383217
609.208391	172.008042
611.549452	171.548252
613.885876	172.430420
616.223716	171.957343
618.558938	172.317133
620.891545	171.302098
623.225569	167.627273
625.556978	167.052098
627.887789	167.374476
630.218002	167.399301
632.547618	166.112238
634.872610	162.245105
637.203044	161.775175
639.528856	160.795804
641.852062	162.578322
644.176684	164.013986
646.498700	164.451049
648.820122	166.700699
651.138941	166.444755
653.459176	168.611189
655.778818	166.793357
658.095859	168.153846
660.412309	168.462937
662.726160	169.494056
665.041426	169.755245
667.354096	168.353497
669.668181	167.644755
671.977667	168.310140
674.288567	165.858392
676.596875	167.591608
678.904595	165.263636
681.213730	163.268531
683.518272	162.022028
685.822228	163.543357
688.125597	163.707692
690.430381	162.747902
692.730579	163.239161
695.032192	162.473776
697.333219	163.229021
699.629665	162.673427
701.927525	159.996154
704.224803	158.604196
706.521496	156.068531
708.813614	155.231469
711.109143	155.814336
713.400099	154.451049
715.692469	155.619231
717.982263	156.938112
720.271478	158.369930
722.560113	158.451399
724.846175	161.114336
727.133651	160.822378
729.418557	159.791608
731.702884	158.217133
733.984644	157.772028
736.267817	155.911189
738.550413	155.910140
740.828453	155.302098
743.107907	158.767483
745.386786	159.372378
747.665090	160.168182
749.938843	163.890909
752.214011	166.105944
754.488605	165.321329
756.760640	166.736713
759.034088	167.074476
761.304978	167.497902
763.573312	165.350350
765.843059	166.530769
768.110251	165.993007
770.376873	168.465385
772.642926	171.114685
774.906427	172.949301
777.171340	176.265734
779.435685	177.395804
781.695499	176.676224
783.956727	178.279371
786.217387	177.540559
788.475500	175.773776
790.731070	172.176923
792.990029	171.344755
795.242490	169.474126
797.500318	168.009790
799.753627	168.201049
802.004395	165.667483
804.256576	164.727273
806.506219	163.054545
808.757273	160.877622
811.003816	160.634965
813.251772	160.463986
815.497192	158.641958
817.744025	158.009790
819.990295	157.718182
822.232062	158.204196
824.477211	157.193007
826.715888	158.061189
828.957948	155.240210
831.195509	155.031119
833.434481	154.038462
835.670928	153.730769
837.908785	154.081119
840.144117	153.240909
842.376925	150.254196
844.611145	149.952797
846.842843	148.524126
849.073986	150.757692
851.304574	152.184615
853.534608	152.318881
855.764087	152.744755
857.989086	153.939510
860.217458	154.208042
862.441352	155.029720
864.666656	154.724126
866.887485	155.223776
869.111687	156.158042
871.331415	156.786014
873.552553	157.463287
875.773141	159.784965
877.991220	162.653147
880.210708	161.652797
882.425730	162.538462
884.640204	162.470979
886.854131	165.479021
889.067510	164.623427
891.280343	163.792308
893.492628	164.284965
895.702412	160.490559
897.911650	158.867133
900.120342	157.737063
902.326536	156.891958
904.534139	156.086014
906.739245	155.952098
908.943807	158.233566
911.145874	160.173077
913.349350	165.607343
915.550332	166.267483
917.750772	166.565035
919.952621	164.683566
922.148079	163.702797
924.346895	166.910140
926.541274	166.270280
928.739010	166.410490
930.932310	166.083916
933.127018	168.581469
935.319241	167.390909
937.510926	169.394056
939.702073	169.277622
941.890737	166.759790
944.078864	163.960490
946.264511	163.513986
948.453511	166.526573
950.638086	173.040559
952.822127	177.284965
955.009518	181.562587
957.188606	184.586014
959.371044	189.428322
961.552947	192.192657
963.732377	194.420629
965.909334	192.292308
968.087699	193.930070
970.267470	191.994406
972.440893	193.096154
974.617663	191.647902
976.790025	193.881119
978.963795	194.474825
981.133161	193.766434
983.305871	191.773776
985.476115	193.380769
987.645831	189.786713
989.815018	189.505944
991.979808	192.422028
994.147940	195.441958
996.311676	198.379720
998.476820	204.601748
1000.639504	207.890909
1002.801663	215.261888
1004.961364	218.367483
1007.120542	219.017483
1009.281126	215.689860
1011.439255	213.806643
1013.596860	209.245455
1015.753942	216.644406
1017.910501	217.682517
1020.062680	216.973776
1022.216266	221.977622
1024.369330	226.199301
1026.519945	228.386713
1028.671966	232.315734
1030.819615	231.349650
1032.970594	225.341608
1035.117204	222.815734
1037.263294	223.723776
1039.408866	223.380070
1041.555842	227.741958
1043.696531	226.474126
1045.840548	227.041958
1047.982126	228.345105
1050.123186	228.953497
1052.265651	227.998951
1054.401837	233.310490
1056.541349	237.240909
1058.676505	241.024476
1060.814986	249.967483
1062.949114	252.158741
1065.082728	250.897902
1067.217746	252.458392
1069.348415	253.190909
1071.480490	245.792308
1073.610134	240.014685
1075.739267	229.535315
1077.867889	226.459091
1079.995999	225.088462
1082.121683	226.729720
1084.246857	228.720280
1086.373434	225.147203
1088.495675	221.857692
1090.619320	222.591958
1092.738630	218.175175
1094.863169	219.771329
1096.981464	214.311538
1099.101162	216.511888
1101.218442	211.029021
1103.335216	216.981469
1105.451483	216.731818
1107.565335	223.835664
1109.680590	222.415035
1111.791523	218.552098
1113.905768	218.967133
1116.015692	220.480769
1118.127019	220.500699
1120.237843	224.371329
1122.344350	219.389161
1124.454166	216.634266
1126.559668	215.130420
1128.666574	218.243007
1130.767264	218.698951
1132.873165	219.046503
1134.974758	214.537762
1137.077754	212.670629
1139.180249	212.866434
1141.276538	213.997203
1143.378033	217.868531
1145.475226	215.475524
1147.571920	212.361888
1149.668117	214.263986
1151.763815	221.268182
1153.859016	223.528671
1155.951820	225.781119
1158.046026	226.369580
1160.134041	226.581119
1162.227254	227.470280
1164.314279	227.606643
1166.404604	229.156294
1168.490640	228.692308
1170.579974	225.253497
1172.663127	224.020629
1174.747683	225.026224
1176.833639	225.404545
1178.915315	223.919930
1180.998391	225.561888
1183.079082	223.134965
1185.159282	221.596853
1187.238990	222.625524
1189.318207	223.706294
1191.395041	227.476573
1193.469495	224.292657
1195.547241	222.088811
1197.620716	223.035315
1199.695593	224.416084
1201.766202	224.295455
1203.838212	224.144406
1205.907846	224.669231
1207.978881	220.932168
1210.049428	222.143357
1212.115715	223.527972
1214.183401	226.225524
1216.248716	228.678671
1218.315431	228.359441
1220.377890	231.332867
1222.443635	234.148252
1224.505125	233.290559
1226.568015	230.215385
1228.628538	229.635664
1230.688578	228.829371
1232.748134	228.259091
1234.805326	231.925874
1236.862035	236.073776
1238.916382	240.099301
1240.974009	242.289161
1243.029274	246.558042
1245.080298	251.518182
1247.132723	248.932517
1249.184667	246.092657
1251.234253	245.433566
1253.283360	247.027972
1255.331988	247.210839
1257.380138	250.668182
1259.427810	255.739510
1261.471251	261.244056
1263.517967	265.432867
1265.562331	268.980420
1267.606217	274.559091
1269.647753	275.870629
1271.686939	272.841259
1273.729397	272.758392
1275.767634	272.787063
1277.807268	272.600000
1279.846428	274.284615
1281.881370	273.080420
1283.917710	273.477972
1285.951705	275.323077
1287.987099	279.017832
1290.018279	284.047203
1292.050858	288.581818
1294.082964	292.038462
1296.112730	295.025175
1298.143894	298.053846
1300.170850	301.537762
1302.199204	305.083916
1304.223354	308.589161
1306.250769	310.539860
1308.273981	312.376573
1310.298591	314.811189
1312.320866	316.775175
1314.344539	320.390559
1316.365879	322.583916
1318.386752	326.271678
1320.407157	328.223427
1322.423369	332.414336
1324.440978	335.844406
1326.456259	341.893706
1328.474799	345.360490
1330.489149	352.876573
1332.501174	355.063986
1334.516457	358.886364
1336.527554	361.520280
1338.540047	363.007692
1340.548358	366.712937
1342.559925	370.259790
1344.565453	371.911888
1346.574235	375.413636
1348.578841	376.282168
1350.586700	379.368182
1352.594097	373.304545
1354.595462	374.561538
1356.598225	372.642308
1358.600528	369.547902
1360.602370	362.389510
1362.603754	352.570979
1364.602823	347.788112
1366.601434	341.843357
1368.599587	335.861538
1370.597282	332.555245
1372.590813	329.838462
1374.585741	328.177972
1376.580212	321.843007
1378.574226	324.036713
1380.565933	324.693357
1382.557184	322.059441
1384.546130	316.941259
1386.536471	314.104895
1388.526357	312.200000
1390.513940	312.951399
1392.501069	309.624476
1394.485896	307.621678
1396.472118	303.903497
1398.456039	300.316783
1400.439508	297.029371
1402.422525	297.144406
1404.403244	294.444056
1406.385357	291.861189
1408.365173	291.044406
1410.344539	293.694056
1412.319766	293.998951
1414.298231	296.554895
1416.274403	293.532168
1418.250125	293.249650
1420.225398	289.169580
1422.198381	285.733566
1424.170915	286.272028
1426.143001	284.773427
1428.114639	279.475175
1430.082150	278.497902
1432.054734	277.775524
1434.019512	277.964336
1435.989363	279.078322
1437.955089	280.094056
1439.922209	278.729021
1441.887045	278.331119
1443.847761	277.455944
1445.813545	275.032867
1447.773374	277.868531
1449.734596	278.039161
1451.697211	275.030769
1453.655711	274.444056
1455.613769	276.346154
1457.571384	277.206643
1459.528558	278.294755
1461.483456	281.688112
1463.439746	280.507692
1465.393762	279.385664
1467.347338	278.834266
1469.298641	278.477622
1471.251336	279.063287
1473.201760	277.870979
1475.151745	275.811888
1477.101291	274.216783
1479.048567	275.900000
1480.993577	273.904895
1482.939979	273.502448
1484.885943	275.446154
1486.831470	275.019231
1488.774731	276.762937
1490.717556	279.425524
1492.658118	282.861189
1494.600072	280.175524
1496.539763	280.316434
1498.479019	279.760140
1500.417841	277.257343
1502.354403	276.910839
1504.292355	274.138112
1506.228050	273.831119
1508.163311	274.881469
1510.096315	278.340559
1512.028887	280.221329
1513.961027	283.764336
1515.892735	287.577622
1517.822190	287.304895
1519.753034	289.910490
1521.683448	290.255594
1523.609789	292.687762
1525.537520	296.097552
1527.463001	296.605245
1529.388053	299.514336
1531.312676	303.109091
1533.236870	308.399650
1535.158817	310.495455
1537.082153	318.158741
1539.003244	326.419930
1540.922090	334.505245
1542.842326	343.708042
1544.760318	355.197902
1546.677884	371.597203
1548.593209	389.217832
1550.509922	405.361888
1552.422581	425.474476
1554.338444	449.070280
1556.252068	477.686364
1558.163453	511.766084
1560.076227	561.120629
1561.984953	618.451399
1563.895067	691.122727
1565.804758	776.642657
1567.714026	861.773776
1569.621059	940.562587
1571.525860	1002.980420
1573.432050	1034.260140
1575.336009	1036.209790
1577.239546	1005.848601
1579.142662	947.717483
1581.043550	870.571678
1582.945826	787.551049
1584.845873	701.926573
1586.747309	632.682867
1588.644710	578.079720
1590.541694	531.120979
1592.438259	500.815385
1594.336211	477.666783
1596.228329	457.809441
1598.123641	445.093706
1600.018534	432.461888
1601.911207	422.757343
1603.803462	415.091259
1605.693498	410.023077
1607.583118	405.929371
1609.472323	401.072727
1611.361112	397.882867
1613.247685	392.727972
1615.135645	387.200699
1617.019588	374.175175
1618.904918	363.292308
1620.789835	353.357343
1622.672538	343.779021
1624.556628	335.045105
1626.436706	320.443007
1628.318171	311.545455
1630.197426	299.078671
1632.078067	287.214685
1633.952905	281.911888
1635.832723	275.750699
1637.708536	267.300000
1639.583940	258.908392
1641.460729	256.373776
1643.331721	253.570280
1645.205896	250.677622
1647.076071	244.739510
1648.949427	235.296853
1650.820580	235.643007
1652.689531	228.744755
1654.559868	230.865035
1656.426211	227.438112
1658.293941	226.904895
1660.159471	227.559790
1662.026386	224.495804
1663.889313	224.713287
1665.753625	220.422028
1667.615742	218.039860
1669.477453	216.525874
1671.340549	211.745804
1673.201451	209.717832
1675.060159	203.525524
1676.918465	201.856643
1678.778154	194.864685
1680.632077	196.798601
1682.489173	194.573077
1684.345865	185.870979
1686.198582	184.825524
1688.054470	183.892308
1689.906384	184.994056
1691.757897	187.110839
1693.609009	184.801399
1695.459720	185.610839
1697.310031	189.685664
1699.158158	194.584615
1701.007668	195.711189
1702.851430	200.182867
1704.700142	199.915734
1706.543107	201.467133
1708.389238	202.556294
1710.231408	201.258042
1712.076742	198.039510
1713.916336	195.550000
1715.757314	192.489510
1717.599676	187.830420
1719.438080	186.902448
1721.277868	181.333916
1723.115481	172.029371
1724.952698	172.027972
1726.787742	176.410490
1728.624169	176.097552
1730.458424	175.700350
1732.292285	174.870629
1734.125751	179.433916
1735.955271	178.967832
1737.787950	182.011538
1739.616685	180.556643
1741.448578	176.462937
1743.276528	172.402797
1745.104086	166.800699
1746.931253	168.309091
1748.758028	167.785664
1750.584411	162.821329
1752.406858	167.814685
1754.232459	172.355245
1756.054126	179.037413
1757.877175	179.730070
1759.698063	181.354895
1761.518561	178.042308
1763.340441	175.458741
1765.156621	177.884266
1766.975953	176.315385
1768.791358	177.949301
1770.609914	176.855245
1772.424544	179.458042
1774.238787	181.479371
1776.052644	182.359790
1777.866114	178.035664
1779.677430	170.089161
1781.490128	164.212238
1783.302439	160.263287
1785.110833	161.152098
1786.920608	160.641958
1788.726467	164.832168
1790.535473	168.027622
1792.340565	168.479371
1794.147037	171.996154
1795.953126	169.884266
1797.755305	166.555944
1799.560627	160.666434
1801.362041	155.737762
1803.164835	153.936713
1804.963724	153.027273
1806.763992	153.039161
1808.563880	153.067483
1810.361625	156.840559
1812.158990	157.110490
1813.955974	162.331818
1815.752578	164.022727
1817.547043	162.985664
1819.342888	161.501399
1821.133077	161.420629
1822.928163	161.256294
1824.717596	157.651399
1826.510167	158.698252
1828.300602	156.769930
1830.088902	158.616084
1831.880338	160.172727
1833.666129	161.694755
1835.453298	166.280769
1837.238337	167.175175
1839.026508	168.175524
1840.810794	168.368881
1842.592951	167.276923
1844.376487	165.199301
1846.157894	159.360490
1847.940679	161.858042
1849.719585	159.873776
1851.499869	157.760839
1853.278028	155.888462
1855.057564	154.431119
1856.834976	157.688811
1858.610264	160.848601
1860.386931	161.880769
1862.161475	163.413287
1863.937396	161.810490
1865.707698	163.204196
1867.481127	162.176224
1869.252436	161.342308
1871.023374	157.756643
1872.795689	151.750000
1874.562392	152.588811
1876.332219	154.129021
1878.098183	157.234266
1879.867271	159.159441
1881.632497	159.605594
1883.397355	162.847552
1885.163589	163.329021
1886.925965	166.018182
1888.687974	164.554545
1890.449616	161.549301
1892.210890	161.057343
1893.971798	157.049650
1895.732338	157.832517
1897.490770	159.560839
1899.248835	160.352797
1901.004793	156.834965
1902.762127	155.236364
1904.519095	156.887762
1906.273958	154.491259
1908.026715	151.700350
1909.779109	151.609441
1911.532879	146.574476
1913.284545	143.916084
1915.034108	142.596853
1916.785048	146.788112
1918.535624	153.643357
1920.282362	155.741958
1922.030475	156.172727
1923.776489	156.576224
1925.523879	157.684615
1927.269170	156.447203
1929.012364	153.013287
1930.756934	152.805245
1932.499407	147.445455
1934.241520	145.382168
1935.983274	145.728497
1937.724667	148.922378
1939.463967	152.691084
1941.202908	152.008741
1942.941490	151.843182
1944.677980	149.923776
1946.414113	151.210664
1948.151620	149.753497
1949.885306	149.513112
1951.620366	152.000699
1953.353337	149.785140
1955.085952	150.057343
1956.818210	148.425699
1958.550112	147.272727
1960.279928	150.455245
1962.007660	150.575175
1963.736766	150.455944
1965.465516	147.388811
1967.192183	145.709790
1968.918496	145.462937
1970.646182	146.103846
1972.368333	147.565734
1974.093584	146.408042
1975.815028	151.803846
1977.539572	151.751049
1979.262037	154.887413
1980.980698	159.862937
1982.702458	162.455944
1984.420416	162.284615
1986.139748	160.396503
1987.855279	159.165734
1989.575632	158.955245
1991.292186	156.449301
1993.004943	155.044406
1994.720796	151.177622
1996.434577	154.736014
1998.148008	153.136364
1999.859367	153.919580
2001.572100	153.564336
2003.281041	158.179371
2004.993076	159.638112
2006.699601	162.474476
2008.409219	164.159790
2010.116769	166.845804
2011.823972	168.008042
2013.529109	165.551399
2015.233899	163.072727
2016.940061	162.422378
2018.642441	157.925524
2020.346193	157.542308
2022.047882	159.081119
2023.749225	160.011538
2025.450223	161.131469
2027.149161	161.147902
2028.849470	161.883566
2030.546003	162.697902
2032.243908	162.984615
2033.939755	161.864685
2035.638687	163.834615
2037.332133	160.727622
2039.026950	161.473776
2040.721424	162.312587
2042.412130	163.985664
2044.105920	162.483916
2045.795943	163.841958
2047.487337	160.893357
2049.176678	161.018182
2050.867389	158.854196
2052.554338	156.551399
2054.240946	154.243357
2055.928925	153.035664
2057.613144	149.098601
2059.298733	150.150350
2060.983983	151.129720
2062.667185	151.898951
2064.351757	154.241958
2066.030865	155.737762
2067.714759	153.808741
2069.393193	154.880769
2071.074704	151.924825
2072.752463	147.738112
2074.429886	145.052448
2076.108678	142.707692
2077.785427	143.029371
2079.460135	145.700699
2081.136212	148.708392
2082.810249	150.043357
2084.483950	151.303147
2086.157316	152.769930
2087.828644	150.232867
2089.499637	150.919580
2091.170296	149.661189
2092.840621	146.424825
2094.510611	149.195804
2096.178566	149.197902
2097.846188	153.506993
2099.511776	154.942308
2101.178732	156.170979
2102.843655	158.287762
2104.508245	157.726224
2106.170804	160.442308
2107.834732	156.960839
2109.496628	153.890909
2111.158193	150.624476
2112.819428	148.273776
2114.478633	149.384615
2116.137509	146.280420
2117.796054	147.088462
2119.454270	148.320979
2121.108763	150.051049
2122.766320	151.753846
2124.423547	152.305245
2126.077054	152.706643
2127.731928	151.767832
2129.383083	150.474476
2131.037301	149.014336
2132.687801	148.466084
2134.339669	150.850350
2135.986128	152.103846
2137.637341	154.518182
2139.284842	157.255594
2140.933709	158.066084
2142.580557	158.101399
2144.227080	157.457343
2145.873277	156.341608
2147.515765	154.775524
2149.161312	152.166084
2150.803152	151.518531
2152.448049	151.636364
2154.089241	152.682168
2155.730109	152.602098
2157.370654	153.466783
2159.009186	151.892657
2160.649084	152.815385
2162.285282	154.298951
2163.922846	154.350000
2165.560088	155.597902
2167.195320	154.889860
2168.830230	159.440909
2170.464819	161.232867
2172.099087	159.095105
2173.729661	157.289510
2175.363286	156.175175
2176.993220	155.285664
2178.624520	153.266434
2180.253814	153.439860
2181.882789	152.874825
2183.511444	150.223427
2185.139780	149.863287
2186.766113	148.984266
2188.392128	149.391608
2190.016142	147.521329
2191.641521	148.815035
2193.264899	149.095105
2194.889642	150.491608
2196.510703	152.173776
2198.131449	156.379720
2199.753558	158.094755
2201.373670	155.060140
2202.991786	155.584965
2204.609586	156.056643
2206.227070	154.897552
2207.844239	154.022028
2209.461093	156.055944
2211.077632	157.763986
2212.692177	157.442657
2214.304731	156.839860
2215.918648	155.243357
2217.530573	157.345804
2219.143863	155.591608
2220.755161	153.056294
2222.364471	153.475524
2223.975143	149.116434
2225.583827	146.279371
2227.192199	144.722378
2228.798583	143.477972
2230.406331	143.622028
2232.012092	144.759091
2233.617543	144.382517
2235.221008	145.525874
2236.825836	148.731818
2238.428680	146.911888
2240.029541	147.975874
2241.631765	147.024476
2243.232007	145.137762
2244.833611	149.568182
2246.431562	149.477622
2248.030876	147.293007
2249.628210	148.967832
2251.225236	151.853846
2252.823623	153.061189
2254.418362	152.560490
2256.011125	151.535315
2257.605249	148.318182
2259.200736	149.563986
2260.792577	150.529021
2262.384112	151.774825
2263.977008	156.012238
2265.564595	154.765734
2267.156879	152.586014
2268.743855	153.445804
2270.333860	155.514685
2271.918560	153.972727
2273.507954	152.601049
2275.092045	149.787762
2276.677498	146.295105
2278.260982	143.436364
2279.847491	142.661189
2281.430367	144.853846
2283.012939	145.655070
2284.595209	144.508042
2286.173848	145.557168
2287.755512	145.288462
2289.333547	148.593881
2290.914605	150.082168
2292.492036	149.964510
2294.067504	147.890210
2295.645994	146.626399
2297.220859	146.634965
2298.795425	147.114510
2300.369689	148.877273
2301.943653	147.076748
2303.517317	145.479720
2305.090680	146.588462
2306.660425	145.162937
2308.229871	145.303147
2309.802336	142.967483
2311.369526	140.326224
2312.939733	137.438811
2314.506327	137.231818
2316.074279	135.753147
2317.640277	137.141259
2319.205977	140.421678
2320.771379	144.076923
2322.334828	149.811189
2323.899636	157.485315
2325.460835	162.304196
2327.025049	162.435664
2328.584002	162.322378
2330.145968	159.671678
2331.705984	154.218881
2333.265704	149.325175
2334.823475	145.174126
2336.380952	144.823077
2337.938133	147.283566
2339.493368	149.136014
2341.048308	155.575175
2342.602955	158.911888
2344.157308	161.015385
2345.711367	159.023776
2347.265133	156.598601
2348.816954	152.549301
2350.366832	151.469580
2351.919718	151.359441
2353.467362	150.174476
2355.018013	148.973776
2356.565074	150.070629
2358.113492	145.059091
2359.661618	146.777622
2361.206157	145.740210
2362.752053	143.334965
2364.296010	142.331469
2365.841325	145.309091
2367.383055	145.194755
2368.926143	148.147902
2370.467294	149.385664
2372.008156	148.363986
2373.548729	149.806993
2375.089013	148.034615
2376.629008	145.972727
2378.165424	146.609441
2379.704842	145.384615
2381.240683	140.706993
2382.777880	140.629371
2384.311503	142.003147
2385.848125	141.796154
2387.382817	143.462238
2388.915578	142.403147
2390.448054	144.904895
2391.978601	145.598252
2393.512146	145.636713
2395.040480	144.325175
2396.570170	141.365385
2398.099575	141.574476
2399.628695	138.333916
2401.157529	135.627972
2402.681159	139.012937
2404.209424	142.023776
2405.732486	144.439860
2407.260183	146.680420
2408.781039	150.701399
2410.306529	149.186713
2411.828459	151.010839
2413.351743	153.741259
2414.873107	157.164336
2416.392551	160.358741
2417.913350	160.249301
2419.432230	157.944755
2420.950828	156.395804
2422.467509	157.275175
2423.985545	159.288462
2425.503299	159.717483
2427.017501	158.648951
2428.531423	157.028322
2430.045066	159.896503
2431.560062	160.304545
2433.071511	162.072378
2434.584313	161.542657
2436.095203	165.504895
2437.605813	160.429371
2439.114512	159.497203
2440.626198	157.395804
2442.134340	155.275524
2443.642203	155.292657
2445.149789	156.821329
2446.653835	155.163287
2448.160865	155.080420
2449.665987	154.976224
2451.170832	157.077273
2452.673770	154.358392
2454.176431	158.117483
2455.678816	152.372378
2457.179296	153.207343
2458.681129	149.034615
2460.181058	148.117832
2461.680711	152.668182
2463.180089	155.501399
2464.677564	150.206993
2466.173137	156.279021
2467.671690	162.485664
2469.166715	161.438112
2470.663092	160.497902
2472.155943	163.602797
2473.650146	162.247902
2475.144077	159.800699
2476.634483	156.725175
2478.127867	152.750699
2479.619353	150.493706
2481.108942	145.870979
2482.598259	143.954545
2484.085680	147.930769
2485.576077	153.447552
2487.062955	154.031469
2488.551186	155.884965
2490.035899	160.096503
2491.520342	161.827273
2493.006137	158.727972
2494.490039	163.598252
2495.975293	159.684965
2497.455413	153.779720
2498.938505	153.266783
2500.419708	154.846853
2501.900640	152.609441
2503.379684	153.166783
2504.858460	147.382168
2506.336967	141.297552
2507.815205	140.469930
2509.293176	139.373776
2510.767641	138.981119
2512.245075	145.008741
2513.719006	146.440210
2515.194288	145.886713
2516.669302	146.872727
2518.140815	145.951748
2519.613679	145.036364
2521.084660	144.125874
2522.556991	140.325874
2524.024208	136.647203
2525.494392	136.606643
2526.962694	138.995105
2528.430732	142.617133
2529.898505	143.373077
2531.366013	148.110490
2532.833257	147.723776
2534.297008	147.129021
2535.762109	148.662587
2537.225333	151.216434
2538.689906	154.510140
2540.150991	153.057692
2541.613425	155.036713
2543.075596	154.629720
2544.534280	157.882517
2545.997537	160.310490
2547.455697	161.035315
2548.915206	165.010839
2550.369622	160.340559
2551.828608	154.956643
2553.285721	153.080070
2554.740964	149.291608
2556.195946	146.396503
2557.649058	141.593357
2559.103519	141.438811
2560.556111	141.823077
2562.008443	147.153497
2563.458907	152.974825
2564.912327	153.305594
2566.360665	151.540559
2567.811959	146.505594
2569.261386	145.356993
2570.707342	148.229021
2572.156252	148.790909
2573.601691	149.870280
2575.048479	149.897902
2576.493403	152.563636
2577.938070	157.183566
2579.384084	158.692657
2580.826631	157.330420
2582.270526	156.607343
2583.710956	159.453497
2585.152734	159.473776
2586.592652	161.323776
2588.033917	161.779371
2589.471720	158.413986
2590.912473	157.393007
2592.348163	153.546154
2593.786803	148.887762
2595.223586	146.019231
2596.658512	143.968881
2598.096387	146.786364
2599.529204	153.612238
2600.963368	158.308042
2602.395677	157.529371
2603.829334	161.783916
2605.261136	163.836713
2606.692686	159.743706
2608.123982	161.911538
2609.553427	161.241958
2610.982619	158.451049
2612.409960	158.677972
2613.838648	161.691958
2615.267083	165.372727
2616.692072	167.484266
2618.118406	168.461888
2619.542892	168.466783
2620.968724	175.908741
2622.391112	180.496154
2623.814846	179.636014
2625.236734	185.595105
2626.658371	190.332517
2628.078164	194.062937
2629.499301	195.285315
2630.920189	197.079371
2632.337639	199.054545
2633.758028	200.288112
2635.174980	196.107343
2636.591684	195.212937
2638.008139	199.279371
2639.424346	199.723077
2640.840304	200.996853
2642.254422	202.759441
2643.668293	207.659441
2645.080324	214.270629
2646.493700	215.978322
2647.903646	219.464685
2649.316528	220.286713
2650.725981	221.358741
2652.135188	218.130070
2653.542559	221.415035
2654.952864	223.110490
2656.361333	227.265035
2657.767967	227.527273
2659.174356	229.254545
2660.578911	231.269231
2661.984810	237.637413
2663.388876	243.100699
2664.792698	247.100350
2666.196275	252.491608
2667.598021	258.869930
2669.001110	261.754895
2670.400781	268.483217
2671.801796	277.393007
2673.199395	284.925874
2674.599923	285.604895
2675.997037	289.902098
2677.395494	291.419580
2678.792123	294.101399
2680.188511	299.027273
2681.584656	299.092657
2682.978975	296.988462
2684.374637	290.888112
2685.766889	288.575524
2687.160485	294.987762
2688.552256	304.714336
2689.945369	306.705944
2691.336659	311.741259
2692.726126	315.962238
2694.115354	317.445455
2695.504341	319.592308
2696.894671	321.206643
2698.280016	319.196853
2699.668286	316.572727
2701.054735	309.922727
2702.440945	309.870629
2703.826916	311.724476
2705.209489	310.666434
2706.593404	309.912937
2707.977080	306.351748
2709.360519	303.596154
2710.740562	298.045455
2712.121947	293.376224
2713.501516	285.331818
2714.882427	280.181469
2716.261523	274.887063
2717.638805	265.762587
2719.017428	260.989161
2720.394237	256.443357
2721.770811	254.559091
2723.147149	255.016783
2724.521675	249.992657
2725.897542	245.970280
2727.270022	242.437413
2728.645419	238.543357
2730.015854	233.058042
2731.387631	228.877273
2732.759174	222.145105
2734.128908	216.659790
2735.499982	213.202448
2736.869249	208.951748
2738.238282	205.162937
2739.605508	199.755944
2740.972502	194.009441
2742.339263	188.095455
2743.705791	185.422378
2745.070515	181.988112
2746.435006	175.837413
2747.799265	173.665385
2749.163293	170.503497
2750.527088	168.802098
2751.887510	170.055245
2753.250843	165.278322
2754.609233	161.410140
2755.970533	158.012238
2757.328462	155.515734
2758.689301	152.152448
2760.048339	151.923427
2761.404009	153.482867
2762.762588	153.688462
2764.117799	159.026573
2765.472781	165.271329
2766.825966	165.469930
2768.182058	167.967483
2769.534786	167.013986
2770.887285	165.101748
2772.239557	163.976923
2773.593166	160.205594
2774.943414	156.830769
2776.291869	154.688811
2777.643228	151.464336
2778.991228	152.106294
2780.340567	152.943357
2781.688113	150.254196
2783.035432	146.542308
2784.382525	146.582867
2785.727827	146.576923
2787.072903	147.705245
2788.417753	143.644755
2789.762377	139.641958
2791.103648	140.762587
2792.446258	139.887063
2793.788643	138.339161
2795.130802	139.987063
2796.469612	139.848951
2797.811322	136.396154
2799.149683	136.367483
2800.489382	135.056294
2801.827295	135.954545
2803.163424	135.434965
2804.499330	128.543357
2805.836572	130.325175
2807.172031	137.065385
2808.507267	137.648951
2809.840721	136.171678
2811.175511	135.078671
2812.506960	135.116783
2813.841305	133.959790
2815.170752	127.451049
2816.501536	123.575524
2817.832098	121.750350
2819.160881	117.941958
2820.491001	119.141608
2821.819341	125.280070
2823.147461	131.056294
2824.473804	134.744056
2825.801482	135.366434
2827.125828	134.165385
2828.451510	135.366084
2829.775416	136.288462
2831.099102	132.742657
2832.424124	132.606643
2833.745817	129.002797
2835.067290	127.990909
2836.388545	129.958741
2837.709581	130.405594
2839.028845	131.751748
2840.349444	131.574825
2841.668271	129.970979
2842.986880	128.506993
2844.303719	129.053147
2845.620340	130.911888
2846.936743	131.281119
2848.251378	133.032867
2849.567347	131.567133
2850.879997	131.365385
2852.193981	128.711888
2853.507749	128.285664
2854.821300	127.444056
2856.133084	131.374126
2857.443103	134.727972
2858.754456	133.793357
2860.062493	134.273427
2861.371866	136.693706
2862.681023	135.465035
2863.989965	137.237762
2865.297144	138.220979
2866.602559	135.096503
2867.909309	126.726923
2869.214297	125.622378
2870.519070	125.374126
2871.822083	129.939860
2873.127976	128.652098
2874.429015	127.677273
2875.731387	128.931818
2877.032000	129.958042
2878.333947	127.882168
2879.635681	126.645105
2880.934111	125.024825
2882.233874	119.623427
2883.531880	115.046154
2884.829674	113.372727
2886.125711	115.712587
2887.423082	123.079371
2888.718697	125.924126
2890.014102	129.570629
2891.309295	132.309790
2892.601190	132.686713
2893.895962	133.473077
2895.187438	130.193007
2896.480246	129.009790
2897.772844	126.979021
2899.062147	124.124126
2900.352783	120.229720
2901.641669	124.951748
2902.931886	128.742308
2904.218812	124.696503
2905.507070	122.456993
2906.793579	125.520629
2908.079879	123.416084
2909.365971	123.106294
2910.650315	121.452448
2911.937531	120.818182
2913.219920	119.613636
2914.503641	120.213986
2915.785615	125.230420
2917.067383	129.092308
2918.347405	127.698601
2919.630297	125.851748
2920.911444	126.338112
2922.189309	130.840559
2923.470043	129.773427
2924.747496	132.905944
2926.024744	134.558392
2927.300249	130.209091
2928.578622	130.764685
2929.852181	135.270280
2931.128606	135.444056
2932.403291	130.374825
2933.676236	125.693357
2934.950511	124.346503
2936.223047	125.085315
2937.495379	125.725874
2938.764438	125.647203
2940.036362	130.108741
2941.306548	128.144406
2942.576530	122.328322
2943.846309	124.752098
2945.114351	125.531469
2946.380658	120.165734
2947.646762	116.703497
2948.914197	117.096853
2950.179896	117.247203
2951.445393	120.374126
2952.710689	121.173776
2953.972719	122.086364
2955.236079	122.782168
2956.499238	122.367832
2957.760664	119.678671
2959.023420	120.305594
2960.284445	119.475524
2961.543739	119.032867
2962.802832	117.289510
2964.061725	115.357343
2965.320418	114.916084
2966.578911	117.637762
2967.835675	115.920280
2969.092240	112.702448
2970.347076	111.995455
2971.603242	112.810490
2972.856152	110.662937
2974.110392	109.703147
2975.364433	110.769231
2976.616748	110.234615
2977.868865	111.597203
2979.119257	110.295105
2980.372504	108.855594
2981.620974	110.134965
2982.872298	106.217483
2984.120374	105.031119
2985.368252	106.287762
2986.615933	104.064685
2987.863418	106.943007
2989.109181	106.789161
2990.354747	107.859790
2991.601642	106.785315
2992.845291	107.991259
2994.090269	105.069231
2995.332004	105.345804
2996.576590	106.173077
2997.819457	105.139161
2999.059082	107.543357
3000.301559	110.246853
3001.540795	112.150350
3002.781359	118.198252
3004.020206	120.703147
3005.258859	120.646154
3006.495796	118.025175
3007.734061	116.961189
3008.970610	116.130769
3010.206966	117.498252
3011.443128	114.993706
3012.677576	113.700000
3013.911831	116.326224
3015.145893	117.305245
3016.378243	116.380420
3017.608881	115.133217
3018.842365	115.910839
3020.074138	111.240210
3021.304199	109.813636
3022.534069	107.481119
3023.762229	105.710490
3024.991716	105.303846
3026.219493	104.880769
3027.447079	102.595804
3028.675991	105.827972
3029.900161	104.176224
3031.127174	102.936713
3032.350964	103.023427
3033.576079	106.875874
3034.799488	105.926923
3036.022708	109.286014
3037.244222	108.509091
3038.468577	111.625524
3039.688197	112.163986
3040.909143	109.824476
3042.129899	107.583217
3043.348952	107.492308
3044.569331	104.755594
3045.786493	108.220979
3047.004980	109.524476
3048.221766	109.863636
3049.438363	109.843357
3050.654773	113.933916
3051.867969	118.601049
3053.084003	119.247203
3054.296825	113.342308
3055.512484	109.410140
3056.723420	109.642657
3057.935682	104.744406
3059.147756	104.848951
3060.359644	105.514336
3061.569834	105.553497
3062.779839	105.759790
3063.989657	106.833566
3065.197779	109.674126
3066.405715	112.319580
3067.611957	105.537063
3068.819523	101.537762
3070.025394	101.060490
3071.231080	100.732867
3072.436582	96.945455
3073.640390	98.347203
3074.845522	98.302448
3076.048961	101.495455
3077.250708	102.592657
3078.452272	104.393706
3079.653652	106.634615
3080.854848	107.758392
3082.054354	105.428671
3083.253676	105.615385
3084.454322	106.204895
3085.653279	108.111888
3086.849040	107.566783
3088.047631	107.843007
3089.243028	109.359790
3090.439749	110.679021
3091.633277	112.271678
3092.829633	111.168531
3094.024302	110.265734
3095.215781	107.419231
3096.411591	106.547203
3097.602708	105.605245
3098.795148	105.941958
3099.984399	106.045105
3101.176477	106.563986
3102.366871	105.824476
3103.554078	104.655944
3104.742609	105.568531
3105.932462	102.772028
3107.119130	96.549301
3108.305619	97.973427
3109.491928	95.125175
3110.679560	95.954196
3111.864009	97.670979
3113.046778	98.793357
3114.232371	98.699301
3115.416283	98.905245
3116.598517	96.002098
3117.780573	93.503497
3118.962450	94.574126
3120.144149	91.809091
3121.324171	92.570979
3122.502516	98.082867
3123.683681	98.472028
3124.861671	102.915035
3126.039484	103.887063
3127.217120	104.036364
3128.393081	101.072378
3129.568866	99.763287
3130.745971	97.973427
3131.921403	95.101399
3133.095161	93.609091
3134.267246	94.158042
3135.440652	94.238811
3136.613883	97.091608
3137.785442	99.672028
3138.958321	101.400350
3140.128033	98.779021
3141.299066	98.305594
3142.468428	95.604196
3143.636121	95.193007
3144.806629	96.292308
3145.972478	95.634266
3147.142637	97.002098
3148.308138	97.056294
3149.473466	92.859091
3150.638620	94.388811
3151.803601	94.330420
3152.969901	95.679021
3154.131548	91.340909
3155.294516	89.806294
3156.457311	90.523427
3157.619932	93.977273
3158.780889	97.927273
3159.941674	101.977622
3161.102286	103.965734
3162.261234	100.805594
3163.420010	99.012937
3164.578615	99.378322
3165.737048	98.845105
3166.895309	97.687413
3168.051909	90.942657
3169.206846	91.114685
3170.363104	91.895455
3171.517700	91.828671
3172.672126	89.880070
3173.824891	93.082168
3174.977487	92.193007
3176.129913	89.234965
3177.282168	92.208042
3178.434254	95.507343
3179.583193	94.765035
3180.734939	94.546503
3181.885028	93.853846
3183.033459	97.657343
3184.181722	97.684266
3185.329816	97.447203
3186.477741	98.460140
3187.624010	99.640559
3188.770111	97.698601
3189.914558	96.348951
3191.058836	98.993007
3192.202947	99.916434
3193.348376	96.010839
3194.490666	95.256294
3195.632788	91.801399
3196.774744	94.278322
3197.916532	91.644755
3199.058153	91.458042
3200.196638	91.836713
3201.336442	90.817133
3202.477562	89.348601
3203.615548	88.834615
3204.751885	90.970280
3205.888056	89.024476
3207.025545	93.317483
3208.161385	95.506294
3209.298542	95.912937
3210.431086	98.949301
3211.567911	96.912238
3212.700125	100.014336
3213.833657	100.467133
3214.967023	104.439161
3216.097262	101.726923
3217.230300	101.631818
3218.360210	100.188112
3219.491438	97.773776
3220.619540	100.861538
3221.750440	96.265385
3222.879695	94.183916
3224.007307	91.339860
3225.131796	89.458042
3226.260561	91.177273
3227.386204	91.112587
3228.511684	96.303497
3229.635523	94.421329
3230.762157	97.134615
3231.884192	97.310490
3233.007544	98.874476
3234.130734	99.630070
3235.253762	98.836713
3236.375150	98.975524
3237.496377	99.790210
3238.615965	98.417483
3239.735392	99.273077
3240.853182	99.006643
3241.973763	98.534615
3243.091231	97.854895
3244.208538	99.422378
3245.325684	96.004196
3246.441195	94.563287
3247.558021	92.204895
3248.671736	89.232168
3249.788242	88.302797
3250.903112	86.836014
3252.014874	83.296853
3253.126477	85.583217
3254.239395	85.321329
3255.352153	85.504545
3256.461805	88.243706
3257.572772	88.169231
3258.683580	85.188112
3259.792756	85.429720
3260.900301	81.150350
3262.009161	80.600699
3263.117862	79.676923
3264.223461	80.140210
3265.330375	79.945455
3266.435659	80.354895
3267.542257	80.382867
3268.645755	83.525524
3269.750567	84.376923
3270.855222	82.488112
3271.956779	82.368881
3273.058179	82.305594
3274.160893	78.130070
3275.263450	77.159790
3276.362912	75.338462
3277.465156	79.775524
3278.564306	80.018531
3279.661830	83.532168
3280.759200	84.615385
3281.859351	86.721329
3282.956409	85.963636
3284.053313	82.988112
3285.150061	82.644406
3286.242250	80.958741
3287.338689	79.260140
3288.433505	78.736014
3289.528166	79.385664
3290.621206	82.163986
3291.714092	83.914336
3292.805357	84.884266
3293.897935	84.688811
3294.988893	83.424825
3296.078231	81.123427
3297.167416	76.985315
3298.257913	76.577972
3299.345326	77.283217
3300.432587	80.556294
3301.521160	80.619580
3302.609580	78.310140
3303.693453	81.062238
3304.781568	80.128322
3305.866602	78.804895
3306.950020	81.121329
3308.034750	81.804895
3309.117864	79.683566
3310.202290	80.130070
3311.283638	82.336713
3312.366298	82.041259
3313.447344	80.898601
3314.528239	77.523427
3315.607521	77.268182
3316.686652	76.950350
3317.767095	75.455245
3318.844463	75.974126
3319.923143	78.742308
3321.000211	80.298601
3322.077129	75.874476
3323.152437	79.261189
3324.227595	77.885315
3325.304064	77.072378
3326.377462	75.176224
3327.450712	74.752098
3328.525273	76.974825
3329.598224	77.008042
3330.669568	79.046154
3331.742222	78.214336
3332.811809	77.188112
3333.882707	75.243007
3334.951998	73.614685
3336.022600	76.511538
3337.091595	75.909441
3338.158985	77.560839
3339.224768	77.572727
3340.294778	80.559441
3341.361725	81.320280
3342.425610	83.415734
3343.492263	81.020280
3344.557312	78.937762
3345.620757	80.078322
3346.684055	80.162238
3347.747208	78.746503
3348.810214	81.009091
3349.873073	80.011189
3350.934331	79.277972
3351.992532	78.951049
3353.054954	77.913636
3354.114319	73.655245
3355.173540	75.024825
3356.234069	71.174126
3357.290089	69.181469
3358.348874	71.479720
3359.403151	70.151399
3360.460192	69.487762
3361.515634	69.710490
3362.572385	68.918881
3363.627539	72.712937
3364.681095	75.563287
3365.733054	77.348601
3366.787776	78.668182
3367.839448	81.680420
3368.890976	81.448252
3369.943814	83.788112
3370.993604	83.862937
3372.044703	80.909790
3373.092755	75.890559
3374.143568	73.292308
3375.191335	73.570979
3376.238960	74.413636
3377.286443	75.723776
3378.332332	75.666084
3379.379531	75.595804
3380.423686	77.095455
3381.470600	80.559441
3382.515923	85.425524
3383.558204	87.684965
3384.600344	85.301399
3385.643793	83.695804
3386.687100	84.771329
3387.728817	85.226573
3388.770394	83.762587
3389.811829	84.250699
3390.851676	83.366783
3391.889934	81.347552
3392.929500	80.095455
3393.968926	78.680769
3395.006764	79.184615
3396.043015	79.618182
3397.079126	77.111888
3398.116545	77.105594
3399.150931	78.223077
3400.186625	81.205245
3401.222179	81.911888
3402.254701	83.525874
3403.289977	84.809441
3404.322222	83.265035
3405.354329	80.396154
3406.384853	77.592657
3407.416683	74.106294
3408.448375	73.223077
3409.477039	73.127622
3410.505566	72.729021
3411.535399	75.586364
3412.565095	76.653846
3413.591765	76.868881
3414.619741	75.103497
3415.644693	74.668531
3416.672396	71.971678
3417.697074	71.404895
3418.723059	70.027273
3419.747465	66.403846
3420.771733	69.812238
3421.794424	70.790909
3422.816978	72.806993
3423.840838	75.707692
3424.861678	73.919930
3425.882382	73.236863
3426.904392	72.695467
3427.923384	72.582018
3428.942241	73.182792
3429.962404	74.784066
3430.979549	77.672115
