-118.277064	-10.920879
-115.607463	-4.240659
-112.940798	1.130170
-110.274885	5.241259
-107.611905	8.142258
-104.947494	9.882817
-102.286014	10.512587
-99.623105	9.013986
-96.965303	7.631469
-94.306070	4.518182
-91.647586	4.550350
-88.992027	1.181818
-86.335039	2.003497
-83.683148	-0.684615
-81.029828	-0.179021
-78.379427	0.345455
-75.727598	2.406993
-73.080859	1.395804
-70.432690	3.335664
-67.785265	2.572727
-65.140753	5.179720
-62.494812	6.924476
-59.853954	7.975524
-57.211665	5.171329
-54.572286	8.316084
-51.931478	6.263636
-49.291409	6.702797
-46.656414	7.319580
-44.019989	7.313986
-41.386468	5.776923
-38.751517	5.994406
-36.121633	3.193007
-33.488155	6.183217
-30.859740	5.024476
-28.232059	5.013287
-25.602950	-0.145455
-22.978897	-27.716783
-20.351254	-116.807692
-17.728666	-250.658741
-15.106808	-274.072727
-12.485681	381.445455
-9.865285	1375.827273
-7.247776	2187.088112
-4.628839	2741.113287
-2.012788	3041.630070
0.602536	3078.307692
3.217131	2858.574126
5.828845	2386.211189
8.441986	1679.666434
11.050095	811.245455
13.661784	-19.313986
16.268443	-476.230769
18.876530	-263.236364
21.483893	-21.055245
24.086231	9.173427
26.692147	9.989510
29.293042	11.436364
31.895364	11.002797
34.492668	10.410490
37.093548	11.241958
39.689414	14.716783
42.286707	15.437063
44.883281	14.396503
47.474846	8.151748
50.067839	7.646853
52.657972	3.929371
55.249531	5.374126
57.838231	5.502098
60.428359	5.517483
63.013487	6.006294
65.600043	4.934266
68.185884	6.267133
70.768872	8.625175
73.353287	9.059441
75.930572	9.111888
78.511424	7.542657
81.089427	11.055245
83.666720	9.055245
86.245440	9.662937
88.819177	7.096503
91.394341	6.183916
93.966662	5.927273
96.538276	5.208392
99.107049	8.748252
101.677249	10.244755
104.244610	10.671329
106.813398	8.762937
109.379349	8.960839
111.942464	8.330769
114.509137	7.533566
117.066587	9.282517
119.629723	11.667133
122.187900	19.712587
124.749631	30.935664
127.306405	49.911888
129.864605	78.842657
132.417853	111.052448
134.970402	148.272727
137.526503	189.290210
140.077655	232.839860
142.628110	275.564336
145.177867	312.589510
147.724805	343.125175
150.271048	364.819580
152.818716	377.609091
155.365688	380.281818
157.907724	382.830070
160.449068	379.676923
162.989718	374.443357
165.531793	370.485315
168.071058	370.604196
170.607513	371.930070
173.143278	377.648252
175.680468	376.839860
178.216967	377.746154
180.750660	377.730070
183.281549	376.211888
185.811750	374.176224
188.343376	373.717483
190.872202	369.855944
193.398228	368.617483
195.923568	368.461538
198.450333	370.959441
200.974302	371.844755
203.497585	369.873427
206.020184	366.761538
208.539990	365.600699
211.059113	364.349650
213.577553	365.320280
216.097418	364.309790
218.610280	366.397203
221.126674	367.806294
223.642387	370.912587
226.153209	371.972028
228.665456	377.580420
231.174920	379.027273
233.683706	379.742657
236.191814	383.607692
238.701346	383.188112
241.205997	383.375524
243.709972	386.272028
246.215371	385.079021
248.715895	388.160839
251.219942	388.279720
253.717019	389.620280
256.217618	389.272028
258.715446	394.248951
261.212601	396.428671
263.709084	399.739860
266.200703	399.526573
268.695841	400.834965
271.188214	400.058741
273.679916	401.136364
276.168855	404.305594
278.659217	406.164336
281.146818	403.637762
283.631659	402.451748
286.120014	400.576224
288.601431	400.576923
291.086361	400.526573
293.566445	403.527972
296.050042	402.369930
298.528797	404.551748
301.008974	404.057343
303.486400	407.299301
305.963162	412.472028
308.439260	420.741958
310.912610	434.975524
313.385299	452.112587
315.857326	466.274126
318.328691	480.447552
320.797313	487.746154
323.265275	496.674126
325.734660	490.916084
328.199222	484.306993
330.667287	474.513986
333.130533	460.460140
335.593122	446.593706
338.055053	442.067133
340.516328	441.581119
342.974869	440.991608
345.434832	438.856643
347.892063	440.213986
350.348639	435.746853
352.804560	440.986713
355.257753	437.453846
357.712368	437.418182
360.162181	438.046154
362.615490	436.360839
365.064000	431.768531
367.511860	432.389510
369.961141	432.090210
372.405629	431.379021
374.851539	429.629371
377.296800	429.955944
379.739342	431.194406
382.181236	433.386713
384.622482	431.334965
387.061013	431.900000
389.500966	433.855944
391.938205	437.117483
394.372732	436.658042
396.810747	437.613986
399.243985	433.206294
401.678645	433.581818
404.108532	432.027972
406.541904	433.981119
408.970506	433.844056
411.398466	432.820280
413.827847	431.722378
416.252464	436.696503
418.678501	437.733566
421.103899	443.412587
423.528656	441.597902
425.948654	440.437762
428.370074	436.628671
430.788797	439.228671
433.208941	435.542657
435.626390	435.036364
438.045259	432.544056
440.461435	431.391608
442.872864	429.388112
445.287769	432.865734
447.699984	431.135664
450.111565	431.430070
452.522513	431.971329
454.930773	433.689510
457.338402	431.707692
459.745398	430.651049
462.151762	424.058042
464.555445	421.935664
466.958497	421.662937
469.360919	420.248951
471.762711	416.186014
474.161825	417.187413
476.562359	415.532168
478.962264	417.299301
481.357447	419.922378
483.756095	421.066434
486.150024	418.798601
488.543327	418.276923
490.936004	413.147552
493.328056	410.424476
495.721527	403.090210
498.110285	396.434266
500.496377	384.703497
502.883889	375.448252
505.270777	361.221678
507.655002	357.404895
510.040646	349.175524
512.423627	342.937762
514.803948	334.562937
517.185688	330.832867
519.564770	326.409091
521.945269	324.124476
524.323111	319.468531
526.698298	323.540559
529.072867	320.964336
531.448855	317.488811
533.822189	315.097203
536.196942	317.487413
538.567008	314.626573
540.936459	309.723077
543.307329	306.711888
545.673517	303.809790
548.041124	304.458042
550.406085	302.070629
552.770434	298.425874
555.134169	301.789510
557.499322	298.573427
559.859803	297.549650
562.221701	296.321678
564.580960	295.971329
566.937580	295.097902
569.297646	294.541958
571.651020	298.118881
574.007839	298.584615
576.362023	298.512587
578.715598	297.301399
581.068565	293.797902
583.418901	293.048951
585.770654	289.163636
588.115729	289.810490
590.466269	289.558741
592.810136	291.206993
595.159464	288.705594
597.504143	292.017483
599.846198	295.028671
602.189670	295.541259
604.530519	293.547552
606.870765	293.939161
609.208391	288.881818
611.549452	286.594406
613.885876	281.830070
616.223716	282.261538
618.558938	280.615385
620.891545	277.644755
623.225569	272.855245
625.556978	276.693007
627.887789	277.935664
630.218002	280.675524
632.547618	280.190909
634.872610	279.423776
637.203044	277.066434
639.528856	277.483217
641.852062	276.841259
644.176684	280.428671
646.498700	281.641958
648.820122	281.988112
651.138941	281.879021
653.459176	286.272727
655.778818	285.632168
658.095859	284.778322
660.412309	282.734965
662.726160	281.151049
665.041426	276.493706
667.354096	276.650350
669.668181	278.558042
671.977667	281.246154
674.288567	283.435664
676.596875	286.144056
678.904595	283.688112
681.213730	284.004196
683.518272	279.844755
685.822228	277.637063
688.125597	277.481818
690.430381	274.396503
692.730579	270.165734
695.032192	272.846853
697.333219	273.813287
699.629665	275.993706
701.927525	276.604196
704.224803	277.052448
706.521496	272.929371
708.813614	273.656643
711.109143	272.130769
713.400099	269.558741
715.692469	269.555944
717.982263	266.951049
720.271478	266.759441
722.560113	269.248252
724.846175	271.256643
727.133651	273.852448
729.418557	273.193007
731.702884	273.825175
733.984644	273.937063
736.267817	275.876923
738.550413	274.130769
740.828453	274.351049
743.107907	274.786014
745.386786	272.860839
747.665090	271.085315
749.938843	272.130769
752.214011	270.239860
754.488605	269.400699
756.760640	271.137063
759.034088	275.234965
761.304978	276.295105
763.573312	276.687413
765.843059	276.591608
768.110251	280.047552
770.376873	277.171329
772.642926	279.877622
774.906427	278.748951
777.171340	282.612587
779.435685	284.076224
781.695499	287.096503
783.956727	289.543357
786.217387	293.757343
788.475500	290.358741
790.731070	292.986713
792.990029	290.683916
795.242490	290.872028
797.500318	290.688112
799.753627	295.027972
802.004395	291.752448
804.256576	294.777622
806.506219	293.013287
808.757273	287.618182
811.003816	286.003497
813.251772	285.965035
815.497192	280.685315
817.744025	278.930769
819.990295	276.374825
822.232062	276.474126
824.477211	276.340559
826.715888	275.423776
828.957948	274.152448
831.195509	276.131469
833.434481	274.967133
835.670928	273.603497
837.908785	275.515385
840.144117	275.003497
842.376925	275.084615
844.611145	274.555944
846.842843	276.558741
849.073986	275.748951
851.304574	277.649650
853.534608	279.066434
855.764087	275.109790
857.989086	276.413287
860.217458	274.361538
862.441352	277.285315
864.666656	277.036364
866.887485	277.644056
869.111687	276.359441
871.331415	275.287413
873.552553	272.709091
875.773141	274.351748
877.991220	277.327273
880.210708	277.503497
882.425730	273.269231
884.640204	275.786014
886.854131	274.705594
889.067510	278.712587
891.280343	273.641958
893.492628	272.224476
895.702412	267.383217
897.911650	270.130769
900.120342	268.542657
902.326536	272.255245
904.534139	274.152448
906.739245	277.550350
908.943807	277.314685
911.145874	278.286713
913.349350	273.923776
915.550332	276.130769
917.750772	271.037762
919.952621	274.532867
922.148079	277.072028
924.346895	280.005594
926.541274	278.364336
928.739010	279.073427
930.932310	282.309091
933.127018	288.104196
935.319241	289.360140
937.510926	289.722378
939.702073	291.506294
941.890737	299.670629
944.078864	300.676224
946.264511	308.495105
948.453511	311.350350
950.638086	311.829371
952.822127	307.428671
955.009518	306.391608
957.188606	305.887413
959.371044	306.539161
961.552947	303.886713
963.732377	302.211189
965.909334	310.011189
968.087699	317.590210
970.267470	321.946853
972.440893	328.933566
974.617663	334.990909
976.790025	337.284615
978.963795	337.914685
981.133161	338.129371
983.305871	335.004196
985.476115	334.067133
987.645831	331.641259
989.815018	337.894406
991.979808	343.206993
994.147940	347.427273
996.311676	348.036364
998.476820	354.366434
1000.639504	351.653846
1002.801663	351.844755
1004.961364	346.065035
1007.120542	340.421678
1009.281126	336.531469
1011.439255	332.107692
1013.596860	340.397902
1015.753942	348.860839
1017.910501	350.816783
1020.062680	362.155245
1022.216266	372.582517
1024.369330	378.822378
1026.519945	378.423077
1028.671966	388.389510
1030.819615	378.968531
1032.970594	382.210490
1035.117204	379.690909
1037.263294	375.379021
1039.408866	376.893706
1041.555842	376.497203
1043.696531	382.188112
1045.840548	389.547552
1047.982126	386.861538
1050.123186	385.446853
1052.265651	392.126573
1054.401837	392.782517
1056.541349	390.969231
1058.676505	390.580420
1060.814986	388.226573
1062.949114	383.304895
1065.082728	381.100699
1067.217746	389.675524
1069.348415	396.914685
1071.480490	402.383916
1073.610134	402.376923
1075.739267	404.416084
1077.867889	400.523776
1079.995999	394.448252
1082.121683	391.265035
1084.246857	376.320280
1086.373434	368.000699
1088.495675	358.833566
1090.619320	356.431469
1092.738630	365.836364
1094.863169	372.645455
1096.981464	386.090210
1099.101162	386.581818
1101.218442	386.022378
1103.335216	381.206294
1105.451483	383.710490
1107.565335	387.774126
1109.680590	384.411888
1111.791523	381.944056
1113.905768	382.167133
1116.015692	377.753846
1118.127019	382.805594
1120.237843	381.058042
1122.344350	379.704895
1124.454166	371.973427
1126.559668	368.873427
1128.666574	362.938462
1130.767264	369.493706
1132.873165	373.346853
1134.974758	371.008392
1137.077754	370.669231
1139.180249	375.576224
1141.276538	372.992308
1143.378033	380.940559
1145.475226	382.286713
1147.571920	381.004196
1149.668117	378.190210
1151.763815	374.769930
1153.859016	373.181119
1155.951820	373.558741
1158.046026	367.577622
1160.134041	367.642657
1162.227254	368.779720
1164.314279	376.673427
1166.404604	377.717483
1168.490640	385.989510
1170.579974	386.386014
1172.663127	390.761538
1174.747683	391.794406
1176.833639	394.060839
1178.915315	395.146154
1180.998391	394.070629
1183.079082	389.906993
1185.159282	392.842657
1187.238990	396.825874
1189.318207	399.810490
1191.395041	398.304895
1193.469495	399.409790
1195.547241	396.042657
1197.620716	397.696503
1199.695593	396.618881
1201.766202	395.734266
1203.838212	392.438462
1205.907846	393.673427
1207.978881	390.788811
1210.049428	395.434965
1212.115715	397.253846
1214.183401	397.905594
1216.248716	399.846853
1218.315431	403.560839
1220.377890	405.909790
1222.443635	409.306294
1224.505125	412.762238
1226.568015	420.883916
1228.628538	423.595804
1230.688578	428.596503
1232.748134	429.721678
1234.805326	431.165734
1236.862035	429.404895
1238.916382	429.616783
1240.974009	432.111888
1243.029274	434.438462
1245.080298	432.845455
1247.132723	431.925874
1249.184667	431.646853
1251.234253	436.698601
1253.283360	432.535664
1255.331988	436.864336
1257.380138	439.697902
1259.427810	445.893706
1261.471251	451.730769
1263.517967	458.625175
1265.562331	464.141259
1267.606217	466.848951
1269.647753	466.665734
1271.686939	470.198601
1273.729397	476.395804
1275.767634	476.530070
1277.807268	470.717483
1279.846428	476.254545
1281.881370	478.050350
1283.917710	487.221678
1285.951705	492.764336
1287.987099	501.655245
1290.018279	504.769930
1292.050858	512.209091
1294.082964	520.110490
1296.112730	530.985315
1298.143894	540.739860
1300.170850	542.892308
1302.199204	541.638462
1304.223354	545.525175
1306.250769	547.460839
1308.273981	553.018881
1310.298591	554.451748
1312.320866	560.047552
1314.344539	558.914685
1316.365879	563.976923
1318.386752	566.528671
1320.407157	569.058042
1322.423369	575.046154
1324.440978	578.825874
1326.456259	581.246154
1328.474799	583.892308
1330.489149	593.123776
1332.501174	605.172028
1334.516457	613.093706
1336.527554	619.336364
1338.540047	623.386713
1340.548358	630.748951
1342.559925	632.102797
1344.565453	631.860839
1346.574235	634.798601
1348.578841	635.692308
1350.586700	635.386713
1352.594097	632.206294
1354.595462	633.720979
1356.598225	636.716084
1358.600528	628.803497
1360.602370	623.995804
1362.603754	621.430769
1364.602823	611.067133
1366.601434	598.669231
1368.599587	584.648951
1370.597282	573.505594
1372.590813	565.967133
1374.585741	554.262937
1376.580212	546.474825
1378.574226	543.639161
1380.565933	545.981119
1382.557184	537.771329
1384.546130	541.706294
1386.536471	541.896503
1388.526357	536.799301
1390.513940	532.183916
1392.501069	526.703497
1394.485896	522.560839
1396.472118	518.609790
1398.456039	510.093007
1400.439508	510.661538
1402.422525	515.034965
1404.403244	517.471329
1406.385357	518.262937
1408.365173	523.625175
1410.344539	524.382517
1412.319766	527.592308
1414.298231	526.651049
1416.274403	525.060839
1418.250125	520.265734
1420.225398	517.596503
1422.198381	512.493007
1424.170915	509.609790
1426.143001	508.869930
1428.114639	504.697203
1430.082150	503.290210
1432.054734	498.533566
1434.019512	495.995105
1435.989363	494.554545
1437.955089	490.932168
1439.922209	487.023776
1441.887045	481.693007
1443.847761	482.550350
1445.813545	479.030769
1447.773374	477.167832
1449.734596	476.552448
1451.697211	477.929371
1453.655711	483.316783
1455.613769	483.034965
1457.571384	488.118182
1459.528558	493.140559
1461.483456	495.490210
1463.439746	497.690210
1465.393762	496.784615
1467.347338	497.783916
1469.298641	494.750350
1471.251336	489.663636
1473.201760	484.347552
1475.151745	481.658741
1477.101291	481.206993
1479.048567	477.446853
1480.993577	482.462937
1482.939979	486.155245
1484.885943	484.723077
1486.831470	486.909790
1488.774731	491.671329
1490.717556	491.688112
1492.658118	491.617483
1494.600072	487.808392
1496.539763	486.344755
1498.479019	482.056643
1500.417841	485.779021
1502.354403	487.336364
1504.292355	496.438462
1506.228050	502.385315
1508.163311	504.274825
1510.096315	506.932168
1512.028887	513.732867
1513.961027	515.227972
1515.892735	519.255944
1517.822190	522.988811
1519.753034	524.041259
1521.683448	526.305594
1523.609789	530.634965
1525.537520	533.113986
1527.463001	540.434266
1529.388053	543.699301
1531.312676	540.823776
1533.236870	542.933566
1535.158817	551.405594
1537.082153	557.515385
1539.003244	568.943357
1540.922090	582.823077
1542.842326	592.496503
1544.760318	612.894406
1546.677884	632.502098
1548.593209	659.020979
1550.509922	688.963636
1552.422581	717.252448
1554.338444	753.058042
1556.252068	795.952448
1558.163453	852.302797
1560.076227	921.827273
1561.984953	1007.916783
1563.895067	1108.751049
1565.804758	1228.100699
1567.714026	1357.251049
1569.621059	1477.184615
1571.525860	1568.153147
1573.432050	1617.725175
1575.336009	1621.430070
1577.239546	1580.488112
1579.142662	1492.186014
1581.043550	1383.078322
1582.945826	1261.118881
1584.845873	1134.246853
1586.747309	1028.241259
1588.644710	943.076224
1590.541694	882.025874
1592.438259	833.218881
1594.336211	793.349650
1596.228329	769.725175
1598.123641	750.418881
1600.018534	737.130070
1601.911207	721.386713
1603.803462	713.192308
1605.693498	708.255944
1607.583118	702.848252
1609.472323	696.856643
1611.361112	683.479720
1613.247685	676.173427
1615.135645	654.033566
1617.019588	640.303497
1618.904918	627.119580
1620.789835	613.331469
1622.672538	599.519580
1624.556628	579.462238
1626.436706	562.883217
1628.318171	543.717483
1630.197426	526.915385
1632.078067	502.385315
1633.952905	486.988811
1635.832723	471.104895
1637.708536	458.668531
1639.583940	457.690210
1641.460729	447.330070
1643.331721	444.895804
1645.205896	436.641958
1647.076071	433.944755
1648.949427	427.320280
1650.820580	417.196503
1652.689531	411.040559
1654.559868	397.008392
1656.426211	392.480420
1658.293941	391.112587
1660.159471	390.604895
1662.026386	388.048252
1663.889313	377.900000
1665.753625	372.782517
1667.615742	364.259441
1669.477453	364.071329
1671.340549	352.823776
1673.201451	351.474825
1675.060159	349.176224
1676.918465	348.566434
1678.778154	350.988112
1680.632077	355.958042
1682.489173	348.622378
1684.345865	341.183217
1686.198582	339.481818
1688.054470	338.517483
1689.906384	333.162937
1691.757897	336.697902
1693.609009	331.446853
1695.459720	344.582517
1697.310031	345.620979
1699.158158	341.678322
1701.007668	336.711189
1702.851430	332.176923
1704.700142	320.718881
1706.543107	308.056643
1708.389238	309.462937
1710.231408	303.651748
1712.076742	296.638462
1713.916336	301.541958
1715.757314	302.805594
1717.599676	313.558741
1719.438080	305.057343
1721.277868	302.367133
1723.115481	304.853147
1724.952698	311.854545
1726.787742	314.518182
1728.624169	317.520979
1730.458424	315.196503
1732.292285	310.125874
1734.125751	307.284615
1735.955271	306.388112
1737.787950	301.481119
1739.616685	301.474126
1741.448578	289.615385
1743.276528	284.387413
1745.104086	280.725874
1746.931253	284.463636
1748.758028	288.183916
1750.584411	290.102797
1752.406858	287.145455
1754.232459	294.696503
1756.054126	299.510490
1757.877175	294.393706
1759.698063	289.108392
1761.518561	297.779021
1763.340441	295.446853
1765.156621	289.283217
1766.975953	293.514685
1768.791358	291.034965
1770.609914	292.694406
1772.424544	294.883916
1774.238787	290.113287
1776.052644	280.399301
1777.866114	276.429371
1779.677430	269.055944
1781.490128	268.555944
1783.302439	277.153147
1785.110833	280.040559
1786.920608	278.516084
1788.726467	280.860839
1790.535473	282.123077
1792.340565	287.525175
1794.147037	292.703497
1795.953126	286.466434
1797.755305	283.355245
1799.560627	292.890210
1801.362041	300.153147
1803.164835	298.618182
1804.963724	301.713986
1806.763992	302.980420
1808.563880	294.637762
1810.361625	290.932867
1812.158990	286.441259
1813.955974	281.492308
1815.752578	277.416084
1817.547043	275.774825
1819.342888	278.406294
1821.133077	280.623776
1822.928163	279.749650
1824.717596	270.309091
1826.510167	272.187413
1828.300602	271.420979
1830.088902	263.551748
1831.880338	262.438462
1833.666129	257.655944
1835.453298	261.779720
1837.238337	264.332867
1839.026508	267.624476
1840.810794	273.192308
1842.592951	275.004196
1844.376487	279.483217
1846.157894	277.211888
1847.940679	284.597902
1849.719585	281.659441
1851.499869	279.916084
1853.278028	283.813986
1855.057564	283.745455
1856.834976	290.849650
1858.610264	291.615385
1860.386931	292.049650
1862.161475	294.891608
1863.937396	294.018881
1865.707698	292.688811
1867.481127	288.148252
1869.252436	285.132867
1871.023374	280.525175
1872.795689	281.192308
1874.562392	279.425175
1876.332219	280.184615
1878.098183	281.411888
1879.867271	282.505594
1881.632497	275.962238
1883.397355	277.669231
1885.163589	270.227972
1886.925965	267.198601
1888.687974	265.156643
1890.449616	265.373427
1892.210890	265.139161
1893.971798	269.386014
1895.732338	270.578322
1897.490770	272.532168
1899.248835	268.655245
1901.004793	270.332168
1902.762127	263.195105
1904.519095	268.389510
1906.273958	259.781119
1908.026715	261.117483
1909.779109	258.151049
1911.532879	262.513287
1913.284545	257.700699
1915.034108	263.721678
1916.785048	261.527273
1918.535624	262.949650
1920.282362	261.342657
1922.030475	265.365734
1923.776489	259.565734
1925.523879	261.462238
1927.269170	259.213287
1929.012364	259.312587
1930.756934	253.126573
1932.499407	259.817483
1934.241520	253.611888
1935.983274	257.472378
1937.724667	259.746154
1939.463967	263.332517
1941.202908	259.924476
1942.941490	257.844406
1944.677980	255.341259
1946.414113	255.713636
1948.151620	260.072028
1949.885306	259.485664
1951.620366	253.560839
1953.353337	257.184266
1955.085952	252.563636
1956.818210	252.291958
1958.550112	258.538462
1960.279928	260.805594
1962.007660	261.852448
1963.736766	264.234965
1965.465516	268.335664
1967.192183	268.127972
1968.918496	271.310490
1970.646182	270.065035
1972.368333	264.744056
1974.093584	261.554545
1975.815028	257.055944
1977.539572	254.006294
1979.262037	259.042657
1980.980698	261.684615
1982.702458	269.018881
1984.420416	271.597902
1986.139748	275.685315
1987.855279	274.754545
1989.575632	274.209790
1991.292186	274.649650
1993.004943	274.100699
1994.720796	272.482517
1996.434577	272.357343
1998.148008	268.807692
1999.859367	268.236364
2001.572100	263.176923
2003.281041	262.549650
2004.993076	264.030070
2006.699601	264.576224
2008.409219	264.531469
2010.116769	266.811888
2011.823972	269.587413
2013.529109	271.258042
2015.233899	276.467133
2016.940061	278.398601
2018.642441	277.012587
2020.346193	282.981818
2022.047882	279.734965
2023.749225	278.572727
2025.450223	278.111189
2027.149161	275.153147
2028.849470	278.344056
2030.546003	276.120979
2032.243908	272.104196
2033.939755	267.751049
2035.638687	264.008392
2037.332133	259.160839
2039.026950	260.869231
2040.721424	264.790909
2042.412130	260.991608
2044.105920	256.625874
2045.795943	256.098601
2047.487337	259.613986
2049.176678	267.197902
2050.867389	264.130769
2052.554338	267.832168
2054.240946	266.983217
2055.928925	263.162238
2057.613144	260.552448
2059.298733	258.320280
2060.983983	254.362937
2062.667185	246.716084
2064.351757	242.293706
2066.030865	243.507692
2067.714759	244.892308
2069.393193	251.551748
2071.074704	250.513287
2072.752463	257.927273
2074.429886	258.101399
2076.108678	261.116084
2077.785427	262.235664
2079.460135	265.323776
2081.136212	268.556643
2082.810249	267.369930
2084.483950	267.618182
2086.157316	270.565734
2087.828644	267.218182
2089.499637	266.700000
2091.170296	259.582517
2092.840621	258.215385
2094.510611	255.911888
2096.178566	254.816084
2097.846188	255.167133
2099.511776	261.200699
2101.178732	264.590210
2102.843655	266.026573
2104.508245	263.848951
2106.170804	264.787413
2107.834732	260.565035
2109.496628	259.645455
2111.158193	258.993007
2112.819428	261.648252
2114.478633	261.750350
2116.137509	261.841259
2117.796054	260.583217
2119.454270	266.169930
2121.108763	266.876224
2122.766320	267.600000
2124.423547	264.782517
2126.077054	262.086713
2127.731928	257.909091
2129.383083	257.006294
2131.037301	257.262238
2132.687801	261.410490
2134.339669	261.628671
2135.986128	258.756643
2137.637341	259.116783
2139.284842	263.257343
2140.933709	262.242657
2142.580557	261.058042
2144.227080	257.875524
2145.873277	256.360839
2147.515765	255.478322
2149.161312	257.162238
2150.803152	257.637762
2152.448049	256.692308
2154.089241	253.969930
2155.730109	252.985315
2157.370654	254.758042
2159.009186	256.750350
2160.649084	259.346853
2162.285282	261.297902
2163.922846	263.016783
2165.560088	268.502797
2167.195320	270.848252
2168.830230	274.565035
2170.464819	270.879720
2172.099087	268.169231
2173.729661	265.700699
2175.363286	262.046154
2176.993220	257.125175
2178.624520	259.681818
2180.253814	259.363636
2181.882789	259.096503
2183.511444	256.631469
2185.139780	258.618881
2186.766113	256.504895
2188.392128	259.148951
2190.016142	262.206294
2191.641521	261.237762
2193.264899	260.829371
2194.889642	260.734965
2196.510703	256.235664
2198.131449	254.105594
2199.753558	247.456643
2201.373670	246.339860
2202.991786	244.267832
2204.609586	247.908392
2206.227070	245.192308
2207.844239	255.753846
2209.461093	260.230769
2211.077632	256.453846
2212.692177	258.967133
2214.304731	265.328671
2215.918648	263.096503
2217.530573	258.156643
2219.143863	252.292308
2220.755161	255.584615
2222.364471	258.749650
2223.975143	258.244056
2225.583827	257.327273
2227.192199	257.992308
2228.798583	253.494406
2230.406331	250.865035
2232.012092	253.610490
2233.617543	257.636364
2235.221008	255.311888
2236.825836	249.068531
2238.428680	246.061538
2240.029541	255.113986
2241.631765	255.902797
2243.232007	252.145455
2244.833611	251.610490
2246.431562	251.943357
2248.030876	256.357343
2249.628210	262.762937
2251.225236	258.920979
2252.823623	257.661538
2254.418362	254.090909
2256.011125	253.702797
2257.605249	252.317483
2259.200736	255.394406
2260.792577	246.118881
2262.384112	245.693706
2263.977008	252.668531
2265.564595	261.934266
2267.156879	263.867133
2268.743855	269.857343
2270.333860	261.786713
2271.918560	261.153846
2273.507954	255.202797
2275.092045	257.566434
2276.677498	254.038462
2278.260982	253.172727
2279.847491	252.916084
2281.430367	261.223077
2283.012939	268.065734
2284.595209	270.901399
2286.173848	270.706993
2287.755512	276.734266
2289.333547	274.383217
2290.914605	273.462238
2292.492036	271.042657
2294.067504	274.402098
2295.645994	272.195804
2297.220859	271.595105
2298.795425	267.279021
2300.369689	263.428671
2301.943653	256.382517
2303.517317	253.704196
2305.090680	255.337762
2306.660425	258.456643
2308.229871	251.990210
2309.802336	248.415385
2311.369526	246.502797
2312.939733	245.558042
2314.506327	236.658741
2316.074279	236.513986
2317.640277	230.661538
2319.205977	235.186014
2320.771379	242.944755
2322.334828	255.285315
2323.899636	269.309091
2325.460835	278.916084
2327.025049	278.861538
2328.584002	276.038462
2330.145968	273.260140
2331.705984	269.655944
2333.265704	257.560140
2334.823475	253.397902
2336.380952	246.751748
2337.938133	237.847552
2339.493368	237.636364
2341.048308	238.735664
2342.602955	243.698601
2344.157308	245.295105
2345.711367	241.688112
2347.265133	235.228671
2348.816954	232.925874
2350.366832	242.032867
2351.919718	239.159441
2353.467362	241.348951
2355.018013	247.573427
2356.565074	245.786713
2358.113492	248.798601
2359.661618	252.637762
2361.206157	250.991608
2362.752053	249.710490
2364.296010	241.230769
2365.841325	237.655245
2367.383055	237.984615
2368.926143	246.173427
2370.467294	237.614685
2372.008156	244.594406
2373.548729	251.175524
2375.089013	254.559441
2376.629008	246.361538
2378.165424	248.579720
2379.704842	246.448951
2381.240683	243.985315
2382.777880	239.562238
2384.311503	245.160839
2385.848125	252.032867
2387.382817	254.267133
2388.915578	260.867832
2390.448054	272.805594
2391.978601	281.158741
2393.512146	275.613287
2395.040480	262.656643
2396.570170	262.672028
2398.099575	259.229371
2399.628695	252.163636
2401.157529	254.958042
2402.681159	258.520979
2404.209424	259.749650
2405.732486	260.711189
2407.260183	267.211888
2408.781039	270.236364
2410.306529	270.276224
2411.828459	263.406294
2413.351743	257.949650
2414.873107	262.102797
2416.392551	260.086014
2417.913350	254.737762
2419.432230	260.246154
2420.950828	261.476224
2422.467509	256.588112
2423.985545	258.044755
2425.503299	254.846853
2427.017501	255.393706
2428.531423	255.789510
2430.045066	262.876224
2431.560062	264.628671
2433.071511	268.454545
2434.584313	268.414685
2436.095203	264.397203
2437.605813	262.594406
2439.114512	255.419580
2440.626198	251.090909
2442.134340	255.564336
2443.642203	250.174825
2445.149789	257.568531
2446.653835	264.342657
2448.160865	266.155944
2449.665987	272.406993
2451.170832	267.026573
2452.673770	268.753147
2454.176431	265.718182
2455.678816	261.593007
2457.179296	260.530769
2458.681129	272.411189
2460.181058	276.853846
2461.680711	277.611888
2463.180089	287.080420
2464.677564	285.457343
2466.173137	281.793007
2467.671690	279.355245
2469.166715	266.675524
2470.663092	261.717483
2472.155943	256.002797
2473.650146	257.696503
2475.144077	260.057343
2476.634483	270.704895
2478.127867	269.384615
2479.619353	272.839860
2481.108942	274.097902
2482.598259	266.079021
2484.085680	267.562937
2485.576077	257.613986
2487.062955	244.365035
2488.551186	237.384615
2490.035899	233.161538
2491.520342	234.293007
2493.006137	236.433566
2494.490039	241.616783
2495.975293	244.153846
2497.455413	243.702797
2498.938505	242.871329
2500.419708	242.340559
2501.900640	246.578322
2503.379684	241.977622
2504.858460	238.723776
2506.336967	236.320280
2507.815205	238.428671
2509.293176	235.896503
2510.767641	240.883217
2512.245075	242.329371
2513.719006	247.102797
2515.194288	242.776923
2516.669302	241.651049
2518.140815	243.573427
2519.613679	241.422378
2521.084660	241.628671
2522.556991	239.075524
2524.024208	234.462238
2525.494392	238.586713
2526.962694	240.119580
2528.430732	247.351049
2529.898505	251.273427
2531.366013	255.506993
2532.833257	251.513986
2534.297008	246.561538
2535.762109	242.377622
2537.225333	237.946154
2538.689906	239.527972
2540.150991	243.165035
2541.613425	244.455245
2543.075596	245.381818
2544.534280	252.272727
2545.997537	254.352448
2547.455697	255.162238
2548.915206	261.831469
2550.369622	258.667832
2551.828608	255.563636
2553.285721	250.861538
2554.740964	253.080420
2556.195946	250.113986
2557.649058	252.055245
2559.103519	250.737762
2560.556111	250.770629
2562.008443	253.215385
2563.458907	252.451049
2564.912327	253.730769
2566.360665	261.341958
2567.811959	259.676224
2569.261386	267.190909
2570.707342	266.867133
2572.156252	270.203497
2573.601691	261.358042
2575.048479	266.409790
2576.493403	265.170629
2577.938070	268.109091
2579.384084	267.125874
2580.826631	263.369231
2582.270526	254.579720
2583.710956	257.937762
2585.152734	256.769930
2586.592652	259.024476
2588.033917	252.210490
2589.471720	258.415385
2590.912473	256.295105
2592.348163	257.321678
2593.786803	257.644056
2595.223586	263.841259
2596.658512	261.658042
2598.096387	260.927273
2599.529204	258.620979
2600.963368	265.539161
2602.395677	266.620280
2603.829334	265.569930
2605.261136	266.913986
2606.692686	276.325175
2608.123982	270.143357
2609.553427	269.069231
2610.982619	268.271329
2612.409960	268.472028
2613.838648	259.407692
2615.267083	268.829371
2616.692072	275.867832
2618.118406	283.333566
2619.542892	291.067133
2620.968724	296.202797
2622.391112	300.091608
2623.814846	307.844755
2625.236734	300.327972
2626.658371	302.892308
2628.078164	301.343357
2629.499301	302.043357
2630.920189	298.684615
2632.337639	309.127972
2633.758028	314.544755
2635.174980	322.681119
2636.591684	329.627972
2638.008139	335.336364
2639.424346	334.243357
2640.840304	337.761538
2642.254422	334.031469
2643.668293	339.604895
2645.080324	342.976224
2646.493700	343.793706
2647.903646	343.990210
2649.316528	348.182517
2650.725981	347.860140
2652.135188	355.770629
2653.542559	361.282517
2654.952864	366.453846
2656.361333	365.336364
2657.767967	372.721678
2659.174356	380.195105
2660.578911	387.703497
2661.984810	393.501399
2663.388876	402.913986
2664.792698	410.334965
2666.196275	413.455944
2667.598021	421.311189
2669.001110	436.086014
2670.400781	442.451748
2671.801796	454.342657
2673.199395	459.016783
2674.599923	466.695105
2675.997037	468.686014
2677.395494	475.522378
2678.792123	479.995105
2680.188511	480.662937
2681.584656	474.700000
2682.978975	472.642657
2684.374637	482.541958
2685.766889	480.060140
2687.160485	480.617483
2688.552256	485.497203
2689.945369	482.903497
2691.336659	484.213986
2692.726126	487.550350
2694.115354	490.520979
2695.504341	489.074825
2696.894671	484.293706
2698.280016	486.559441
2699.668286	485.694406
2701.054735	488.979021
2702.440945	482.229371
2703.826916	483.207692
2705.209489	478.449650
2706.593404	473.820280
2707.977080	476.293706
2709.360519	476.073427
2710.740562	472.447552
2712.121947	469.890909
2713.501516	471.947552
2714.882427	467.951748
2716.261523	461.114685
2717.638805	451.118881
2719.017428	437.153147
2720.394237	423.816783
2721.770811	414.444755
2723.147149	398.321678
2724.521675	391.314685
2725.897542	383.516783
2727.270022	382.440559
2728.645419	378.318182
2730.015854	375.020280
2731.387631	372.622378
2732.759174	370.663636
2734.128908	361.714685
2735.499982	350.137063
2736.869249	336.769930
2738.238282	330.832168
2739.605508	318.899301
2740.972502	310.243357
2742.339263	306.615385
2743.705791	302.734965
2745.070515	293.797902
2746.435006	288.600699
2747.799265	283.572727
2749.163293	279.119580
2750.527088	275.563636
2751.887510	267.209091
2753.250843	254.762937
2754.609233	250.674825
2755.970533	248.700000
2757.328462	248.660839
2758.689301	255.841259
2760.048339	258.990909
2761.404009	254.258741
2762.762588	248.946154
2764.117799	250.824476
2765.472781	250.158741
2766.825966	253.260140
2768.182058	250.867832
2769.534786	245.756643
2770.887285	244.180420
2772.239557	249.039161
2773.593166	254.130070
2774.943414	263.291608
2776.291869	265.226573
2777.643228	254.374825
2778.991228	247.589510
2780.340567	252.203497
2781.688113	246.804895
2783.035432	245.889510
2784.382525	240.548252
2785.727827	238.039161
2787.072903	234.776923
2788.417753	235.391608
2789.762377	234.670629
2791.103648	230.407692
2792.446258	223.474825
2793.788643	216.427972
2795.130802	213.012587
2796.469612	213.540559
2797.811322	216.995105
2799.149683	218.506993
2800.489382	222.051049
2801.827295	219.697203
2803.163424	225.106993
2804.499330	233.740559
2805.836572	235.560140
2807.172031	229.938462
2808.507267	235.010490
2809.840721	237.446853
2811.175511	238.927273
2812.506960	244.418881
2813.841305	255.916084
2815.170752	256.918182
2816.501536	255.639161
2817.832098	248.962238
2819.160881	248.434965
2820.491001	240.197203
2821.819341	228.225175
2823.147461	222.888811
2824.473804	220.537063
2825.801482	215.020979
2827.125828	213.137063
2828.451510	217.712587
2829.775416	221.852448
2831.099102	226.013986
2832.424124	227.389510
2833.745817	221.622378
2835.067290	212.975524
2836.388545	202.716783
2837.709581	202.800699
2839.028845	200.349650
2840.349444	199.414685
2841.668271	201.082517
2842.986880	201.374825
2844.303719	213.112587
2845.620340	220.065734
2846.936743	224.085315
2848.251378	223.811189
2849.567347	220.639161
2850.879997	219.901399
2852.193981	220.635664
2853.507749	222.810490
2854.821300	220.495105
2856.133084	224.909091
2857.443103	226.884615
2858.754456	230.151049
2860.062493	232.156643
2861.371866	225.681818
2862.681023	214.623077
2863.989965	215.885315
2865.297144	212.374825
2866.602559	212.296503
2867.909309	213.701399
2869.214297	215.628671
2870.519070	214.403497
2871.822083	214.979720
2873.127976	219.271329
2874.429015	220.835664
2875.731387	217.401399
2877.032000	217.144056
2878.333947	214.615385
2879.635681	223.944056
2880.934111	226.127972
2882.233874	228.686713
2883.531880	229.964336
2884.829674	225.651748
2886.125711	218.289510
2887.423082	219.030070
2888.718697	214.660140
2890.014102	205.476224
2891.309295	206.171329
2892.601190	202.990909
2893.895962	194.279021
2895.187438	191.875524
2896.480246	196.470629
2897.772844	203.339860
2899.062147	206.120979
2900.352783	209.467832
2901.641669	210.644056
2902.931886	222.680420
2904.218812	220.459441
2905.507070	221.554545
2906.793579	223.157343
2908.079879	213.590909
2909.365971	207.555944
2910.650315	209.070629
2911.937531	217.067832
2913.219920	218.212587
2914.503641	220.746853
2915.785615	228.371329
2917.067383	230.046154
2918.347405	235.138462
2919.630297	233.282517
2920.911444	234.162238
2922.189309	232.412587
2923.470043	222.581818
2924.747496	228.753846
2926.024744	224.655944
2927.300249	220.291608
2928.578622	218.572727
2929.852181	221.644056
2931.128606	228.339161
2932.403291	227.179021
2933.676236	227.694406
2934.950511	232.770629
2936.223047	237.255245
2937.495379	234.283916
2938.764438	231.950350
2940.036362	232.173427
2941.306548	225.793007
2942.576530	221.357343
2943.846309	222.276224
2945.114351	214.808392
2946.380658	218.755944
2947.646762	213.771329
2948.914197	218.255245
2950.179896	214.826573
2951.445393	217.686014
2952.710689	215.779021
2953.972719	218.930769
2955.236079	218.832867
2956.499238	219.001399
2957.760664	215.716783
2959.023420	212.297203
2960.284445	201.811888
2961.543739	200.346154
2962.802832	189.677622
2964.061725	185.542657
2965.320418	178.771329
2966.578911	181.388811
2967.835675	178.119580
2969.092240	189.726573
2970.347076	199.469930
2971.603242	197.581818
2972.856152	201.548252
2974.110392	197.568531
2975.364433	198.376224
2976.616748	199.002797
2977.868865	192.172727
2979.119257	190.144755
2980.372504	189.102797
2981.620974	185.598601
2982.872298	184.254545
2984.120374	191.192308
2985.368252	188.304895
2986.615933	181.325175
2987.863418	187.249650
2989.109181	184.463636
2990.354747	188.373427
2991.601642	191.293706
2992.845291	191.551049
2994.090269	200.404196
2995.332004	206.695804
2996.576590	210.644056
2997.819457	210.050350
2999.059082	209.816783
3000.301559	207.837063
3001.540795	212.384615
3002.781359	214.053147
3004.020206	208.181119
3005.258859	203.966434
3006.495796	201.623776
3007.734061	199.130769
3008.970610	202.464336
3010.206966	195.045455
3011.443128	194.852448
3012.677576	191.504895
3013.911831	192.553846
3015.145893	193.328671
3016.378243	199.300699
3017.608881	196.540559
3018.842365	197.455944
3020.074138	193.607692
3021.304199	189.230070
3022.534069	185.021678
3023.762229	185.036364
3024.991716	181.872727
3026.219493	190.406993
3027.447079	187.725874
3028.675991	188.362937
3029.900161	193.233566
3031.127174	197.293007
3032.350964	195.036364
3033.576079	193.501399
3034.799488	189.239161
3036.022708	187.126573
3037.244222	187.368531
3038.468577	190.133566
3039.688197	192.036364
3040.909143	193.626573
3042.129899	184.912587
3043.348952	184.814685
3044.569331	186.390909
3045.786493	179.680420
3047.004980	176.604895
3048.221766	181.645455
3049.438363	181.982517
3050.654773	187.283916
3051.867969	191.466434
3053.084003	192.728671
3054.296825	191.935664
3055.512484	191.506294
3056.723420	183.328671
3057.935682	181.111888
3059.147756	176.084615
3060.359644	171.781818
3061.569834	175.362937
3062.779839	176.315385
3063.989657	172.044755
3065.197779	174.148951
3066.405715	176.305594
3067.611957	176.301399
3068.819523	174.269930
3070.025394	175.539161
3071.231080	173.720979
3072.436582	172.674126
3073.640390	170.913287
3074.845522	173.654545
3076.048961	174.355245
3077.250708	178.873427
3078.452272	174.765035
3079.653652	181.858741
3080.854848	182.363636
3082.054354	181.924476
3083.253676	178.391608
3084.454322	179.551748
3085.653279	175.693007
3086.849040	174.437063
3088.047631	171.803497
3089.243028	171.131469
3090.439749	172.983217
3091.633277	177.686713
3092.829633	172.930769
3094.024302	181.804895
3095.215781	179.386014
3096.411591	183.376224
3097.602708	186.034266
3098.795148	187.766434
3099.984399	184.464336
3101.176477	188.213287
3102.366871	182.462238
3103.554078	176.245455
3104.742609	176.441259
3105.932462	176.479021
3107.119130	173.605594
3108.305619	174.718182
3109.491928	176.956643
3110.679560	178.707692
3111.864009	181.530769
3113.046778	184.254545
3114.232371	182.318881
3115.416283	180.146853
3116.598517	175.716783
3117.780573	174.974825
3118.962450	177.067832
3120.144149	172.200000
3121.324171	171.086713
3122.502516	168.763636
3123.683681	168.054545
3124.861671	167.452448
3126.039484	169.802797
3127.217120	167.207692
3128.393081	163.920979
3129.568866	161.613986
3130.745971	164.925874
3131.921403	164.863636
3133.095161	161.652448
3134.267246	158.730769
3135.440652	158.831469
3136.613883	161.323776
3137.785442	163.823776
3138.958321	169.113986
3140.128033	165.478322
3141.299066	160.853147
3142.468428	163.943357
3143.636121	164.863636
3144.806629	165.706993
3145.972478	168.539860
3147.142637	165.400000
3148.308138	166.457343
3149.473466	158.881119
3150.638620	162.177622
3151.803601	160.595804
3152.969901	157.085315
3154.131548	152.268531
3155.294516	147.786713
3156.457311	151.621678
3157.619932	156.195105
3158.780889	157.830070
3159.941674	164.072727
3161.102286	168.246154
3162.261234	170.660839
3163.420010	170.597902
3164.578615	169.234266
3165.737048	168.604895
3166.895309	167.109790
3168.051909	162.367832
3169.206846	158.345455
3170.363104	160.680420
3171.517700	160.899301
3172.672126	154.487413
3173.824891	157.191608
3174.977487	162.958042
3176.129913	161.421678
3177.282168	163.430769
3178.434254	163.691608
3179.583193	163.834965
3180.734939	160.911888
3181.885028	155.519580
3183.033459	157.425175
3184.181722	158.839161
3185.329816	159.482517
3186.477741	152.873427
3187.624010	160.561538
3188.770111	161.693007
3189.914558	162.857343
3191.058836	165.616783
3192.202947	168.164336
3193.348376	160.795105
3194.490666	156.255944
3195.632788	149.711888
3196.774744	152.167133
3197.916532	155.853846
3199.058153	158.011189
3200.196638	158.173427
3201.336442	167.227273
3202.477562	167.342657
3203.615548	166.679720
3204.751885	164.427273
3205.888056	160.855245
3207.025545	156.756643
3208.161385	152.620280
3209.298542	146.302098
3210.431086	154.092308
3211.567911	157.881818
3212.700125	162.011189
3213.833657	161.192308
3214.967023	165.980420
3216.097262	163.193706
3217.230300	161.200699
3218.360210	162.013287
3219.491438	163.797902
3220.619540	162.669231
3221.750440	162.455245
3222.879695	160.628671
3224.007307	165.732168
3225.131796	166.720979
3226.260561	174.039860
3227.386204	171.548252
3228.511684	176.971329
3229.635523	172.881119
3230.762157	171.760839
3231.884192	168.500699
3233.007544	163.456643
3234.130734	155.347552
3235.253762	149.376923
3236.375150	140.725874
3237.496377	140.585315
3238.615965	143.727972
3239.735392	151.732867
3240.853182	152.995105
3241.973763	162.327972
3243.091231	165.757343
3244.208538	166.399301
3245.325684	164.560839
3246.441195	158.214685
3247.558021	154.151049
3248.671736	150.051049
3249.788242	145.907692
3250.903112	145.893007
3252.014874	147.708392
3253.126477	145.333566
3254.239395	143.362937
3255.352153	147.249650
3256.461805	145.729371
3257.572772	145.819580
3258.683580	142.512587
3259.792756	140.093706
3260.900301	141.160140
3262.009161	144.070629
3263.117862	147.805594
3264.223461	153.287413
3265.330375	154.054545
3266.435659	147.291608
3267.542257	145.961538
3268.645755	148.442657
3269.750567	143.706993
3270.855222	145.765734
3271.956779	142.350350
3273.058179	141.805594
3274.160893	141.618881
3275.263450	150.040559
3276.362912	151.184615
3277.465156	148.967832
3278.564306	144.847552
3279.661830	140.055245
3280.759200	138.812587
3281.859351	134.032168
3282.956409	128.001399
3284.053313	128.686713
3285.150061	127.327972
3286.242250	127.220280
3287.338689	132.819580
3288.433505	132.824476
3289.528166	130.120979
3290.621206	129.400000
3291.714092	127.345455
3292.805357	123.913287
3293.897935	123.518881
3294.988893	124.266434
3296.078231	129.000000
3297.167416	134.131469
3298.257913	139.374825
3299.345326	140.833566
3300.432587	148.706294
3301.521160	148.268531
3302.609580	153.215385
3303.693453	155.000000
3304.781568	145.411189
3305.866602	142.409091
3306.950020	139.778322
3308.034750	139.814685
3309.117864	139.623077
3310.202290	134.457343
3311.283638	130.802797
3312.366298	129.620280
3313.447344	135.288112
3314.528239	138.291608
3315.607521	137.291608
3316.686652	142.858741
3317.767095	139.016783
3318.844463	139.586014
3319.923143	137.025175
3321.000211	137.469231
3322.077129	135.940559
3323.152437	134.536364
3324.227595	132.159441
3325.304064	134.943357
3326.377462	130.653147
3327.450712	135.955944
3328.525273	136.955245
3329.598224	143.479720
3330.669568	140.936364
3331.742222	141.134266
3332.811809	142.953846
3333.882707	146.511888
3334.951998	143.532168
3336.022600	146.472028
3337.091595	134.565035
3338.158985	128.009790
3339.224768	120.092308
3340.294778	125.042657
3341.361725	128.011888
3342.425610	132.939860
3343.492263	131.855944
3344.557312	136.433566
3345.620757	140.620280
3346.684055	141.226573
3347.747208	135.839860
3348.810214	135.754545
3349.873073	125.708392
3350.934331	124.878322
3351.992532	119.470629
3353.054954	120.428671
3354.114319	123.041958
3355.173540	127.220280
3356.234069	126.034965
3357.290089	128.002797
3358.348874	132.458042
3359.403151	133.356643
3360.460192	131.227972
3361.515634	132.306294
3362.572385	128.543357
3363.627539	132.672727
3364.681095	123.811888
3365.733054	122.480420
3366.787776	119.202098
3367.839448	123.060140
3368.890976	120.606294
3369.943814	123.634266
3370.993604	127.582517
3372.044703	125.414685
3373.092755	125.248252
3374.143568	128.734266
3375.191335	130.619580
3376.238960	134.686014
3377.286443	131.181818
3378.332332	131.604895
3379.379531	127.631469
3380.423686	126.376923
3381.470600	123.890909
3382.515923	128.662238
3383.558204	124.283916
3384.600344	117.662937
3385.643793	119.431469
3386.687100	121.912587
3387.728817	121.789510
3388.770394	124.079021
3389.811829	127.427273
3390.851676	129.358042
3391.889934	131.600000
3392.929500	137.720979
3393.968926	141.339161
3395.006764	143.265035
3396.043015	140.296503
3397.079126	137.967832
3398.116545	133.020280
3399.150931	133.788112
3400.186625	132.441958
3401.222179	134.243357
3402.254701	135.208392
3403.289977	137.488112
3404.322222	135.792308
3405.354329	139.992308
3406.384853	135.691608
3407.416683	130.897203
3408.448375	128.365035
3409.477039	122.676923
3410.505566	117.687413
3411.535399	122.091608
3412.565095	125.234965
3413.591765	126.458741
3414.619741	129.727972
3415.644693	129.802098
3416.672396	126.741958
3417.697074	130.597203
3418.723059	127.487413
3419.747465	125.539860
3420.771733	125.594406
3421.794424	123.241958
3422.816978	122.899301
3423.840838	122.096503
3424.861678	124.613287
3425.882382	123.892907
3426.904392	123.912712
3427.923384	125.223576
3428.942241	128.376374
3429.962404	133.921978
3430.979549	142.411264
