-118.277064	2.052747
-115.607463	1.810989
-112.940798	2.174725
-110.274885	2.956543
-107.611905	3.969031
-104.947494	5.024775
-102.286014	5.936364
-99.623105	4.938462
-96.965303	5.311189
-94.306070	2.495804
-91.647586	4.003497
-88.992027	3.831469
-86.335039	1.800699
-83.683148	-2.870629
-81.029828	-2.441259
-78.379427	-2.177622
-75.727598	0.334266
-73.080859	2.730070
-70.432690	5.419580
-67.785265	6.020280
-65.140753	7.750350
-62.494812	6.821678
-59.853954	8.340559
-57.211665	8.459441
-54.572286	3.138462
-51.931478	0.690210
-49.291409	1.065734
-46.656414	-0.600699
-44.019989	-2.218182
-41.386468	-3.055944
-38.751517	-4.360140
-36.121633	-4.730769
-33.488155	-3.566434
-30.859740	-2.993706
-28.232059	0.087413
-25.602950	0.297203
-22.978897	-1.217483
-20.351254	-4.233566
-17.728666	-11.169231
-15.106808	-9.900699
-12.485681	30.013287
-9.865285	88.381818
-7.247776	136.043357
-4.628839	170.104895
-2.012788	188.200699
0.602536	190.674825
3.217131	174.376224
5.828845	141.922378
8.441986	100.286713
11.050095	47.117483
13.661784	-1.772028
16.268443	-26.414685
18.876530	-14.902797
21.483893	-1.288112
24.086231	3.041259
26.692147	3.493007
29.293042	2.582517
31.895364	1.709091
34.492668	0.123776
37.093548	-1.641958
39.689414	-0.050350
42.286707	0.005594
44.883281	-0.886713
47.474846	-2.543357
50.067839	-2.543357
52.657972	-3.825175
55.249531	-4.531469
57.838231	-7.548252
60.428359	-7.720979
63.013487	-6.638462
65.600043	-5.072727
68.185884	-5.417483
70.768872	-2.427972
73.353287	0.102098
75.930572	0.483916
78.511424	0.990909
81.089427	5.210490
83.666720	5.748951
86.245440	4.109091
88.819177	3.355245
91.394341	4.817483
93.966662	4.127273
96.538276	2.347552
99.107049	1.025175
101.677249	1.607692
104.244610	-0.206993
106.813398	0.008392
109.379349	0.069231
111.942464	0.405594
114.509137	-0.195804
117.066587	0.861538
119.629723	1.949650
122.187900	4.274825
124.749631	4.623077
127.306405	4.739860
129.864605	5.518182
132.417853	8.332867
134.970402	10.316084
137.526503	14.020979
140.077655	17.303497
142.628110	19.598601
145.177867	24.172028
147.724805	28.311189
150.271048	29.232867
152.818716	31.469930
155.365688	32.779021
157.907724	33.567832
160.449068	33.636364
162.989718	34.505594
165.531793	34.072028
168.071058	33.126573
170.607513	31.695804
173.143278	31.565035
175.680468	30.961538
178.216967	28.579021
180.750660	25.619580
183.281549	26.743357
185.811750	28.115385
188.343376	28.341259
190.872202	29.568531
193.398228	31.027972
195.923568	31.400699
198.450333	30.835664
200.974302	30.045455
203.497585	31.861538
206.020184	28.959441
208.539990	28.195105
211.059113	29.215385
213.577553	31.240559
216.097418	30.865035
218.610280	32.334266
221.126674	32.331469
223.642387	34.060140
226.153209	30.441259
228.665456	31.393007
231.174920	30.160140
233.683706	29.667133
236.191814	27.437063
238.701346	28.125175
241.205997	27.304895
243.709972	27.409091
246.215371	27.846853
248.715895	30.331469
251.219942	30.047552
253.717019	34.649650
256.217618	33.434965
258.715446	38.295105
261.212601	37.234965
263.709084	37.179720
266.200703	37.073427
268.695841	35.704196
271.188214	32.390909
273.679916	33.593706
276.168855	30.411888
278.659217	30.306294
281.146818	30.285315
283.631659	31.334965
286.120014	31.174825
288.601431	31.707692
291.086361	30.862937
293.566445	32.262238
296.050042	33.381119
298.528797	32.439860
301.008974	29.888811
303.486400	31.943357
305.963162	32.440559
308.439260	36.445455
310.912610	38.024476
313.385299	41.077622
315.857326	41.149650
318.328691	42.086713
320.797313	41.437762
323.265275	41.886713
325.734660	37.900000
328.199222	34.512587
330.667287	30.804895
333.130533	32.921678
335.593122	35.183217
338.055053	36.927972
340.516328	37.320979
342.974869	38.523776
345.434832	36.806993
347.892063	40.587413
350.348639	39.994406
352.804560	40.910490
355.257753	39.490210
357.712368	40.460839
360.162181	42.860140
362.615490	44.888811
365.064000	45.237063
367.511860	43.444755
369.961141	39.973427
372.405629	38.795804
374.851539	35.990210
377.296800	36.529371
379.739342	33.952448
382.181236	34.226573
384.622482	33.170629
387.061013	34.935664
389.500966	37.963636
391.938205	37.055245
394.372732	36.766434
396.810747	33.434965
399.243985	32.065734
401.678645	33.483916
404.108532	32.223776
406.541904	33.600699
408.970506	32.380420
411.398466	34.100699
413.827847	33.311189
416.252464	35.748951
418.678501	36.716783
421.103899	37.548951
423.528656	37.489510
425.948654	37.942657
428.370074	36.810490
430.788797	39.265734
433.208941	40.313986
435.626390	43.979720
438.045259	43.563636
440.461435	45.091608
442.872864	41.388112
445.287769	40.556643
447.699984	37.879021
450.111565	37.596503
452.522513	33.938462
454.930773	32.400699
457.338402	28.502797
459.745398	32.033566
462.151762	34.888811
464.555445	38.834266
466.958497	40.207692
469.360919	40.938462
471.762711	37.359441
474.161825	39.305594
476.562359	37.587413
478.962264	37.278322
481.357447	34.207692
483.756095	34.344755
486.150024	36.127273
488.543327	37.477622
490.936004	36.997902
493.328056	37.403497
495.721527	37.372727
498.110285	36.146154
500.496377	34.424476
502.883889	34.639860
505.270777	33.677622
507.655002	34.011888
510.040646	32.888811
512.423627	35.393706
514.803948	35.088811
517.185688	32.648252
519.564770	28.623776
521.945269	28.600000
524.323111	27.092308
526.698298	27.550350
529.072867	25.181119
531.448855	24.256643
533.822189	24.969930
536.196942	26.067133
538.567008	26.274825
540.936459	28.540559
543.307329	27.512587
545.673517	28.482517
548.041124	25.848252
550.406085	27.476224
552.770434	27.873427
555.134169	27.154545
557.499322	24.452448
559.859803	25.891608
562.221701	26.624476
564.580960	24.523776
566.937580	23.353147
569.297646	22.595105
571.651020	21.386014
574.007839	23.653147
576.362023	23.759441
578.715598	24.714685
581.068565	24.532867
583.418901	24.798601
585.770654	26.297203
588.115729	28.874126
590.466269	25.638462
592.810136	25.476224
595.159464	23.699301
597.504143	24.886713
599.846198	22.715385
602.189670	25.309790
604.530519	23.276923
606.870765	21.681818
609.208391	21.203497
611.549452	22.409091
613.885876	22.666434
616.223716	21.662238
618.558938	20.258042
620.891545	25.660839
623.225569	24.489510
625.556978	26.966434
627.887789	27.412587
630.218002	27.157343
632.547618	26.058042
634.872610	27.279021
637.203044	27.075524
639.528856	27.505594
641.852062	27.500699
644.176684	24.511189
646.498700	25.449650
648.820122	24.720280
651.138941	23.870629
653.459176	24.331469
655.778818	25.971329
658.095859	25.898601
660.412309	25.695804
662.726160	25.788811
665.041426	26.319580
667.354096	28.744755
669.668181	27.990909
671.977667	27.263636
674.288567	26.342657
676.596875	24.780420
678.904595	25.408392
681.213730	25.664336
683.518272	25.460140
685.822228	29.240559
688.125597	25.229371
690.430381	24.978322
692.730579	24.832168
695.032192	25.695105
697.333219	23.849650
699.629665	23.176923
701.927525	20.653846
704.224803	22.525874
706.521496	25.041958
708.813614	26.315385
711.109143	26.366434
713.400099	30.016783
715.692469	26.151748
717.982263	27.390909
720.271478	28.654545
722.560113	31.606294
724.846175	30.002797
727.133651	29.439161
729.418557	28.911888
731.702884	29.662238
733.984644	29.452448
736.267817	26.048252
738.550413	24.039860
740.828453	23.380420
743.107907	19.916783
745.386786	21.362937
747.665090	24.490210
749.938843	28.867133
752.214011	29.089510
754.488605	30.183217
756.760640	28.012587
759.034088	27.063636
761.304978	26.505594
763.573312	26.390909
765.843059	23.872028
768.110251	23.606993
770.376873	22.375524
772.642926	24.562937
774.906427	27.794406
777.171340	30.677622
779.435685	30.977622
781.695499	30.005594
783.956727	27.745455
786.217387	27.882517
788.475500	28.651049
790.731070	28.937063
792.990029	26.771329
795.242490	27.624476
797.500318	28.439161
799.753627	28.447552
802.004395	29.053147
804.256576	27.921678
806.506219	25.960140
808.757273	24.769231
811.003816	22.618182
813.251772	21.546853
815.497192	21.141958
817.744025	22.260140
819.990295	20.918182
822.232062	22.727972
824.477211	22.540559
826.715888	23.964336
828.957948	25.725874
831.195509	24.797902
833.434481	24.570629
835.670928	25.905594
837.908785	25.441958
840.144117	26.262238
842.376925	24.965035
844.611145	25.439860
846.842843	25.325175
849.073986	25.752448
851.304574	24.149650
853.534608	27.304196
855.764087	29.439161
857.989086	30.734965
860.217458	28.455245
862.441352	27.549650
864.666656	27.009790
866.887485	27.143357
869.111687	22.525874
871.331415	23.713986
873.552553	22.960839
875.773141	19.802098
877.991220	19.521678
880.210708	23.916783
882.425730	27.647552
884.640204	31.546853
886.854131	29.039161
889.067510	29.297902
891.280343	29.602797
893.492628	28.383217
895.702412	26.093007
897.911650	29.188112
900.120342	25.600000
902.326536	23.470629
904.534139	22.645455
906.739245	26.232168
908.943807	27.775524
911.145874	29.593706
913.349350	25.633566
915.550332	25.760140
917.750772	25.695804
919.952621	25.524476
922.148079	26.890909
924.346895	28.258741
926.541274	27.440559
928.739010	27.962238
930.932310	26.514685
933.127018	28.596503
935.319241	27.686713
937.510926	26.625874
939.702073	26.044056
941.890737	29.125175
944.078864	30.138462
946.264511	29.819580
948.453511	29.811888
950.638086	29.816084
952.822127	33.097203
955.009518	33.690210
957.188606	32.172727
959.371044	32.039860
961.552947	29.578322
963.732377	30.969930
965.909334	31.407692
968.087699	34.704196
970.267470	35.822378
972.440893	35.104895
974.617663	34.881818
976.790025	36.750350
978.963795	38.320979
981.133161	37.041958
983.305871	32.383916
985.476115	31.934266
987.645831	29.000699
989.815018	33.627972
991.979808	33.406993
994.147940	37.144056
996.311676	38.220280
998.476820	36.676923
1000.639504	36.760839
1002.801663	38.986713
1004.961364	37.867832
1007.120542	37.438462
1009.281126	34.239860
1011.439255	33.483217
1013.596860	32.705594
1015.753942	38.655245
1017.910501	36.123077
1020.062680	34.544056
1022.216266	32.283217
1024.369330	31.033566
1026.519945	28.818182
1028.671966	27.980420
1030.819615	28.687413
1032.970594	29.102098
1035.117204	27.053147
1037.263294	27.669930
1039.408866	30.592308
1041.555842	31.969231
1043.696531	30.167832
1045.840548	31.452448
1047.982126	33.151748
1050.123186	36.452448
1052.265651	33.517483
1054.401837	33.356643
1056.541349	33.659441
1058.676505	37.456643
1060.814986	39.905594
1062.949114	42.809091
1065.082728	43.895105
1067.217746	42.469930
1069.348415	42.316783
1071.480490	41.686014
1073.610134	38.572727
1075.739267	37.542657
1077.867889	32.629371
1079.995999	30.862238
1082.121683	30.286014
1084.246857	34.051748
1086.373434	34.030769
1088.495675	34.466434
1090.619320	36.046853
1092.738630	38.364336
1094.863169	35.525874
1096.981464	31.496503
1099.101162	29.797203
1101.218442	31.804196
1103.335216	31.395105
1105.451483	29.590210
1107.565335	29.579021
1109.680590	29.164336
1111.791523	25.962238
1113.905768	25.874126
1116.015692	28.891608
1118.127019	31.572028
1120.237843	28.847552
1122.344350	32.549650
1124.454166	36.620979
1126.559668	39.249650
1128.666574	39.921678
1130.767264	39.202098
1132.873165	42.725874
1134.974758	42.893007
1137.077754	39.545455
1139.180249	39.960839
1141.276538	40.314685
1143.378033	39.362238
1145.475226	37.158042
1147.571920	38.797902
1149.668117	36.237762
1151.763815	35.769930
1153.859016	34.399301
1155.951820	37.518182
1158.046026	38.718182
1160.134041	39.897203
1162.227254	37.530769
1164.314279	41.062238
1166.404604	40.284615
1168.490640	39.241958
1170.579974	37.037063
1172.663127	37.781818
1174.747683	34.042657
1176.833639	34.570629
1178.915315	31.951049
1180.998391	36.539860
1183.079082	34.679720
1185.159282	35.986713
1187.238990	35.027972
1189.318207	39.435664
1191.395041	36.451049
1193.469495	38.767832
1195.547241	40.750350
1197.620716	42.647552
1199.695593	42.017483
1201.766202	42.078322
1203.838212	40.044056
1205.907846	42.164336
1207.978881	38.934965
1210.049428	36.753147
1212.115715	35.066434
1214.183401	34.015385
1216.248716	33.072028
1218.315431	36.281119
1220.377890	36.034965
1222.443635	38.588811
1224.505125	41.456643
1226.568015	42.097902
1228.628538	41.037063
1230.688578	43.906294
1232.748134	43.190909
1234.805326	43.590210
1236.862035	43.439860
1238.916382	42.291608
1240.974009	42.997902
1243.029274	43.152448
1245.080298	41.595804
1247.132723	43.696503
1249.184667	45.476923
1251.234253	44.691608
1253.283360	42.275524
1255.331988	43.500000
1257.380138	42.150350
1259.427810	41.616783
1261.471251	41.360140
1263.517967	41.525874
1265.562331	43.630070
1267.606217	45.920280
1269.647753	46.555245
1271.686939	49.873427
1273.729397	51.728671
1275.767634	51.970629
1277.807268	52.738462
1279.846428	52.759441
1281.881370	50.453147
1283.917710	50.616084
1285.951705	53.795804
1287.987099	53.537063
1290.018279	51.258741
1292.050858	51.008392
1294.082964	49.962937
1296.112730	49.598601
1298.143894	45.852448
1300.170850	44.917483
1302.199204	44.449650
1304.223354	44.698601
1306.250769	44.120979
1308.273981	46.900699
1310.298591	48.613986
1312.320866	48.858741
1314.344539	47.540559
1316.365879	48.901399
1318.386752	47.501399
1320.407157	49.095804
1322.423369	50.019580
1324.440978	52.476224
1326.456259	52.965734
1328.474799	56.511888
1330.489149	57.581119
1332.501174	57.125175
1334.516457	56.250350
1336.527554	56.572727
1338.540047	50.079720
1340.548358	49.150350
1342.559925	49.313287
1344.565453	51.197203
1346.574235	51.503497
1348.578841	54.694406
1350.586700	56.507692
1352.594097	58.762238
1354.595462	58.476923
1356.598225	58.917483
1358.600528	59.135664
1360.602370	59.580420
1362.603754	53.563636
1364.602823	53.442657
1366.601434	51.710490
1368.599587	49.442657
1370.597282	49.120979
1372.590813	51.609091
1374.585741	52.644056
1376.580212	53.941958
1378.574226	55.569930
1380.565933	58.058042
1382.557184	59.338462
1384.546130	59.495105
1386.536471	53.605594
1388.526357	49.620280
1390.513940	47.118881
1392.501069	43.405594
1394.485896	40.583916
1396.472118	40.965734
1398.456039	42.053147
1400.439508	43.490210
1402.422525	44.315385
1404.403244	45.562937
1406.385357	47.306993
1408.365173	47.636364
1410.344539	46.153147
1412.319766	46.723077
1414.298231	47.958741
1416.274403	45.984615
1418.250125	46.269231
1420.225398	49.484615
1422.198381	47.739161
1424.170915	47.837063
1426.143001	46.082517
1428.114639	46.394406
1430.082150	46.018182
1432.054734	47.406993
1434.019512	45.778322
1435.989363	46.190909
1437.955089	46.123776
1439.922209	45.321678
1441.887045	46.305594
1443.847761	49.687413
1445.813545	49.918182
1447.773374	53.857343
1449.734596	52.276224
1451.697211	53.759441
1453.655711	49.506993
1455.613769	50.387413
1457.571384	48.097902
1459.528558	48.163636
1461.483456	46.531469
1463.439746	46.881818
1465.393762	44.391608
1467.347338	46.276224
1469.298641	47.855944
1471.251336	48.630769
1473.201760	45.772028
1475.151745	43.779720
1477.101291	40.737063
1479.048567	44.506294
1480.993577	44.703497
1482.939979	46.731469
1484.885943	47.480420
1486.831470	51.406294
1488.774731	49.443357
1490.717556	51.924476
1492.658118	49.293007
1494.600072	48.198601
1496.539763	45.387413
1498.479019	43.472727
1500.417841	44.209091
1502.354403	46.048951
1504.292355	43.870629
1506.228050	44.811189
1508.163311	44.913986
1510.096315	48.946853
1512.028887	47.973427
1513.961027	46.793706
1515.892735	42.292308
1517.822190	42.944056
1519.753034	41.961538
1521.683448	44.572727
1523.609789	44.717483
1525.537520	48.670629
1527.463001	49.658741
1529.388053	51.576224
1531.312676	52.506993
1533.236870	56.572028
1535.158817	54.140559
1537.082153	53.572727
1539.003244	51.729371
1540.922090	52.194406
1542.842326	50.253147
1544.760318	53.318182
1546.677884	53.962238
1548.593209	59.504895
1550.509922	60.201399
1552.422581	61.250350
1554.338444	60.132168
1556.252068	63.016084
1558.163453	65.674825
1560.076227	72.933566
1561.984953	78.961538
1563.895067	87.528671
1565.804758	94.353147
1567.714026	108.867832
1569.621059	117.998601
1571.525860	125.602098
1573.432050	125.065035
1575.336009	122.596503
1577.239546	115.013986
1579.142662	110.431469
1581.043550	104.420979
1582.945826	96.790210
1584.845873	86.907692
1586.747309	81.733566
1588.644710	78.769930
1590.541694	80.172727
1592.438259	76.337063
1594.336211	74.506993
1596.228329	69.718881
1598.123641	69.120280
1600.018534	66.383217
1601.911207	66.231469
1603.803462	67.067832
1605.693498	65.177622
1607.583118	63.596503
1609.472323	66.417483
1611.361112	69.087413
1613.247685	67.308392
1615.135645	65.288811
1617.019588	65.051748
1618.904918	62.446154
1620.789835	62.469231
1622.672538	58.938462
1624.556628	56.336364
1626.436706	54.300699
1628.318171	51.613986
1630.197426	49.514685
1632.078067	47.682517
1633.952905	47.878322
1635.832723	46.767133
1637.708536	49.092308
1639.583940	51.218881
1641.460729	51.086713
1643.331721	51.910490
1645.205896	51.662937
1647.076071	54.578322
1648.949427	53.341958
1650.820580	52.686014
1652.689531	48.057343
1654.559868	46.167133
1656.426211	42.123776
1658.293941	39.461538
1660.159471	33.711888
1662.026386	32.823077
1663.889313	31.856643
1665.753625	31.064336
1667.615742	33.130070
1669.477453	38.807692
1671.340549	36.025175
1673.201451	35.635664
1675.060159	32.129371
1676.918465	29.791608
1678.778154	27.533566
1680.632077	28.788811
1682.489173	26.686713
1684.345865	28.309790
1686.198582	31.759441
1688.054470	36.395804
1689.906384	38.131469
1691.757897	39.205594
1693.609009	35.896503
1695.459720	33.058042
1697.310031	28.209091
1699.158158	26.820280
1701.007668	28.823776
1702.851430	28.846853
1704.700142	27.869930
1706.543107	26.700000
1708.389238	30.818182
1710.231408	34.308392
1712.076742	33.209091
1713.916336	37.145455
1715.757314	36.353147
1717.599676	34.649650
1719.438080	33.704196
1721.277868	33.787413
1723.115481	32.732168
1724.952698	31.550350
1726.787742	31.550350
1728.624169	28.898601
1730.458424	26.344056
1732.292285	25.125175
1734.125751	24.810490
1735.955271	28.181818
1737.787950	26.082517
1739.616685	25.591608
1741.448578	25.367832
1743.276528	22.898601
1745.104086	24.625175
1746.931253	26.081119
1748.758028	27.172028
1750.584411	27.339860
1752.406858	26.011888
1754.232459	28.713986
1756.054126	30.820280
1757.877175	31.353147
1759.698063	29.848951
1761.518561	30.212587
1763.340441	27.825874
1765.156621	24.371329
1766.975953	26.562238
1768.791358	26.508392
1770.609914	25.004196
1772.424544	27.698601
1774.238787	27.821678
1776.052644	29.249650
1777.866114	29.054545
1779.677430	26.239161
1781.490128	25.098601
1783.302439	25.208392
1785.110833	25.486014
1786.920608	29.183916
1788.726467	32.890909
1790.535473	36.146154
1792.340565	34.590210
1794.147037	36.770629
1795.953126	34.240559
1797.755305	32.020280
1799.560627	28.208392
1801.362041	25.895105
1803.164835	24.042657
1804.963724	24.130070
1806.763992	27.844056
1808.563880	30.098601
1810.361625	29.426573
1812.158990	29.965035
1813.955974	28.220280
1815.752578	30.409790
1817.547043	29.288112
1819.342888	31.197203
1821.133077	29.197902
1822.928163	31.760140
1824.717596	30.587413
1826.510167	29.809091
1828.300602	30.943357
1830.088902	28.891608
1831.880338	23.857343
1833.666129	25.950350
1835.453298	24.374825
1837.238337	26.777622
1839.026508	24.417483
1840.810794	24.725175
1842.592951	22.017483
1844.376487	23.252448
1846.157894	19.984615
1847.940679	17.909790
1849.719585	17.291608
1851.499869	14.090909
1853.278028	12.569930
1855.057564	15.894406
1856.834976	15.453846
1858.610264	17.780420
1860.386931	15.735664
1862.161475	17.206993
1863.937396	18.495804
1865.707698	22.624476
1867.481127	22.597902
1869.252436	26.794406
1871.023374	25.229371
1872.795689	27.341958
1874.562392	30.827972
1876.332219	32.093007
1878.098183	31.616084
1879.867271	27.977622
1881.632497	25.432168
1883.397355	25.367133
1885.163589	22.851748
1886.925965	23.270629
1888.687974	20.555944
1890.449616	22.727972
1892.210890	20.269231
1893.971798	24.906993
1895.732338	27.159441
1897.490770	27.678322
1899.248835	26.419580
1901.004793	27.983217
1902.762127	31.759441
1904.519095	31.380420
1906.273958	32.076923
1908.026715	33.355245
1909.779109	31.917483
1911.532879	33.660839
1913.284545	31.365734
1915.034108	31.018182
1916.785048	30.084615
1918.535624	29.244056
1920.282362	28.732867
1922.030475	28.586713
1923.776489	29.604895
1925.523879	24.254545
1927.269170	24.379720
1929.012364	23.605594
1930.756934	22.333566
1932.499407	22.016084
1934.241520	20.369231
1935.983274	22.595455
1937.724667	25.646154
1939.463967	29.017133
1941.202908	32.246853
1942.941490	33.068881
1944.677980	31.340559
1946.414113	28.298252
1948.151620	27.291608
1949.885306	25.876573
1951.620366	24.151049
1953.353337	23.015734
1955.085952	21.255245
1956.818210	21.340210
1958.550112	21.686014
1960.279928	24.632867
1962.007660	28.569930
1963.736766	27.713986
1965.465516	24.120979
1967.192183	27.478322
1968.918496	25.405594
1970.646182	25.459441
1972.368333	27.160140
1974.093584	26.411189
1975.815028	22.099301
1977.539572	20.749650
1979.262037	19.317483
1980.980698	22.446154
1982.702458	23.923776
1984.420416	24.904196
1986.139748	26.332168
1987.855279	28.595804
1989.575632	26.609790
1991.292186	28.651049
1993.004943	27.386014
1994.720796	25.909091
1996.434577	24.168531
1998.148008	26.343357
1999.859367	25.093007
2001.572100	23.741958
2003.281041	23.312587
2004.993076	24.777622
2006.699601	25.791608
2008.409219	24.567133
2010.116769	21.932867
2011.823972	25.088811
2013.529109	21.283916
2015.233899	23.791608
2016.940061	24.555944
2018.642441	27.588112
2020.346193	24.878322
2022.047882	25.285315
2023.749225	27.721678
2025.450223	28.555245
2027.149161	28.535664
2028.849470	28.519580
2030.546003	29.206294
2032.243908	33.000699
2033.939755	28.423077
2035.638687	26.362238
2037.332133	24.111888
2039.026950	22.792308
2040.721424	17.364336
2042.412130	18.127273
2044.105920	17.639161
2045.795943	18.865035
2047.487337	17.876224
2049.176678	19.693706
2050.867389	21.906294
2052.554338	23.241259
2054.240946	22.432867
2055.928925	22.309091
2057.613144	21.757343
2059.298733	19.023776
2060.983983	14.995804
2062.667185	16.230070
2064.351757	16.734965
2066.030865	21.993007
2067.714759	20.914685
2069.393193	22.013986
2071.074704	24.312587
2072.752463	25.048951
2074.429886	24.809790
2076.108678	23.943357
2077.785427	23.451748
2079.460135	22.837063
2081.136212	20.339860
2082.810249	21.495804
2084.483950	22.974825
2086.157316	25.147552
2087.828644	23.521678
2089.499637	26.371329
2091.170296	27.302098
2092.840621	26.109790
2094.510611	25.582517
2096.178566	26.176224
2097.846188	27.393706
2099.511776	28.821678
2101.178732	26.868531
2102.843655	28.948951
2104.508245	29.566434
2106.170804	29.116084
2107.834732	26.955245
2109.496628	27.462238
2111.158193	25.210490
2112.819428	24.032867
2114.478633	23.505594
2116.137509	24.151049
2117.796054	20.072727
2119.454270	22.779021
2121.108763	22.546853
2122.766320	21.636364
2124.423547	21.738462
2126.077054	19.020979
2127.731928	17.537063
2129.383083	20.502098
2131.037301	19.306993
2132.687801	22.578322
2134.339669	23.204895
2135.986128	22.775524
2137.637341	21.939161
2139.284842	26.852448
2140.933709	27.111888
2142.580557	24.311189
2144.227080	22.749650
2145.873277	21.138462
2147.515765	20.816783
2149.161312	21.965035
2150.803152	21.532168
2152.448049	24.093706
2154.089241	22.781818
2155.730109	21.577622
2157.370654	24.788112
2159.009186	25.286014
2160.649084	24.167133
2162.285282	23.277622
2163.922846	22.041259
2165.560088	22.788112
2167.195320	22.883916
2168.830230	26.745455
2170.464819	29.692308
2172.099087	30.951748
2173.729661	32.074825
2175.363286	31.465035
2176.993220	33.135664
2178.624520	31.670629
2180.253814	29.756643
2181.882789	27.816084
2183.511444	25.772028
2185.139780	25.965734
2186.766113	22.627972
2188.392128	22.084615
2190.016142	20.781119
2191.641521	20.738462
2193.264899	23.151049
2194.889642	25.650350
2196.510703	28.465734
2198.131449	31.747552
2199.753558	32.639860
2201.373670	33.336364
2202.991786	30.781818
2204.609586	29.373427
2206.227070	23.486713
2207.844239	21.521678
2209.461093	17.295105
2211.077632	17.307692
2212.692177	18.788811
2214.304731	20.700000
2215.918648	23.878322
2217.530573	25.226573
2219.143863	25.524476
2220.755161	23.932867
2222.364471	21.412587
2223.975143	22.650350
2225.583827	21.755944
2227.192199	20.225874
2228.798583	19.247552
2230.406331	21.675524
2232.012092	21.969930
2233.617543	25.502098
2235.221008	27.559441
2236.825836	26.464336
2238.428680	25.805594
2240.029541	25.527273
2241.631765	25.191608
2243.232007	25.800699
2244.833611	24.866434
2246.431562	22.832867
2248.030876	22.143357
2249.628210	24.325874
2251.225236	24.094406
2252.823623	24.146154
2254.418362	24.830769
2256.011125	25.585315
2257.605249	23.936364
2259.200736	24.056643
2260.792577	22.742657
2262.384112	24.606993
2263.977008	23.997902
2265.564595	20.665734
2267.156879	20.632867
2268.743855	23.669231
2270.333860	25.127972
2271.918560	27.008392
2273.507954	31.792308
2275.092045	32.988112
2276.677498	32.393706
2278.260982	32.328671
2279.847491	31.236364
2281.430367	33.474126
2283.012939	31.116434
2284.595209	27.234965
2286.173848	22.854895
2287.755512	23.953147
2289.333547	23.270280
2290.914605	24.765734
2292.492036	23.236713
2294.067504	23.141259
2295.645994	21.698951
2297.220859	21.779021
2298.795425	19.678671
2300.369689	23.228671
2301.943653	21.532517
2303.517317	22.627273
2305.090680	21.855944
2306.660425	26.555245
2308.229871	25.403497
2309.802336	26.790909
2311.369526	24.099301
2312.939733	26.721678
2314.506327	22.535664
2316.074279	22.148252
2317.640277	18.910490
2319.205977	18.662238
2320.771379	16.433566
2322.334828	21.906993
2323.899636	24.555245
2325.460835	27.204895
2327.025049	28.207692
2328.584002	29.760839
2330.145968	29.613986
2331.705984	30.781818
2333.265704	23.745455
2334.823475	21.323077
2336.380952	17.500000
2337.938133	15.962937
2339.493368	13.248951
2341.048308	16.336364
2342.602955	15.045455
2344.157308	18.882517
2345.711367	23.792308
2347.265133	27.980420
2348.816954	32.772028
2350.366832	33.581119
2351.919718	34.445455
2353.467362	35.489510
2355.018013	36.081818
2356.565074	34.135664
2358.113492	30.895105
2359.661618	26.135664
2361.206157	21.237063
2362.752053	23.925175
2364.296010	22.413986
2365.841325	22.295105
2367.383055	21.100000
2368.926143	16.825874
2370.467294	20.332867
2372.008156	20.444755
2373.548729	20.111189
2375.089013	19.058042
2376.629008	16.418881
2378.165424	14.512587
2379.704842	14.711189
2381.240683	16.316084
2382.777880	13.660839
2384.311503	15.235664
2385.848125	13.660140
2387.382817	13.304196
2388.915578	16.543357
2390.448054	18.987413
2391.978601	20.497203
2393.512146	21.297902
2395.040480	16.625175
2396.570170	19.749650
2398.099575	17.953147
2399.628695	19.689510
2401.157529	19.638462
2402.681159	21.741259
2404.209424	19.259441
2405.732486	19.485315
2407.260183	20.890210
2408.781039	22.475524
2410.306529	22.008392
2411.828459	20.509790
2413.351743	19.593706
2414.873107	19.942657
2416.392551	16.706993
2417.913350	21.778322
2419.432230	21.814685
2420.950828	20.560140
2422.467509	19.667832
2423.985545	20.202098
2425.503299	21.274825
2427.017501	19.966434
2428.531423	20.330769
2430.045066	22.020979
2431.560062	22.798601
2433.071511	21.534965
2434.584313	19.808392
2436.095203	23.966434
2437.605813	22.420979
2439.114512	20.537063
2440.626198	19.559441
2442.134340	19.855944
2443.642203	19.983916
2445.149789	21.962937
2446.653835	20.409790
2448.160865	21.048252
2449.665987	21.526573
2451.170832	22.420280
2452.673770	18.973427
2454.176431	21.483217
2455.678816	21.915385
2457.179296	24.290210
2458.681129	24.290210
2460.181058	25.843357
2461.680711	25.024476
2463.180089	27.928671
2464.677564	25.750350
2466.173137	26.551748
2467.671690	27.274825
2469.166715	26.866434
2470.663092	21.753846
2472.155943	22.902797
2473.650146	23.919580
2475.144077	25.232867
2476.634483	22.634965
2478.127867	23.282517
2479.619353	25.527972
2481.108942	28.341958
2482.598259	26.775524
2484.085680	25.685315
2485.576077	24.668531
2487.062955	24.421678
2488.551186	20.375524
2490.035899	20.321678
2491.520342	19.382517
2493.006137	18.163636
2494.490039	18.653846
2495.975293	21.264336
2497.455413	22.048951
2498.938505	23.614685
2500.419708	23.555245
2501.900640	24.315385
2503.379684	23.615385
2504.858460	26.119580
2506.336967	25.424476
2507.815205	23.513287
2509.293176	21.310490
2510.767641	20.506294
2512.245075	21.144755
2513.719006	19.753846
2515.194288	19.434965
2516.669302	23.204196
2518.140815	23.969231
2519.613679	21.132168
2521.084660	20.776224
2522.556991	19.778322
2524.024208	17.803497
2525.494392	15.416783
2526.962694	15.806993
2528.430732	17.979021
2529.898505	17.886014
2531.366013	18.495804
2532.833257	21.853846
2534.297008	25.167832
2535.762109	25.573427
2537.225333	22.034965
2538.689906	20.726573
2540.150991	18.424476
2541.613425	17.612587
2543.075596	17.359441
2544.534280	17.405594
2545.997537	19.097203
2547.455697	18.109790
2548.915206	21.622378
2550.369622	23.934965
2551.828608	25.846154
2553.285721	25.091608
2554.740964	24.574825
2556.195946	23.720979
2557.649058	25.589510
2559.103519	24.703497
2560.556111	23.174825
2562.008443	23.198601
2563.458907	20.897902
2564.912327	19.544056
2566.360665	18.406993
2567.811959	17.043357
2569.261386	18.237762
2570.707342	17.261538
2572.156252	19.591608
2573.601691	19.905594
2575.048479	22.728671
2576.493403	25.072727
2577.938070	24.601399
2579.384084	26.773427
2580.826631	23.649650
2582.270526	22.176923
2583.710956	20.071329
2585.152734	19.745455
2586.592652	23.579021
2588.033917	22.867133
2589.471720	24.719580
2590.912473	23.032867
2592.348163	23.502098
2593.786803	24.130070
2595.223586	22.053846
2596.658512	23.364336
2598.096387	23.597902
2599.529204	20.129371
2600.963368	22.100000
2602.395677	24.147552
2603.829334	26.581119
2605.261136	26.591608
2606.692686	28.388112
2608.123982	26.497203
2609.553427	24.037762
2610.982619	20.863636
2612.409960	19.339860
2613.838648	19.260140
2615.267083	22.319580
2616.692072	19.600000
2618.118406	22.632168
2619.542892	21.167133
2620.968724	20.482517
2622.391112	24.134266
2623.814846	26.305594
2625.236734	23.356643
2626.658371	22.490210
2628.078164	22.376224
2629.499301	23.373427
2630.920189	26.355944
2632.337639	31.218881
2633.758028	31.999301
2635.174980	33.831469
2636.591684	32.471329
2638.008139	30.797902
2639.424346	31.115385
2640.840304	29.353147
2642.254422	28.845455
2643.668293	30.553846
2645.080324	29.680420
2646.493700	29.483217
2647.903646	31.827273
2649.316528	31.534965
2650.725981	30.727972
2652.135188	29.951748
2653.542559	28.244056
2654.952864	22.967133
2656.361333	21.774126
2657.767967	23.097902
2659.174356	27.619580
2660.578911	26.997902
2661.984810	26.997902
2663.388876	28.426573
2664.792698	29.744056
2666.196275	32.158741
2667.598021	34.885315
2669.001110	37.020280
2670.400781	36.374126
2671.801796	33.412587
2673.199395	28.599301
2674.599923	28.089510
2675.997037	27.839860
2677.395494	24.136364
2678.792123	23.874126
2680.188511	29.136364
2681.584656	35.560140
2682.978975	42.176923
2684.374637	46.144755
2685.766889	48.421678
2687.160485	50.578322
2688.552256	48.627972
2689.945369	41.089510
2691.336659	40.132168
2692.726126	38.174825
2694.115354	34.916783
2695.504341	33.524476
2696.894671	35.218881
2698.280016	37.200699
2699.668286	33.546853
2701.054735	32.834266
2702.440945	32.337762
2703.826916	32.832867
2705.209489	28.988811
2706.593404	24.783217
2707.977080	26.893007
2709.360519	26.957343
2710.740562	29.539161
2712.121947	30.483217
2713.501516	31.795804
2714.882427	32.906993
2716.261523	32.376923
2717.638805	34.792308
2719.017428	35.299301
2720.394237	33.274126
2721.770811	34.658042
2723.147149	34.333566
2724.521675	36.552448
2725.897542	38.437762
2727.270022	40.928671
2728.645419	38.341958
2730.015854	37.038462
2731.387631	35.083217
2732.759174	34.438462
2734.128908	33.514685
2735.499982	30.248951
2736.869249	26.198601
2738.238282	27.487413
2739.605508	25.475524
2740.972502	26.949650
2742.339263	26.505594
2743.705791	25.790210
2745.070515	25.284615
2746.435006	27.315385
2747.799265	28.790210
2749.163293	28.330070
2750.527088	29.241958
2751.887510	29.786713
2753.250843	28.100699
2754.609233	26.782517
2755.970533	25.344056
2757.328462	24.545455
2758.689301	20.671329
2760.048339	22.902098
2761.404009	23.497902
2762.762588	23.610490
2764.117799	21.833566
2765.472781	20.611189
2766.825966	19.220979
2768.182058	19.120280
2769.534786	16.632867
2770.887285	14.695804
2772.239557	13.564336
2773.593166	12.318182
2774.943414	13.713287
2776.291869	17.930769
2777.643228	20.369930
2778.991228	20.882517
2780.340567	19.781818
2781.688113	20.867133
2783.035432	18.711189
2784.382525	21.959441
2785.727827	22.846154
2787.072903	20.851049
2788.417753	18.188811
2789.762377	17.782517
2791.103648	17.677622
2792.446258	17.376224
2793.788643	18.547552
2795.130802	19.123776
2796.469612	19.274126
2797.811322	21.204895
2799.149683	22.233566
2800.489382	25.310490
2801.827295	24.868531
2803.163424	22.298601
2804.499330	23.545455
2805.836572	25.739161
2807.172031	24.883217
2808.507267	28.513986
2809.840721	30.013986
2811.175511	32.176224
2812.506960	29.802797
2813.841305	28.802098
2815.170752	23.688811
2816.501536	23.467832
2817.832098	19.334965
2819.160881	17.146853
2820.491001	16.753147
2821.819341	16.548951
2823.147461	17.319580
2824.473804	21.086014
2825.801482	21.249650
2827.125828	20.666434
2828.451510	19.952448
2829.775416	19.476224
2831.099102	18.262937
2832.424124	21.400000
2833.745817	20.603497
2835.067290	23.559441
2836.388545	23.118182
2837.709581	22.765035
2839.028845	22.772028
2840.349444	21.732867
2841.668271	18.897902
2842.986880	16.439161
2844.303719	15.675524
2845.620340	15.036364
2846.936743	13.060839
2848.251378	13.282517
2849.567347	12.375524
2850.879997	14.325175
2852.193981	14.033566
2853.507749	13.504196
2854.821300	13.936364
2856.133084	14.624476
2857.443103	14.576224
2858.754456	17.782517
2860.062493	18.201399
2861.371866	22.501399
2862.681023	19.711189
2863.989965	19.522378
2865.297144	17.558042
2866.602559	17.984615
2867.909309	15.383916
2869.214297	13.468531
2870.519070	13.532168
2871.822083	15.906993
2873.127976	15.818881
2874.429015	20.374126
2875.731387	21.181818
2877.032000	26.897203
2878.333947	27.574825
2879.635681	28.367133
2880.934111	29.860839
2882.233874	30.698601
2883.531880	27.936364
2884.829674	27.011189
2886.125711	24.900699
2887.423082	22.804895
2888.718697	19.476923
2890.014102	20.867133
2891.309295	20.827273
2892.601190	22.812587
2893.895962	23.134266
2895.187438	22.553846
2896.480246	23.070629
2897.772844	21.733566
2899.062147	21.012587
2900.352783	20.427273
2901.641669	17.793007
2902.931886	17.526573
2904.218812	15.755245
2905.507070	20.102797
2906.793579	20.177622
2908.079879	22.360839
2909.365971	20.925175
2910.650315	19.825175
2911.937531	17.154545
2913.219920	15.457343
2914.503641	14.724476
2915.785615	15.066434
2917.067383	14.423077
2918.347405	15.646853
2919.630297	16.962937
2920.911444	20.020280
2922.189309	17.042657
2923.470043	17.223776
2924.747496	16.069930
2926.024744	18.703497
2927.300249	19.167133
2928.578622	22.302797
2929.852181	22.510490
2931.128606	23.646154
2932.403291	21.889510
2933.676236	23.653147
2934.950511	27.151049
2936.223047	27.704196
2937.495379	26.533566
2938.764438	26.585315
2940.036362	26.661538
2941.306548	28.055944
2942.576530	26.732168
2943.846309	26.051049
2945.114351	22.548252
2946.380658	20.292308
2947.646762	18.088811
2948.914197	21.662238
2950.179896	21.960140
2951.445393	25.682517
2952.710689	29.030769
2953.972719	30.752448
2955.236079	29.076923
2956.499238	27.843357
2957.760664	25.676224
2959.023420	23.153846
2960.284445	22.202797
2961.543739	23.011888
2962.802832	20.090210
2964.061725	21.531469
2965.320418	17.158042
2966.578911	22.969231
2967.835675	24.124476
2969.092240	24.065734
2970.347076	23.569930
2971.603242	22.481119
2972.856152	23.160140
2974.110392	20.942657
2975.364433	18.505594
2976.616748	16.840559
2977.868865	16.746853
2979.119257	15.962238
2980.372504	13.306294
2981.620974	16.233566
2982.872298	17.985315
2984.120374	18.334965
2985.368252	18.517483
2986.615933	18.451049
2987.863418	18.849650
2989.109181	16.238462
2990.354747	16.109091
2991.601642	15.463636
2992.845291	16.932867
2994.090269	13.784615
2995.332004	12.176923
2996.576590	12.856643
2997.819457	16.311888
2999.059082	13.947552
3000.301559	14.016783
3001.540795	17.025175
3002.781359	17.412587
3004.020206	17.605594
3005.258859	20.350350
3006.495796	21.318881
3007.734061	22.249650
3008.970610	22.214685
3010.206966	21.944056
3011.443128	21.032168
3012.677576	22.148951
3013.911831	22.147552
3015.145893	22.030070
3016.378243	24.510490
3017.608881	23.327273
3018.842365	24.346154
3020.074138	22.032168
3021.304199	21.480420
3022.534069	19.804895
3023.762229	18.502098
3024.991716	14.560140
3026.219493	14.452448
3027.447079	13.551049
3028.675991	14.088811
3029.900161	13.579021
3031.127174	16.256643
3032.350964	15.234965
3033.576079	18.287413
3034.799488	14.879720
3036.022708	15.448252
3037.244222	16.741958
3038.468577	18.586014
3039.688197	17.508392
3040.909143	18.855944
3042.129899	17.844755
3043.348952	20.805594
3044.569331	20.535664
3045.786493	20.839860
3047.004980	19.179720
3048.221766	21.594406
3049.438363	18.052448
3050.654773	17.838462
3051.867969	18.360140
3053.084003	16.909790
3054.296825	13.448252
3055.512484	11.578322
3056.723420	13.406993
3057.935682	13.144056
3059.147756	9.542657
3060.359644	12.230769
3061.569834	10.316084
3062.779839	10.788112
3063.989657	10.357343
3065.197779	13.250350
3066.405715	12.547552
3067.611957	12.891608
3068.819523	13.796503
3070.025394	13.494406
3071.231080	14.697203
3072.436582	12.737762
3073.640390	14.216783
3074.845522	19.478322
3076.048961	17.116783
3077.250708	19.981818
3078.452272	21.060140
3079.653652	22.932168
3080.854848	22.014685
3082.054354	24.269231
3083.253676	22.191608
3084.454322	20.095105
3085.653279	16.665734
3086.849040	13.153147
3088.047631	12.846853
3089.243028	13.547552
3090.439749	11.377622
3091.633277	13.237762
3092.829633	11.655944
3094.024302	13.960839
3095.215781	16.108392
3096.411591	17.530070
3097.602708	16.697902
3098.795148	15.711888
3099.984399	15.706993
3101.176477	16.637063
3102.366871	16.587413
3103.554078	20.304895
3104.742609	19.883916
3105.932462	22.155944
3107.119130	22.088811
3108.305619	25.949650
3109.491928	27.025175
3110.679560	26.509091
3111.864009	23.904895
3113.046778	22.668531
3114.232371	21.285315
3115.416283	17.351049
3116.598517	13.960839
3117.780573	15.586014
3118.962450	15.239161
3120.144149	15.467832
3121.324171	13.323077
3122.502516	16.034266
3123.683681	17.116783
3124.861671	19.829371
3126.039484	19.369231
3127.217120	20.369231
3128.393081	16.424476
3129.568866	15.780420
3130.745971	14.193007
3131.921403	15.809790
3133.095161	14.626573
3134.267246	9.649650
3135.440652	6.086713
3136.613883	7.767832
3137.785442	9.195105
3138.958321	12.035664
3140.128033	11.100000
3141.299066	12.076224
3142.468428	11.494406
3143.636121	12.399301
3144.806629	11.513986
3145.972478	13.767832
3147.142637	12.083217
3148.308138	10.144056
3149.473466	10.658042
3150.638620	11.245455
3151.803601	12.770629
3152.969901	14.065734
3154.131548	16.467133
3155.294516	19.246853
3156.457311	18.765734
3157.619932	18.460140
3158.780889	17.190909
3159.941674	16.271329
3161.102286	13.382517
3162.261234	14.246853
3163.420010	10.922378
3164.578615	11.041958
3165.737048	11.637762
3166.895309	11.211888
3168.051909	12.698601
3169.206846	13.983916
3170.363104	13.348951
3171.517700	15.576224
3172.672126	16.304196
3173.824891	17.980420
3174.977487	18.288112
3176.129913	19.893007
3177.282168	16.830070
3178.434254	18.612587
3179.583193	17.809790
3180.734939	16.837762
3181.885028	15.099301
3183.033459	15.399301
3184.181722	14.516783
3185.329816	15.886713
3186.477741	13.962238
3187.624010	14.818881
3188.770111	13.009790
3189.914558	10.302098
3191.058836	9.872727
3192.202947	11.230070
3193.348376	11.099301
3194.490666	13.472727
3195.632788	14.188112
3196.774744	15.464336
3197.916532	16.537762
3199.058153	15.386014
3200.196638	12.802098
3201.336442	15.291608
3202.477562	15.611189
3203.615548	15.118182
3204.751885	14.885315
3205.888056	15.507692
3207.025545	13.958741
3208.161385	16.356643
3209.298542	15.476923
3210.431086	14.597902
3211.567911	13.899301
3212.700125	13.218881
3213.833657	12.305594
3214.967023	13.989510
3216.097262	15.630769
3217.230300	18.488112
3218.360210	19.225874
3219.491438	21.838462
3220.619540	21.515385
3221.750440	24.988112
3222.879695	22.881119
3224.007307	22.895105
3225.131796	21.718881
3226.260561	19.339161
3227.386204	13.044056
3228.511684	10.993706
3229.635523	9.808392
3230.762157	10.431469
3231.884192	10.558741
3233.007544	12.389510
3234.130734	14.449650
3235.253762	21.760140
3236.375150	22.277622
3237.496377	27.323077
3238.615965	26.824476
3239.735392	24.946853
3240.853182	23.918881
3241.973763	25.286713
3243.091231	22.768531
3244.208538	22.765035
3245.325684	22.890909
3246.441195	22.389510
3247.558021	21.706294
3248.671736	23.888112
3249.788242	19.644755
3250.903112	20.139860
3252.014874	14.692308
3253.126477	15.482517
3254.239395	12.878322
3255.352153	12.062238
3256.461805	11.390909
3257.572772	11.535664
3258.683580	8.929371
3259.792756	9.182517
3260.900301	10.104196
3262.009161	10.184615
3263.117862	7.467832
3264.223461	8.918881
3265.330375	8.790909
3266.435659	12.142657
3267.542257	11.601399
3268.645755	16.525175
3269.750567	18.162937
3270.855222	19.183916
3271.956779	18.481818
3273.058179	21.038462
3274.160893	18.330070
3275.263450	15.607692
3276.362912	13.725175
3277.465156	13.950350
3278.564306	13.964336
3279.661830	17.295105
3280.759200	16.176224
3281.859351	20.413287
3282.956409	18.227273
3284.053313	20.581119
3285.150061	17.654545
3286.242250	15.563636
3287.338689	13.641259
3288.433505	12.530070
3289.528166	11.932867
3290.621206	13.695105
3291.714092	14.263636
3292.805357	16.179720
3293.897935	13.804196
3294.988893	15.946853
3296.078231	13.272028
3297.167416	15.803497
3298.257913	13.781818
3299.345326	17.181119
3300.432587	17.470629
3301.521160	16.330070
3302.609580	16.637063
3303.693453	18.286713
3304.781568	16.980420
3305.866602	15.449650
3306.950020	15.096503
3308.034750	12.486713
3309.117864	13.598601
3310.202290	15.029371
3311.283638	16.070629
3312.366298	16.329371
3313.447344	14.023077
3314.528239	16.409790
3315.607521	16.490909
3316.686652	17.455944
3317.767095	15.108392
3318.844463	13.678322
3319.923143	13.658042
3321.000211	12.394406
3322.077129	12.897203
3323.152437	12.880420
3324.227595	14.308392
3325.304064	14.143357
3326.377462	15.393706
3327.450712	17.141259
3328.525273	16.067832
3329.598224	16.747552
3330.669568	16.955944
3331.742222	14.204895
3332.811809	11.916084
3333.882707	8.256643
3334.951998	6.560839
3336.022600	6.997203
3337.091595	6.776224
3338.158985	6.209790
3339.224768	5.086713
3340.294778	6.620979
3341.361725	7.904895
3342.425610	13.479021
3343.492263	15.009790
3344.557312	14.149650
3345.620757	13.728671
3346.684055	16.730769
3347.747208	20.039161
3348.810214	20.683217
3349.873073	17.797902
3350.934331	15.903497
3351.992532	13.698601
3353.054954	10.326573
3354.114319	6.590210
3355.173540	6.470629
3356.234069	3.095105
3357.290089	3.709790
3358.348874	1.931469
3359.403151	7.074825
3360.460192	7.653147
3361.515634	10.520979
3362.572385	12.532168
3363.627539	15.779720
3364.681095	17.123776
3365.733054	18.000000
3366.787776	17.500000
3367.839448	21.060839
3368.890976	18.240559
3369.943814	19.167832
3370.993604	16.869231
3372.044703	17.110490
3373.092755	12.529371
3374.143568	14.755944
3375.191335	14.757343
3376.238960	15.529371
3377.286443	14.039860
3378.332332	14.993706
3379.379531	12.732867
3380.423686	17.248951
3381.470600	14.784615
3382.515923	17.393007
3383.558204	14.569231
3384.600344	10.395804
3385.643793	7.062238
3386.687100	7.258741
3387.728817	5.828671
3388.770394	5.275524
3389.811829	4.537762
3390.851676	4.999301
3391.889934	4.081818
3392.929500	7.853147
3393.968926	9.469231
3395.006764	10.581119
3396.043015	12.236364
3397.079126	12.610490
3398.116545	13.351049
3399.150931	13.701399
3400.186625	12.898601
3401.222179	14.846853
3402.254701	15.016783
3403.289977	13.069930
3404.322222	11.062937
3405.354329	12.504196
3406.384853	13.195105
3407.416683	11.879021
3408.448375	14.751049
3409.477039	16.341958
3410.505566	15.970629
3411.535399	16.896503
3412.565095	13.857343
3413.591765	13.389510
3414.619741	12.102098
3415.644693	10.822378
3416.672396	8.589510
3417.697074	7.486014
3418.723059	2.231469
3419.747465	1.095804
3420.771733	1.444755
3421.794424	3.358042
3422.816978	3.237063
3423.840838	5.269930
3424.861678	4.247552
3425.882382	6.853946
3426.904392	9.064835
3427.923384	10.258541
3428.942241	9.813387
3429.962404	7.107692
3430.979549	1.519780
