-118.277064	17.112088
-115.607463	13.570330
-112.940798	10.701299
-110.274885	8.413387
-107.611905	6.614985
-104.947494	5.214486
-102.286014	4.120280
-99.623105	3.389510
-96.965303	2.151748
-94.306070	1.708392
-91.647586	1.318881
-88.992027	0.926573
-86.335039	0.526573
-83.683148	3.945455
-81.029828	5.448951
-78.379427	7.170629
-75.727598	8.605594
-73.080859	8.526573
-70.432690	8.672028
-67.785265	6.279720
-65.140753	5.965734
-62.494812	2.656643
-59.853954	0.604196
-57.211665	-0.198601
-54.572286	-2.871329
-51.931478	-1.941259
-49.291409	-2.433566
-46.656414	-1.481818
-44.019989	2.101399
-41.386468	5.074126
-38.751517	6.702797
-36.121633	7.844056
-33.488155	9.997902
-30.859740	10.886713
-28.232059	10.127273
-25.602950	7.332867
-22.978897	-13.712587
-20.351254	-73.946154
-17.728666	-169.467133
-15.106808	-138.665035
-12.485681	268.737762
-9.865285	890.468531
-7.247776	1385.524476
-4.628839	1722.496503
-2.012788	1897.226573
0.602536	1910.641259
3.217131	1761.828671
5.828845	1459.293706
8.441986	1009.864336
11.050095	460.599301
13.661784	-46.979720
16.268443	-287.349650
18.876530	-172.545455
21.483893	-13.114685
24.086231	1.533566
26.692147	-0.032867
29.293042	0.971329
31.895364	-0.726573
34.492668	0.339161
37.093548	2.716783
39.689414	2.730070
42.286707	4.191608
44.883281	4.745455
47.474846	3.618182
50.067839	0.059441
52.657972	1.453846
55.249531	-1.314685
57.838231	-2.734965
60.428359	1.242657
63.013487	0.503497
65.600043	2.513986
68.185884	3.997203
70.768872	3.775524
73.353287	5.183217
75.930572	4.891608
78.511424	4.199301
81.089427	3.046853
83.666720	7.483217
86.245440	6.918182
88.819177	8.913287
91.394341	10.151049
93.966662	9.843357
96.538276	9.279021
99.107049	7.978322
101.677249	2.876224
104.244610	-0.009790
106.813398	-1.474825
109.379349	0.146154
111.942464	-0.081119
114.509137	4.742657
117.066587	5.201399
119.629723	5.851748
122.187900	7.102098
124.749631	11.795105
127.306405	21.313986
129.864605	37.981119
132.417853	57.529371
134.970402	85.840559
137.526503	117.330769
140.077655	149.577622
142.628110	178.872727
145.177867	207.279021
147.724805	224.358741
150.271048	233.529371
152.818716	238.367133
155.365688	238.831469
157.907724	238.355944
160.449068	238.333566
162.989718	234.258741
165.531793	231.190210
168.071058	226.758042
170.607513	220.925175
173.143278	219.960140
175.680468	222.125874
178.216967	222.102098
180.750660	225.498601
183.281549	231.585315
185.811750	232.550350
188.343376	235.432168
190.872202	236.999301
193.398228	238.998601
195.923568	239.118182
198.450333	237.092308
200.974302	231.524476
203.497585	229.369930
206.020184	230.596503
208.539990	230.190210
211.059113	231.507692
213.577553	230.808392
216.097418	228.791608
218.610280	230.052448
221.126674	231.213287
223.642387	237.238462
226.153209	239.739161
228.665456	239.160140
231.174920	237.443357
233.683706	235.779720
236.191814	238.184615
238.701346	237.320979
241.205997	237.771329
243.709972	239.010490
246.215371	241.609790
248.715895	243.452448
251.219942	245.179720
253.717019	249.809091
256.217618	249.097902
258.715446	248.639161
261.212601	250.831469
263.709084	251.813986
266.200703	252.894406
268.695841	249.989510
271.188214	250.412587
273.679916	249.286014
276.168855	247.645455
278.659217	246.195105
281.146818	246.124476
283.631659	246.027972
286.120014	246.762937
288.601431	248.697902
291.086361	252.898601
293.566445	254.827273
296.050042	256.516084
298.528797	256.568531
301.008974	256.922378
303.486400	254.029371
305.963162	255.548252
308.439260	258.804895
310.912610	267.519580
313.385299	276.547552
315.857326	288.272727
318.328691	293.605594
320.797313	298.804895
323.265275	298.976224
325.734660	298.037762
328.199222	293.310490
330.667287	283.220979
333.130533	273.167133
335.593122	269.018881
338.055053	265.618881
340.516328	266.853147
342.974869	266.879720
345.434832	266.504196
347.892063	267.521678
350.348639	271.240559
352.804560	270.709091
355.257753	271.348252
357.712368	274.286713
360.162181	272.469231
362.615490	274.269930
365.064000	275.764336
367.511860	274.411888
369.961141	273.466434
372.405629	271.444056
374.851539	270.906294
377.296800	272.283916
379.739342	272.612587
382.181236	267.130769
384.622482	266.047552
387.061013	266.249650
389.500966	263.206294
391.938205	261.876224
394.372732	260.590909
396.810747	260.221678
399.243985	261.316084
401.678645	264.064336
404.108532	267.139860
406.541904	270.617483
408.970506	272.482517
411.398466	272.669930
413.827847	276.418881
416.252464	279.208392
418.678501	280.045455
421.103899	277.304895
423.528656	273.569930
425.948654	270.047552
428.370074	268.713986
430.788797	269.283217
433.208941	269.877622
435.626390	268.249650
438.045259	268.341259
440.461435	269.195105
442.872864	274.239161
445.287769	276.740559
447.699984	276.088112
450.111565	273.344056
452.522513	270.992308
454.930773	270.700000
457.338402	272.150350
459.745398	271.178322
462.151762	266.064336
464.555445	262.700699
466.958497	259.574825
469.360919	258.055944
471.762711	261.428671
474.161825	260.316783
476.562359	260.623077
478.962264	262.642657
481.357447	265.091608
483.756095	267.374825
486.150024	267.458042
488.543327	264.309091
490.936004	258.746154
493.328056	253.756643
495.721527	245.635664
498.110285	241.428671
500.496377	237.768531
502.883889	230.994406
505.270777	228.265734
507.655002	223.706993
510.040646	224.730769
512.423627	223.553846
514.803948	218.913986
517.185688	216.112587
519.564770	211.434266
521.945269	205.753846
524.323111	203.609091
526.698298	203.974126
529.072867	203.246853
531.448855	202.553846
533.822189	206.987413
536.196942	204.923776
538.567008	208.689510
540.936459	207.030070
543.307329	201.568531
545.673517	196.526573
548.041124	189.995105
550.406085	186.039161
552.770434	184.856643
555.134169	184.722378
557.499322	183.084615
559.859803	184.467133
562.221701	189.162937
564.580960	189.135664
566.937580	192.109091
569.297646	190.622378
571.651020	187.354545
574.007839	186.406294
576.362023	187.102098
578.715598	185.998601
581.068565	184.743357
583.418901	184.506993
585.770654	185.119580
588.115729	187.204196
590.466269	189.818182
592.810136	190.869231
595.159464	190.109091
597.504143	186.397902
599.846198	183.204196
602.189670	183.856643
604.530519	185.682517
606.870765	180.510490
609.208391	181.265035
611.549452	181.532168
613.885876	182.472727
616.223716	183.021678
618.558938	181.499301
620.891545	181.109790
623.225569	179.467832
625.556978	174.649650
627.887789	174.500699
630.218002	175.989510
632.547618	179.159441
634.872610	176.757343
637.203044	179.140559
639.528856	178.932168
641.852062	180.614685
644.176684	181.885315
646.498700	178.563636
648.820122	179.816084
651.138941	183.127972
653.459176	184.132168
655.778818	186.540559
658.095859	187.653147
660.412309	187.579021
662.726160	188.108392
665.041426	186.934266
667.354096	185.620979
669.668181	187.190909
671.977667	185.816084
674.288567	184.044755
676.596875	185.193706
678.904595	189.344755
681.213730	187.977622
683.518272	186.617483
685.822228	186.116783
688.125597	181.468531
690.430381	180.565734
692.730579	179.304895
695.032192	176.810490
697.333219	176.539161
699.629665	174.215385
701.927525	175.052448
704.224803	172.670629
706.521496	176.434965
708.813614	174.206294
711.109143	175.520979
713.400099	174.200000
715.692469	174.215385
717.982263	173.573427
720.271478	175.823776
722.560113	175.203497
724.846175	176.916084
727.133651	177.106294
729.418557	177.723077
731.702884	175.630769
733.984644	178.391608
736.267817	172.598601
738.550413	172.434965
740.828453	172.086713
743.107907	174.908392
745.386786	172.488811
747.665090	175.338462
749.938843	178.446154
752.214011	178.972028
754.488605	178.250350
756.760640	179.444755
759.034088	179.734266
761.304978	180.616783
763.573312	176.963636
765.843059	179.825874
768.110251	184.153147
770.376873	188.970629
772.642926	187.544755
774.906427	190.560839
777.171340	189.362238
779.435685	186.213287
781.695499	187.299301
783.956727	188.269930
786.217387	189.580420
788.475500	190.156643
790.731070	187.813986
792.990029	189.158741
795.242490	193.711189
797.500318	193.167832
799.753627	189.621678
802.004395	189.529371
804.256576	183.574825
806.506219	183.089510
808.757273	184.278322
811.003816	182.009790
813.251772	179.437762
815.497192	176.430070
817.744025	173.803497
819.990295	176.019580
822.232062	177.876923
824.477211	179.305594
826.715888	181.665734
828.957948	180.959441
831.195509	180.657343
833.434481	184.128671
835.670928	184.231469
837.908785	180.090909
840.144117	177.962238
842.376925	174.909790
844.611145	176.295804
846.842843	176.058741
849.073986	173.405594
851.304574	173.640559
853.534608	169.068531
855.764087	166.585315
857.989086	165.894406
860.217458	165.123077
862.441352	166.949650
864.666656	169.495804
866.887485	172.241259
869.111687	171.570629
871.331415	175.981119
873.552553	178.381818
875.773141	177.665734
877.991220	181.411189
880.210708	178.272028
882.425730	180.411189
884.640204	181.673427
886.854131	182.000000
889.067510	184.556643
891.280343	188.264336
893.492628	184.304196
895.702412	181.808392
897.911650	182.974126
900.120342	182.459441
902.326536	181.437762
904.534139	180.863636
906.739245	177.592308
908.943807	179.927273
911.145874	184.269231
913.349350	182.507692
915.550332	183.421678
917.750772	187.289510
919.952621	181.953846
922.148079	182.816084
924.346895	180.960839
926.541274	181.448252
928.739010	182.909790
930.932310	180.876923
933.127018	182.132168
935.319241	185.116783
937.510926	186.581818
939.702073	187.743357
941.890737	194.169930
944.078864	198.057343
946.264511	198.858042
948.453511	200.500699
950.638086	198.267133
952.822127	202.404196
955.009518	202.774825
957.188606	203.700699
959.371044	200.093706
961.552947	202.748951
963.732377	200.255245
965.909334	203.027273
968.087699	203.346853
970.267470	207.271329
972.440893	208.344056
974.617663	212.553147
976.790025	214.426573
978.963795	219.812587
981.133161	222.290909
983.305871	224.001399
985.476115	222.952448
987.645831	222.482517
989.815018	215.977622
991.979808	215.654545
994.147940	208.395804
996.311676	216.505594
998.476820	217.751049
1000.639504	221.041259
1002.801663	219.707692
1004.961364	221.853147
1007.120542	223.542657
1009.281126	222.969930
1011.439255	223.799301
1013.596860	222.453846
1015.753942	221.182517
1017.910501	220.930769
1020.062680	221.785315
1022.216266	232.548951
1024.369330	230.955245
1026.519945	229.062937
1028.671966	224.762937
1030.819615	225.755245
1032.970594	230.716084
1035.117204	238.721678
1037.263294	248.535664
1039.408866	256.879720
1041.555842	259.029371
1043.696531	256.493007
1045.840548	259.723077
1047.982126	261.653846
1050.123186	256.522378
1052.265651	255.834965
1054.401837	251.372727
1056.541349	251.951748
1058.676505	249.432867
1060.814986	250.423077
1062.949114	253.088112
1065.082728	250.942657
1067.217746	244.177622
1069.348415	238.893706
1071.480490	236.674825
1073.610134	241.502797
1075.739267	236.668531
1077.867889	242.885315
1079.995999	247.597203
1082.121683	246.487413
1084.246857	246.092308
1086.373434	244.574825
1088.495675	245.496503
1090.619320	240.971329
1092.738630	237.551049
1094.863169	240.866434
1096.981464	239.510490
1099.101162	240.959441
1101.218442	232.535664
1103.335216	236.152448
1105.451483	240.803497
1107.565335	235.531469
1109.680590	237.609091
1111.791523	228.445455
1113.905768	226.014685
1116.015692	225.794406
1118.127019	227.988112
1120.237843	235.865035
1122.344350	237.748252
1124.454166	239.969930
1126.559668	241.880420
1128.666574	245.732168
1130.767264	248.023776
1132.873165	242.921678
1134.974758	240.737762
1137.077754	227.024476
1139.180249	221.976224
1141.276538	228.830070
1143.378033	234.077622
1145.475226	239.927273
1147.571920	240.160140
1149.668117	249.225175
1151.763815	254.456643
1153.859016	260.897902
1155.951820	261.119580
1158.046026	262.062937
1160.134041	255.341958
1162.227254	243.656643
1164.314279	238.995804
1166.404604	241.132867
1168.490640	238.588811
1170.579974	236.818182
1172.663127	234.309091
1174.747683	241.279021
1176.833639	244.775524
1178.915315	251.527972
1180.998391	252.307692
1183.079082	256.421678
1185.159282	254.303497
1187.238990	253.398601
1189.318207	250.366434
1191.395041	250.911888
1193.469495	252.076923
1195.547241	252.679021
1197.620716	255.228671
1199.695593	261.418881
1201.766202	264.599301
1203.838212	270.389510
1205.907846	273.827273
1207.978881	278.587413
1210.049428	274.713287
1212.115715	273.129371
1214.183401	266.920979
1216.248716	267.580420
1218.315431	265.363636
1220.377890	260.172727
1222.443635	255.660839
1224.505125	255.175524
1226.568015	256.116783
1228.628538	262.566434
1230.688578	265.266434
1232.748134	271.665734
1234.805326	273.501399
1236.862035	277.142657
1238.916382	279.913287
1240.974009	286.974126
1243.029274	289.989510
1245.080298	286.932168
1247.132723	286.404196
1249.184667	287.441958
1251.234253	290.730070
1253.283360	292.711189
1255.331988	293.607692
1257.380138	299.033566
1259.427810	300.858042
1261.471251	303.467133
1263.517967	305.276224
1265.562331	310.493706
1267.606217	312.536364
1269.647753	309.972727
1271.686939	312.927273
1273.729397	310.230070
1275.767634	312.304895
1277.807268	316.077622
1279.846428	317.568531
1281.881370	316.231469
1283.917710	318.209790
1285.951705	325.359441
1287.987099	323.274825
1290.018279	325.895804
1292.050858	327.376923
1294.082964	330.736364
1296.112730	331.943357
1298.143894	331.623077
1300.170850	336.613287
1302.199204	348.745455
1304.223354	350.236364
1306.250769	350.569930
1308.273981	355.425874
1310.298591	361.571329
1312.320866	358.260839
1314.344539	357.613986
1316.365879	360.702098
1318.386752	364.486713
1320.407157	364.560140
1322.423369	369.934965
1324.440978	376.490909
1326.456259	384.502797
1328.474799	387.063636
1330.489149	391.272028
1332.501174	398.128671
1334.516457	402.741958
1336.527554	404.088811
1338.540047	400.967832
1340.548358	401.472727
1342.559925	403.337063
1344.565453	400.679720
1346.574235	403.493007
1348.578841	402.199301
1350.586700	404.840559
1352.594097	406.372727
1354.595462	410.390909
1356.598225	415.924476
1358.600528	415.227273
1360.602370	412.473427
1362.603754	404.059441
1364.602823	401.234266
1366.601434	393.273427
1368.599587	382.965035
1370.597282	376.937063
1372.590813	366.765035
1374.585741	361.035664
1376.580212	358.086014
1378.574226	357.946853
1380.565933	358.738462
1382.557184	357.179021
1384.546130	354.579720
1386.536471	352.452448
1388.526357	355.980420
1390.513940	352.058042
1392.501069	351.011888
1394.485896	350.959441
1396.472118	347.337063
1398.456039	342.471329
1400.439508	340.622378
1402.422525	336.283916
1404.403244	337.556643
1406.385357	335.926573
1408.365173	335.587413
1410.344539	335.384615
1412.319766	337.589510
1414.298231	335.101399
1416.274403	335.572727
1418.250125	337.722378
1420.225398	332.923776
1422.198381	327.219580
1424.170915	324.642657
1426.143001	323.603497
1428.114639	323.995105
1430.082150	322.277622
1432.054734	322.751049
1434.019512	322.668531
1435.989363	319.795804
1437.955089	317.586014
1439.922209	317.895804
1441.887045	320.960140
1443.847761	317.114685
1445.813545	318.504895
1447.773374	322.902098
1449.734596	322.220280
1451.697211	324.871329
1453.655711	327.881119
1455.613769	331.700699
1457.571384	329.936364
1459.528558	329.583916
1461.483456	327.363636
1463.439746	325.685315
1465.393762	326.954545
1467.347338	323.633566
1469.298641	326.527273
1471.251336	328.659441
1473.201760	326.593007
1475.151745	328.472028
1477.101291	325.572727
1479.048567	327.192308
1480.993577	323.075524
1482.939979	323.077622
1484.885943	320.638462
1486.831470	323.200000
1488.774731	327.164336
1490.717556	329.501399
1492.658118	327.799301
1494.600072	326.909091
1496.539763	326.102098
1498.479019	322.020280
1500.417841	322.044056
1502.354403	327.013287
1504.292355	323.762238
1506.228050	322.767133
1508.163311	324.774825
1510.096315	329.148252
1512.028887	332.037762
1513.961027	331.998601
1515.892735	325.351049
1517.822190	327.113986
1519.753034	329.724476
1521.683448	334.767133
1523.609789	340.897203
1525.537520	347.120280
1527.463001	349.500699
1529.388053	350.774825
1531.312676	356.130070
1533.236870	364.530070
1535.158817	370.098601
1537.082153	371.677622
1539.003244	369.648252
1540.922090	374.511888
1542.842326	382.293007
1544.760318	392.946154
1546.677884	405.741958
1548.593209	423.509091
1550.509922	440.334965
1552.422581	456.718881
1554.338444	482.189510
1556.252068	512.330070
1558.163453	547.107692
1560.076227	584.232867
1561.984953	635.548252
1563.895067	700.013287
1565.804758	776.657343
1567.714026	854.793007
1569.621059	926.652448
1571.525860	980.051049
1573.432050	1010.468531
1575.336009	1009.770629
1577.239546	988.727972
1579.142662	941.235664
1581.043550	878.217483
1582.945826	803.733566
1584.845873	733.121678
1586.747309	672.230769
1588.644710	626.030070
1590.541694	584.311189
1592.438259	551.457343
1594.336211	525.879021
1596.228329	508.691608
1598.123641	491.427273
1600.018534	485.229371
1601.911207	476.853147
1603.803462	469.791608
1605.693498	458.037063
1607.583118	444.486014
1609.472323	437.829371
1611.361112	428.577622
1613.247685	419.249650
1615.135645	410.215385
1617.019588	395.950350
1618.904918	389.457343
1620.789835	380.176923
1622.672538	376.476224
1624.556628	368.805594
1626.436706	360.439860
1628.318171	354.407692
1630.197426	341.034965
1632.078067	332.002098
1633.952905	324.998601
1635.832723	316.612587
1637.708536	301.923077
1639.583940	285.579720
1641.460729	280.902797
1643.331721	275.793706
1645.205896	272.999301
1647.076071	273.217483
1648.949427	274.441259
1650.820580	271.165035
1652.689531	267.463636
1654.559868	263.720280
1656.426211	263.265734
1658.293941	260.230070
1660.159471	255.304196
1662.026386	248.127972
1663.889313	245.793007
1665.753625	241.763636
1667.615742	238.602797
1669.477453	238.302098
1671.340549	229.402797
1673.201451	225.373427
1675.060159	229.655245
1676.918465	223.781818
1678.778154	222.154545
1680.632077	228.174126
1682.489173	230.182517
1684.345865	225.753147
1686.198582	226.518881
1688.054470	224.725874
1689.906384	225.254545
1691.757897	228.144755
1693.609009	222.488112
1695.459720	224.557343
1697.310031	216.356643
1699.158158	209.563636
1701.007668	209.688811
1702.851430	210.712587
1704.700142	210.472028
1706.543107	205.402098
1708.389238	205.355944
1710.231408	204.497902
1712.076742	207.423776
1713.916336	210.102098
1715.757314	201.558741
1717.599676	197.739860
1719.438080	192.624476
1721.277868	191.481119
1723.115481	194.592308
1724.952698	183.868531
1726.787742	186.214685
1728.624169	191.562937
1730.458424	198.115385
1732.292285	199.143357
1734.125751	206.353846
1735.955271	206.130769
1737.787950	205.108392
1739.616685	206.481119
1741.448578	209.820979
1743.276528	209.358741
1745.104086	204.754545
1746.931253	192.606993
1748.758028	194.667133
1750.584411	196.204895
1752.406858	193.844056
1754.232459	187.985315
1756.054126	187.543357
1757.877175	184.406993
1759.698063	186.090210
1761.518561	189.162937
1763.340441	190.709790
1765.156621	191.154545
1766.975953	187.048252
1768.791358	183.492308
1770.609914	177.683217
1772.424544	174.318881
1774.238787	173.362937
1776.052644	169.841958
1777.866114	171.584615
1779.677430	171.983217
1781.490128	171.494406
1783.302439	177.700699
1785.110833	178.572727
1786.920608	183.988811
1788.726467	189.817483
1790.535473	188.572028
1792.340565	185.950350
1794.147037	186.024476
1795.953126	189.581818
1797.755305	185.865035
1799.560627	188.840559
1801.362041	180.041958
1803.164835	176.442657
1804.963724	175.443357
1806.763992	174.655944
1808.563880	181.820280
1810.361625	187.236364
1812.158990	186.513986
1813.955974	191.898601
1815.752578	187.944755
1817.547043	187.969231
1819.342888	181.000699
1821.133077	175.369930
1822.928163	162.320280
1824.717596	152.842657
1826.510167	147.081818
1828.300602	151.256643
1830.088902	157.599301
1831.880338	160.880420
1833.666129	171.286713
1835.453298	184.137063
1837.238337	183.843357
1839.026508	183.273427
1840.810794	186.244755
1842.592951	187.836364
1844.376487	185.011189
1846.157894	180.681119
1847.940679	178.812587
1849.719585	174.134266
1851.499869	170.793706
1853.278028	172.914685
1855.057564	176.494406
1856.834976	176.904196
1858.610264	173.325874
1860.386931	172.272727
1862.161475	176.420979
1863.937396	180.558042
1865.707698	181.036364
1867.481127	180.481818
1869.252436	179.876923
1871.023374	178.633566
1872.795689	182.751748
1874.562392	186.603497
1876.332219	182.698601
1878.098183	184.320979
1879.867271	183.818182
1881.632497	187.787413
1883.397355	186.927972
1885.163589	181.853147
1886.925965	176.960839
1888.687974	172.538462
1890.449616	168.658042
1892.210890	164.682517
1893.971798	161.086014
1895.732338	161.506294
1897.490770	158.342657
1899.248835	160.088811
1901.004793	157.146154
1902.762127	163.260140
1904.519095	164.665734
1906.273958	162.455245
1908.026715	162.991608
1909.779109	166.019580
1911.532879	163.976224
1913.284545	167.094406
1915.034108	168.995105
1916.785048	174.647552
1918.535624	173.550350
1920.282362	173.274825
1922.030475	170.523077
1923.776489	175.103497
1925.523879	175.289510
1927.269170	173.120979
1929.012364	172.344755
1930.756934	173.197203
1932.499407	167.097203
1934.241520	167.059441
1935.983274	164.727972
1937.724667	165.651748
1939.463967	163.960839
1941.202908	167.446154
1942.941490	164.816783
1944.677980	164.679720
1946.414113	163.592308
1948.151620	163.019580
1949.885306	164.190210
1951.620366	167.969930
1953.353337	166.700699
1955.085952	164.613986
1956.818210	164.329371
1958.550112	164.272727
1960.279928	167.823776
1962.007660	165.010490
1963.736766	160.397902
1965.465516	158.279021
1967.192183	155.809091
1968.918496	154.825175
1970.646182	155.622378
1972.368333	159.082517
1974.093584	160.910490
1975.815028	160.037063
1977.539572	164.562238
1979.262037	164.923077
1980.980698	171.376923
1982.702458	170.658042
1984.420416	171.255944
1986.139748	169.396503
1987.855279	168.172727
1989.575632	168.171329
1991.292186	164.251049
1993.004943	163.239860
1994.720796	165.051049
1996.434577	164.483217
1998.148008	166.496503
1999.859367	167.704196
2001.572100	173.543357
2003.281041	175.230070
2004.993076	176.046154
2006.699601	173.841259
2008.409219	171.410490
2010.116769	168.557343
2011.823972	163.064336
2013.529109	159.895804
2015.233899	160.043357
2016.940061	159.827972
2018.642441	163.604196
2020.346193	165.648252
2022.047882	170.212587
2023.749225	174.605594
2025.450223	175.808392
2027.149161	170.997902
2028.849470	169.818182
2030.546003	165.097902
2032.243908	161.250350
2033.939755	158.885315
2035.638687	160.553147
2037.332133	159.534266
2039.026950	157.972028
2040.721424	155.344755
2042.412130	161.968531
2044.105920	162.836364
2045.795943	162.601399
2047.487337	167.109790
2049.176678	170.985315
2050.867389	172.012587
2052.554338	173.540559
2054.240946	173.619580
2055.928925	174.153147
2057.613144	169.030070
2059.298733	162.798601
2060.983983	159.965035
2062.667185	158.179720
2064.351757	154.308392
2066.030865	153.816783
2067.714759	155.262937
2069.393193	154.904196
2071.074704	154.527273
2072.752463	153.024476
2074.429886	152.381818
2076.108678	156.260140
2077.785427	157.321678
2079.460135	159.104196
2081.136212	159.676923
2082.810249	161.962937
2084.483950	166.184615
2086.157316	166.922378
2087.828644	167.816783
2089.499637	168.325874
2091.170296	168.553147
2092.840621	167.090210
2094.510611	165.200000
2096.178566	166.468531
2097.846188	168.832867
2099.511776	169.274126
2101.178732	168.297203
2102.843655	171.163636
2104.508245	173.021678
2106.170804	173.725874
2107.834732	177.334266
2109.496628	178.623077
2111.158193	178.821678
2112.819428	177.531469
2114.478633	176.403497
2116.137509	175.486014
2117.796054	175.188811
2119.454270	168.056643
2121.108763	166.009091
2122.766320	163.527972
2124.423547	164.381119
2126.077054	164.209790
2127.731928	169.997203
2129.383083	171.118182
2131.037301	171.523077
2132.687801	174.028671
2134.339669	175.320280
2135.986128	174.593007
2137.637341	170.283217
2139.284842	167.118182
2140.933709	164.877622
2142.580557	161.469231
2144.227080	165.718881
2145.873277	166.022378
2147.515765	169.627273
2149.161312	168.172028
2150.803152	165.481119
2152.448049	164.700699
2154.089241	165.738462
2155.730109	164.990210
2157.370654	163.711888
2159.009186	167.346154
2160.649084	170.051748
2162.285282	174.837063
2163.922846	182.502797
2165.560088	182.552448
2167.195320	182.423776
2168.830230	179.961538
2170.464819	176.579720
2172.099087	174.542657
2173.729661	168.111888
2175.363286	163.869231
2176.993220	160.414685
2178.624520	159.690909
2180.253814	160.067832
2181.882789	160.255245
2183.511444	158.394406
2185.139780	155.979021
2186.766113	160.724476
2188.392128	162.186713
2190.016142	165.344056
2191.641521	165.904895
2193.264899	163.232168
2194.889642	166.306993
2196.510703	165.458741
2198.131449	167.940559
2199.753558	167.580420
2201.373670	168.377622
2202.991786	163.281818
2204.609586	162.625175
2206.227070	166.188112
2207.844239	165.781818
2209.461093	164.988112
2211.077632	160.413986
2212.692177	156.863636
2214.304731	158.987413
2215.918648	158.040559
2217.530573	163.083916
2219.143863	163.356643
2220.755161	165.961538
2222.364471	166.614685
2223.975143	166.796503
2225.583827	167.622378
2227.192199	161.131469
2228.798583	158.039860
2230.406331	151.883217
2232.012092	151.440559
2233.617543	156.223077
2235.221008	156.700000
2236.825836	164.455944
2238.428680	165.532867
2240.029541	169.806993
2241.631765	166.729371
2243.232007	164.631469
2244.833611	162.732168
2246.431562	155.912587
2248.030876	157.390909
2249.628210	155.607692
2251.225236	159.910490
2252.823623	163.789510
2254.418362	168.352448
2256.011125	171.645455
2257.605249	172.768531
2259.200736	174.199301
2260.792577	169.617483
2262.384112	169.034266
2263.977008	168.696503
2265.564595	163.360140
2267.156879	164.787413
2268.743855	162.692308
2270.333860	161.139860
2271.918560	158.145455
2273.507954	161.357343
2275.092045	160.418881
2276.677498	155.225874
2278.260982	152.755944
2279.847491	149.627273
2281.430367	149.261538
2283.012939	149.563636
2284.595209	147.864336
2286.173848	149.249650
2287.755512	145.902098
2289.333547	145.511189
2290.914605	143.754545
2292.492036	148.100699
2294.067504	146.838462
2295.645994	142.560839
2297.220859	148.942657
2298.795425	152.649650
2300.369689	158.226573
2301.943653	160.511189
2303.517317	161.167832
2305.090680	160.077622
2306.660425	161.033566
2308.229871	160.925175
2309.802336	154.245455
2311.369526	153.967133
2312.939733	150.805594
2314.506327	145.465734
2316.074279	146.631469
2317.640277	143.347552
2319.205977	143.881818
2320.771379	141.837063
2322.334828	143.167832
2323.899636	147.241259
2325.460835	157.598601
2327.025049	159.018182
2328.584002	159.734266
2330.145968	164.315385
2331.705984	163.411189
2333.265704	162.686713
2334.823475	164.728671
2336.380952	158.582517
2337.938133	157.985315
2339.493368	158.065035
2341.048308	156.456643
2342.602955	159.258042
2344.157308	164.005594
2345.711367	162.747552
2347.265133	160.312587
2348.816954	162.870629
2350.366832	160.411189
2351.919718	159.516783
2353.467362	155.747552
2355.018013	150.948252
2356.565074	151.062238
2358.113492	151.549650
2359.661618	150.694406
2361.206157	153.239161
2362.752053	153.141958
2364.296010	159.477622
2365.841325	158.215385
2367.383055	165.613986
2368.926143	160.713986
2370.467294	157.911189
2372.008156	158.006294
2373.548729	156.006294
2375.089013	156.643357
2376.629008	153.909091
2378.165424	158.472028
2379.704842	159.338462
2381.240683	161.597203
2382.777880	166.532168
2384.311503	165.155944
2385.848125	166.248951
2387.382817	161.765035
2388.915578	163.925874
2390.448054	162.394406
2391.978601	157.100000
2393.512146	160.849650
2395.040480	156.904196
2396.570170	160.358741
2398.099575	158.987413
2399.628695	160.860140
2401.157529	161.800699
2402.681159	158.808392
2404.209424	159.912587
2405.732486	164.143357
2407.260183	167.889510
2408.781039	163.506993
2410.306529	166.053846
2411.828459	166.082517
2413.351743	159.380420
2414.873107	157.169231
2416.392551	157.604196
2417.913350	160.244056
2419.432230	156.295105
2420.950828	148.767133
2422.467509	154.390909
2423.985545	157.979021
2425.503299	162.337762
2427.017501	167.032867
2428.531423	170.761538
2430.045066	162.951049
2431.560062	161.744755
2433.071511	166.259441
2434.584313	173.864336
2436.095203	171.124476
2437.605813	167.487413
2439.114512	166.752448
2440.626198	171.320280
2442.134340	171.489510
2443.642203	178.213986
2445.149789	179.804196
2446.653835	179.649650
2448.160865	172.637063
2449.665987	174.909091
2451.170832	175.925175
2452.673770	179.279720
2454.176431	174.793706
2455.678816	176.774825
2457.179296	176.441958
2458.681129	178.518881
2460.181058	181.806993
2461.680711	187.235664
2463.180089	187.161538
2464.677564	189.509091
2466.173137	185.685315
2467.671690	184.320280
2469.166715	181.294406
2470.663092	177.917483
2472.155943	172.848951
2473.650146	168.876923
2475.144077	162.611888
2476.634483	157.813986
2478.127867	156.346853
2479.619353	155.353147
2481.108942	154.586713
2482.598259	156.179021
2484.085680	158.955245
2485.576077	156.315385
2487.062955	156.537762
2488.551186	158.662238
2490.035899	165.745455
2491.520342	167.736364
2493.006137	168.372028
2494.490039	172.743357
2495.975293	178.168531
2497.455413	179.212587
2498.938505	179.237063
2500.419708	175.969930
2501.900640	169.437063
2503.379684	158.829371
2504.858460	156.123077
2506.336967	155.504196
2507.815205	152.679021
2509.293176	151.690909
2510.767641	154.236364
2512.245075	157.827972
2513.719006	156.362937
2515.194288	151.969231
2516.669302	153.604895
2518.140815	155.426573
2519.613679	155.656643
2521.084660	162.764336
2522.556991	159.713986
2524.024208	155.022378
2525.494392	154.106993
2526.962694	157.386713
2528.430732	159.520280
2529.898505	156.370629
2531.366013	148.183217
2532.833257	142.457343
2534.297008	153.155944
2535.762109	154.800699
2537.225333	155.811888
2538.689906	160.335664
2540.150991	153.851049
2541.613425	154.734266
2543.075596	158.758741
2544.534280	162.207692
2545.997537	160.336364
2547.455697	160.034965
2548.915206	158.978322
2550.369622	163.343357
2551.828608	166.844056
2553.285721	162.275524
2554.740964	162.069231
2556.195946	159.378322
2557.649058	157.060140
2559.103519	155.672727
2560.556111	154.149650
2562.008443	150.355944
2563.458907	147.743357
2564.912327	154.342657
2566.360665	159.525175
2567.811959	164.406294
2569.261386	161.663636
2570.707342	166.758741
2572.156252	167.051748
2573.601691	168.841259
2575.048479	171.139161
2576.493403	173.158042
2577.938070	170.463636
2579.384084	168.336364
2580.826631	169.857343
2582.270526	170.137063
2583.710956	168.772727
2585.152734	171.392308
2586.592652	171.000000
2588.033917	173.131469
2589.471720	170.481119
2590.912473	174.990909
2592.348163	177.509790
2593.786803	181.500000
2595.223586	181.158741
2596.658512	181.134266
2598.096387	173.668531
2599.529204	168.655944
2600.963368	169.048252
2602.395677	172.563636
2603.829334	172.453846
2605.261136	167.165035
2606.692686	165.720280
2608.123982	169.434965
2609.553427	170.036364
2610.982619	174.314685
2612.409960	180.061538
2613.838648	181.202098
2615.267083	177.057343
2616.692072	182.911189
2618.118406	189.255944
2619.542892	191.530769
2620.968724	193.227273
2622.391112	190.473427
2623.814846	182.416084
2625.236734	179.315385
2626.658371	174.472727
2628.078164	178.741958
2629.499301	183.462238
2630.920189	187.130769
2632.337639	190.160140
2633.758028	197.335664
2635.174980	199.488811
2636.591684	200.388112
2638.008139	206.510490
2639.424346	205.876224
2640.840304	200.265734
2642.254422	204.706294
2643.668293	202.837762
2645.080324	207.493007
2646.493700	209.025175
2647.903646	217.568531
2649.316528	223.095804
2650.725981	223.490210
2652.135188	219.632168
2653.542559	220.651049
2654.952864	224.520280
2656.361333	220.345455
2657.767967	221.383916
2659.174356	227.583217
2660.578911	225.794406
2661.984810	230.992308
2663.388876	239.690909
2664.792698	248.119580
2666.196275	256.458741
2667.598021	256.246154
2669.001110	264.874126
2670.400781	274.630769
2671.801796	274.753147
2673.199395	271.579021
2674.599923	279.877622
2675.997037	283.597902
2677.395494	279.587413
2678.792123	284.653846
2680.188511	286.209790
2681.584656	284.834266
2682.978975	289.283217
2684.374637	290.121678
2685.766889	299.248252
2687.160485	304.179021
2688.552256	303.155245
2689.945369	305.777622
2691.336659	305.931469
2692.726126	301.282517
2694.115354	295.304895
2695.504341	296.793706
2696.894671	293.940559
2698.280016	299.138462
2699.668286	303.709790
2701.054735	302.386014
2702.440945	305.466434
2703.826916	309.727273
2705.209489	311.217483
2706.593404	307.496503
2707.977080	295.053147
2709.360519	287.398601
2710.740562	284.788112
2712.121947	286.470629
2713.501516	286.911888
2714.882427	291.297902
2716.261523	287.244755
2717.638805	279.610490
2719.017428	273.993007
2720.394237	268.357343
2721.770811	261.801399
2723.147149	255.956643
2724.521675	248.039161
2725.897542	242.329371
2727.270022	242.746154
2728.645419	234.233566
2730.015854	224.366434
2731.387631	222.248252
2732.759174	211.993706
2734.128908	203.111189
2735.499982	198.476224
2736.869249	194.216084
2738.238282	195.664336
2739.605508	190.467832
2740.972502	188.174126
2742.339263	186.844056
2743.705791	185.018182
2745.070515	179.404895
2746.435006	175.393706
2747.799265	178.294406
2749.163293	172.316084
2750.527088	177.306993
2751.887510	177.465035
2753.250843	172.567832
2754.609233	169.032867
2755.970533	165.119580
2757.328462	165.483217
2758.689301	164.767832
2760.048339	167.209091
2761.404009	164.826573
2762.762588	165.814685
2764.117799	168.761538
2765.472781	164.844755
2766.825966	167.697902
2768.182058	159.590909
2769.534786	157.574825
2770.887285	152.710490
2772.239557	150.817483
2773.593166	138.704196
2774.943414	137.328671
2776.291869	137.093706
2777.643228	134.343357
2778.991228	138.171329
2780.340567	142.760839
2781.688113	141.981818
2783.035432	147.050350
2784.382525	148.851748
2785.727827	153.138462
2787.072903	154.153147
2788.417753	153.926573
2789.762377	150.360839
2791.103648	156.660839
2792.446258	153.567133
2793.788643	158.390210
2795.130802	157.261538
2796.469612	157.846853
2797.811322	150.558042
2799.149683	149.843357
2800.489382	147.208392
2801.827295	145.516084
2803.163424	149.785315
2804.499330	149.623776
2805.836572	152.231469
2807.172031	156.583217
2808.507267	156.978322
2809.840721	162.380420
2811.175511	162.944755
2812.506960	163.151748
2813.841305	158.605594
2815.170752	162.104895
2816.501536	158.879021
2817.832098	152.719580
2819.160881	153.327273
2820.491001	147.581818
2821.819341	149.818182
2823.147461	140.612587
2824.473804	140.557343
2825.801482	138.590210
2827.125828	140.681119
2828.451510	139.393007
2829.775416	140.975524
2831.099102	144.288112
2832.424124	142.825874
2833.745817	141.380420
2835.067290	144.218881
2836.388545	143.018881
2837.709581	142.712587
2839.028845	136.249650
2840.349444	134.593706
2841.668271	133.836364
2842.986880	134.462937
2844.303719	138.439860
2845.620340	143.816783
2846.936743	148.185315
2848.251378	146.791608
2849.567347	147.788112
2850.879997	145.906993
2852.193981	141.899301
2853.507749	139.596503
2854.821300	137.925874
2856.133084	134.697902
2857.443103	140.968531
2858.754456	140.230070
2860.062493	144.004196
2861.371866	147.364336
2862.681023	147.684615
2863.989965	146.718182
2865.297144	149.425175
2866.602559	146.941958
2867.909309	145.453147
2869.214297	143.963636
2870.519070	144.225874
2871.822083	142.934965
2873.127976	145.851748
2874.429015	139.772028
2875.731387	137.929371
2877.032000	141.665035
2878.333947	139.260839
2879.635681	144.451748
2880.934111	141.960839
2882.233874	145.423776
2883.531880	141.968531
2884.829674	141.211189
2886.125711	145.956643
2887.423082	145.276224
2888.718697	147.290909
2890.014102	144.535664
2891.309295	143.485315
2892.601190	147.732168
2893.895962	143.186713
2895.187438	147.699301
2896.480246	141.098601
2897.772844	144.586014
2899.062147	138.669930
2900.352783	139.318182
2901.641669	139.123077
2902.931886	137.316783
2904.218812	137.932867
2905.507070	137.245455
2906.793579	134.888811
2908.079879	134.769930
2909.365971	133.441259
2910.650315	136.767133
2911.937531	134.870629
2913.219920	137.251748
2914.503641	137.871329
2915.785615	138.544056
2917.067383	135.404196
2918.347405	136.713287
2919.630297	138.662238
2920.911444	139.825874
2922.189309	138.425874
2923.470043	135.864336
2924.747496	136.720280
2926.024744	136.803497
2927.300249	139.440559
2928.578622	137.618182
2929.852181	139.930070
2931.128606	139.196503
2932.403291	134.624476
2933.676236	136.681818
2934.950511	137.525874
2936.223047	139.181119
2937.495379	140.711888
2938.764438	140.612587
2940.036362	144.752448
2941.306548	143.918182
2942.576530	142.199301
2943.846309	137.467832
2945.114351	136.209790
2946.380658	128.366434
2947.646762	121.880420
2948.914197	120.116783
2950.179896	120.174126
2951.445393	122.744755
2952.710689	129.013287
2953.972719	137.865734
2955.236079	144.095105
2956.499238	143.095105
2957.760664	145.063636
2959.023420	143.460839
2960.284445	141.585315
2961.543739	135.758741
2962.802832	133.044056
2964.061725	131.544056
2965.320418	128.030070
2966.578911	124.955245
2967.835675	124.835664
2969.092240	122.609091
2970.347076	117.553147
2971.603242	111.430070
2972.856152	114.200699
2974.110392	113.593706
2975.364433	113.302098
2976.616748	114.554545
2977.868865	116.248252
2979.119257	117.453147
2980.372504	119.335664
2981.620974	121.776923
2982.872298	124.617483
2984.120374	126.790909
2985.368252	129.919580
2986.615933	128.642657
2987.863418	132.920979
2989.109181	132.942657
2990.354747	133.026573
2991.601642	132.413287
2992.845291	128.264336
2994.090269	127.118182
2995.332004	128.999301
2996.576590	132.639161
2997.819457	132.659441
2999.059082	134.181818
3000.301559	131.976224
3001.540795	130.166434
3002.781359	129.972727
3004.020206	129.468531
3005.258859	130.744056
3006.495796	129.118881
3007.734061	129.649650
3008.970610	134.416783
3010.206966	137.939161
3011.443128	137.948951
3012.677576	130.113287
3013.911831	127.823776
3015.145893	124.576224
3016.378243	122.013287
3017.608881	122.148951
3018.842365	120.525874
3020.074138	122.251748
3021.304199	121.883217
3022.534069	122.013986
3023.762229	125.613986
3024.991716	124.718881
3026.219493	123.397902
3027.447079	120.984615
3028.675991	120.176923
3029.900161	120.455245
3031.127174	123.009790
3032.350964	126.441958
3033.576079	128.582517
3034.799488	128.365734
3036.022708	123.772028
3037.244222	120.130769
3038.468577	124.325874
3039.688197	123.365035
3040.909143	124.105594
3042.129899	122.165734
3043.348952	122.434266
3044.569331	123.589510
3045.786493	120.373427
3047.004980	115.827273
3048.221766	112.776224
3049.438363	109.935664
3050.654773	106.888112
3051.867969	108.295804
3053.084003	109.779720
3054.296825	112.882517
3055.512484	111.465035
3056.723420	110.987413
3057.935682	111.460140
3059.147756	110.108392
3060.359644	107.524476
3061.569834	109.779720
3062.779839	111.739161
3063.989657	116.523077
3065.197779	122.455944
3066.405715	127.006993
3067.611957	130.108392
3068.819523	132.183916
3070.025394	132.061538
3071.231080	126.758042
3072.436582	128.213986
3073.640390	127.622378
3074.845522	126.509091
3076.048961	123.833566
3077.250708	114.386014
3078.452272	108.423077
3079.653652	105.378322
3080.854848	99.121678
3082.054354	95.613986
3083.253676	94.048252
3084.454322	99.195804
3085.653279	94.037762
3086.849040	103.858741
3088.047631	105.025874
3089.243028	107.753147
3090.439749	110.374825
3091.633277	107.641958
3092.829633	110.608392
3094.024302	106.562238
3095.215781	104.520280
3096.411591	107.122378
3097.602708	110.366434
3098.795148	112.762238
3099.984399	113.734965
3101.176477	120.818881
3102.366871	122.358741
3103.554078	123.859441
3104.742609	124.514685
3105.932462	121.295804
3107.119130	116.665035
3108.305619	113.354545
3109.491928	110.053147
3110.679560	109.562238
3111.864009	107.286713
3113.046778	107.355944
3114.232371	110.894406
3115.416283	112.441259
3116.598517	111.749650
3117.780573	110.667832
3118.962450	109.693007
3120.144149	107.819580
3121.324171	104.486713
3122.502516	106.698601
3123.683681	101.689510
3124.861671	104.220979
3126.039484	103.138462
3127.217120	103.011888
3128.393081	109.086014
3129.568866	109.510490
3130.745971	107.266434
3131.921403	105.457343
3133.095161	102.786014
3134.267246	97.911189
3135.440652	96.362937
3136.613883	95.989510
3137.785442	92.718182
3138.958321	96.951748
3140.128033	99.576923
3141.299066	104.965734
3142.468428	111.732168
3143.636121	110.648951
3144.806629	107.815385
3145.972478	104.532867
3147.142637	102.346154
3148.308138	97.332867
3149.473466	99.441958
3150.638620	98.306294
3151.803601	96.873427
3152.969901	103.023077
3154.131548	105.988112
3155.294516	110.041958
3156.457311	114.479720
3157.619932	108.237063
3158.780889	104.572028
3159.941674	98.841958
3161.102286	94.940559
3162.261234	92.202098
3163.420010	94.374825
3164.578615	96.419580
3165.737048	98.653147
3166.895309	103.868531
3168.051909	105.538462
3169.206846	108.932168
3170.363104	112.306993
3171.517700	107.537762
3172.672126	104.300000
3173.824891	101.187413
3174.977487	100.507692
3176.129913	102.065035
3177.282168	102.354545
3178.434254	100.609091
3179.583193	103.743357
3180.734939	106.066434
3181.885028	106.428671
3183.033459	106.787413
3184.181722	104.643357
3185.329816	104.762238
3186.477741	102.201399
3187.624010	99.913986
3188.770111	99.788811
3189.914558	99.540559
3191.058836	99.186713
3192.202947	100.468531
3193.348376	107.450350
3194.490666	102.905594
3195.632788	104.164336
3196.774744	101.637063
3197.916532	98.713287
3199.058153	102.336364
3200.196638	103.031469
3201.336442	98.451748
3202.477562	98.484615
3203.615548	99.481818
3204.751885	103.679720
3205.888056	102.106294
3207.025545	100.790210
3208.161385	96.877622
3209.298542	98.946154
3210.431086	98.848252
3211.567911	98.450350
3212.700125	100.395105
3213.833657	100.781818
3214.967023	97.003497
3216.097262	96.681119
3217.230300	97.372028
3218.360210	94.362937
3219.491438	90.946853
3220.619540	93.368531
3221.750440	98.002098
3222.879695	98.404895
3224.007307	98.071329
3225.131796	99.434965
3226.260561	102.867133
3227.386204	102.297902
3228.511684	103.257343
3229.635523	103.124476
3230.762157	103.460839
3231.884192	100.294406
3233.007544	101.195105
3234.130734	100.343357
3235.253762	100.386713
3236.375150	96.818881
3237.496377	96.386014
3238.615965	101.045455
3239.735392	100.290210
3240.853182	98.452448
3241.973763	100.055944
3243.091231	98.061538
3244.208538	96.130070
3245.325684	93.021678
3246.441195	92.548252
3247.558021	93.079021
3248.671736	92.631469
3249.788242	91.778322
3250.903112	93.628671
3252.014874	94.085315
3253.126477	94.050350
3254.239395	95.293706
3255.352153	94.133566
3256.461805	91.041259
3257.572772	84.392308
3258.683580	81.963636
3259.792756	82.776224
3260.900301	87.474126
3262.009161	87.644056
3263.117862	88.882517
3264.223461	94.517483
3265.330375	92.569930
3266.435659	95.722378
3267.542257	98.558741
3268.645755	94.947552
3269.750567	91.399301
3270.855222	83.372028
3271.956779	82.565734
3273.058179	83.485315
3274.160893	85.333566
3275.263450	88.825175
3276.362912	90.832867
3277.465156	98.743357
3278.564306	92.936364
3279.661830	96.279021
3280.759200	97.872028
3281.859351	93.484615
3282.956409	90.679021
3284.053313	84.627273
3285.150061	83.990909
3286.242250	81.799301
3287.338689	80.165035
3288.433505	84.506294
3289.528166	84.306294
3290.621206	86.466434
3291.714092	82.955944
3292.805357	84.626573
3293.897935	86.923077
3294.988893	89.343357
3296.078231	90.812587
3297.167416	87.218881
3298.257913	91.010490
3299.345326	90.502797
3300.432587	86.958741
3301.521160	82.448951
3302.609580	80.273427
3303.693453	78.861538
3304.781568	80.836364
3305.866602	81.647552
3306.950020	86.625175
3308.034750	90.187413
3309.117864	93.779021
3310.202290	90.295105
3311.283638	93.249650
3312.366298	89.411888
3313.447344	86.134965
3314.528239	78.641259
3315.607521	82.523776
3316.686652	84.562238
3317.767095	87.557343
3318.844463	88.131469
3319.923143	90.397203
3321.000211	95.438462
3322.077129	98.012587
3323.152437	95.140559
3324.227595	94.234965
3325.304064	89.423077
3326.377462	83.432168
3327.450712	77.825874
3328.525273	79.260140
3329.598224	77.872028
3330.669568	80.675524
3331.742222	81.404196
3332.811809	83.774825
3333.882707	89.011189
3334.951998	87.951748
3336.022600	85.641259
3337.091595	84.781119
3338.158985	82.353846
3339.224768	80.627972
3340.294778	83.702797
3341.361725	79.846154
3342.425610	82.311189
3343.492263	85.944056
3344.557312	85.416783
3345.620757	86.222378
3346.684055	87.761538
3347.747208	85.028671
3348.810214	84.523776
3349.873073	88.715385
3350.934331	87.494406
3351.992532	85.811888
3353.054954	84.414685
3354.114319	79.053846
3355.173540	78.474126
3356.234069	78.610490
3357.290089	76.637762
3358.348874	79.669231
3359.403151	81.823077
3360.460192	83.561538
3361.515634	86.553147
3362.572385	85.939161
3363.627539	85.289510
3364.681095	86.586014
3365.733054	86.465035
3366.787776	86.470629
3367.839448	86.916084
3368.890976	86.171329
3369.943814	88.665035
3370.993604	91.192308
3372.044703	91.266434
3373.092755	91.104895
3374.143568	89.865734
3375.191335	85.158042
3376.238960	84.711888
3377.286443	85.602797
3378.332332	84.176923
3379.379531	84.184615
3380.423686	80.925175
3381.470600	78.202098
3382.515923	81.204196
3383.558204	81.105594
3384.600344	81.737063
3385.643793	80.881119
3386.687100	80.027273
3387.728817	81.207692
3388.770394	79.783217
3389.811829	82.948951
3390.851676	83.068531
3391.889934	87.462937
3392.929500	88.074126
3393.968926	89.877622
3395.006764	88.569231
3396.043015	91.476224
3397.079126	88.164336
3398.116545	83.025874
3399.150931	76.257343
3400.186625	75.874126
3401.222179	71.357343
3402.254701	73.058741
3403.289977	68.825874
3404.322222	71.068531
3405.354329	72.654545
3406.384853	73.191608
3407.416683	70.364336
3408.448375	73.836364
3409.477039	76.800000
3410.505566	79.118182
3411.535399	81.074126
3412.565095	86.290909
3413.591765	89.302797
3414.619741	88.318881
3415.644693	86.053846
3416.672396	86.225874
3417.697074	83.320280
3418.723059	76.957343
3419.747465	71.555245
3420.771733	70.451049
3421.794424	70.602098
3422.816978	70.698601
3423.840838	73.250350
3424.861678	72.731469
3425.882382	76.164935
3426.904392	80.135664
3427.923384	84.282118
3428.942241	88.242757
3429.962404	91.656044
3430.979549	94.160440
