-118.277064	10.809341
-115.607463	2.600000
-112.940798	-2.568232
-110.274885	-5.203397
-107.611905	-5.813536
-104.947494	-4.906693
-102.286014	-2.990909
-99.623105	-0.092308
-96.965303	0.963636
-94.306070	2.873427
-91.647586	1.662238
-88.992027	1.664336
-86.335039	-2.038462
-83.683148	-2.256643
-81.029828	-6.096503
-78.379427	-6.528671
-75.727598	-4.900699
-73.080859	-3.258741
-70.432690	-4.426573
-67.785265	-2.525874
-65.140753	0.095105
-62.494812	0.244755
-59.853954	-1.067832
-57.211665	1.821678
-54.572286	-0.932867
-51.931478	-1.065035
-49.291409	-1.537762
-46.656414	-0.274126
-44.019989	-2.402797
-41.386468	-2.023077
-38.751517	-3.467832
-36.121633	-2.234965
-33.488155	-2.531469
-30.859740	-3.138462
-28.232059	-3.223077
-25.602950	-1.559441
-22.978897	-8.775524
-20.351254	-28.962937
-17.728666	-59.486713
-15.106808	-41.731469
-12.485681	81.297203
-9.865285	272.142657
-7.247776	427.694406
-4.628839	534.096503
-2.012788	587.177622
0.602536	593.276224
3.217131	547.723776
5.828845	456.965035
8.441986	316.119580
11.050095	146.850350
13.661784	-12.019580
16.268443	-81.223776
18.876530	-53.949650
21.483893	-7.812587
24.086231	-1.654545
26.692147	-2.277622
29.293042	-2.423776
31.895364	-0.788811
34.492668	0.786014
37.093548	4.155245
39.689414	1.660839
42.286707	1.961538
44.883281	-0.245455
47.474846	1.016783
50.067839	-0.420979
52.657972	0.550350
55.249531	0.116783
57.838231	1.590210
60.428359	4.704895
63.013487	5.695105
65.600043	5.824476
68.185884	5.224476
70.768872	2.105594
73.353287	-0.424476
75.930572	-2.301399
78.511424	-1.960839
81.089427	-3.119580
83.666720	-0.825874
86.245440	-1.900000
88.819177	-2.590210
91.394341	-3.215385
93.966662	-2.488112
96.538276	-1.325874
99.107049	0.119580
101.677249	-0.144056
104.244610	-2.716783
106.813398	-1.846154
109.379349	0.146853
111.942464	-2.397203
114.509137	-2.281119
117.066587	-5.002797
119.629723	-6.620280
122.187900	-8.962238
124.749631	-4.371329
127.306405	-1.076923
129.864605	6.383217
132.417853	15.754545
134.970402	26.162937
137.526503	38.070629
140.077655	49.423776
142.628110	59.474126
145.177867	70.642657
147.724805	77.532867
150.271048	82.259441
152.818716	81.927972
155.365688	87.543357
157.907724	86.996503
160.449068	88.568531
162.989718	87.379021
165.531793	86.911888
168.071058	87.897902
170.607513	87.285315
173.143278	86.884615
175.680468	87.760140
178.216967	87.046853
180.750660	87.038462
183.281549	84.816783
185.811750	86.065734
188.343376	83.590909
190.872202	83.404895
193.398228	82.465734
195.923568	83.414685
198.450333	84.678322
200.974302	85.531469
203.497585	87.509790
206.020184	90.486014
208.539990	90.775524
211.059113	91.053846
213.577553	86.793706
216.097418	86.977622
218.610280	84.144056
221.126674	83.414685
223.642387	81.524476
226.153209	82.560839
228.665456	80.537063
231.174920	82.183916
233.683706	82.544056
236.191814	85.485315
238.701346	85.320280
241.205997	86.197902
243.709972	85.827273
246.215371	89.743357
248.715895	87.789510
251.219942	91.324476
253.717019	91.580420
256.217618	93.972028
258.715446	91.059441
261.212601	92.981119
263.709084	94.713287
266.200703	97.627972
268.695841	97.197902
271.188214	99.174126
273.679916	99.667133
276.168855	101.917483
278.659217	100.162937
281.146818	101.890909
283.631659	100.629371
286.120014	100.527972
288.601431	97.453846
291.086361	96.461538
293.566445	96.046154
296.050042	97.560140
298.528797	98.867133
301.008974	96.546154
303.486400	95.933566
305.963162	96.202098
308.439260	96.444755
310.912610	100.934965
313.385299	103.337063
315.857326	103.086014
318.328691	101.827273
320.797313	101.776923
323.265275	102.302797
325.734660	106.365734
328.199222	104.781119
330.667287	101.113986
333.130533	100.575524
335.593122	99.556643
338.055053	100.039860
340.516328	101.205594
342.974869	100.800000
345.434832	100.215385
347.892063	98.500699
350.348639	95.679720
352.804560	95.609091
355.257753	99.741958
357.712368	98.298601
360.162181	99.672028
362.615490	99.402797
365.064000	98.018182
367.511860	96.868531
369.961141	96.927972
372.405629	98.129371
374.851539	98.877622
377.296800	94.362937
379.739342	92.195804
382.181236	91.262238
384.622482	92.184615
387.061013	91.505594
389.500966	92.730769
391.938205	92.642657
394.372732	92.831469
396.810747	91.421678
399.243985	94.284615
401.678645	96.863636
404.108532	97.911888
406.541904	96.043357
408.970506	97.402098
411.398466	96.902098
413.827847	98.064336
416.252464	98.878322
418.678501	100.568531
421.103899	100.573427
423.528656	104.066434
425.948654	103.455944
428.370074	107.270629
430.788797	104.638462
433.208941	103.326573
435.626390	100.316783
438.045259	98.403497
440.461435	97.664336
442.872864	96.597203
445.287769	94.062937
447.699984	92.409790
450.111565	92.683217
452.522513	97.483916
454.930773	98.090210
457.338402	97.526573
459.745398	96.047552
462.151762	97.788811
464.555445	96.056643
466.958497	96.205594
469.360919	96.260140
471.762711	97.182517
474.161825	98.918182
476.562359	98.300000
478.962264	99.130070
481.357447	100.400699
483.756095	99.493007
486.150024	98.906993
488.543327	98.898601
490.936004	98.097902
493.328056	93.372028
495.721527	91.957343
498.110285	89.709091
500.496377	88.380420
502.883889	87.732867
505.270777	82.597203
507.655002	79.827972
510.040646	78.272727
512.423627	76.968531
514.803948	77.554545
517.185688	75.672028
519.564770	78.544056
521.945269	76.523776
524.323111	76.587413
526.698298	76.276923
529.072867	76.697203
531.448855	77.345455
533.822189	75.630769
536.196942	75.091608
538.567008	74.473427
540.936459	73.900000
543.307329	74.281818
545.673517	73.409790
548.041124	74.627972
550.406085	70.224476
552.770434	68.325874
555.134169	69.478322
557.499322	67.619580
559.859803	67.014685
562.221701	68.088112
564.580960	67.151049
566.937580	68.228671
569.297646	68.483916
571.651020	69.996503
574.007839	70.357343
576.362023	71.997902
578.715598	72.065035
581.068565	71.993007
583.418901	72.308392
585.770654	72.822378
588.115729	72.686014
590.466269	75.733566
592.810136	72.630769
595.159464	70.188811
597.504143	63.709091
599.846198	61.950350
602.189670	60.441259
604.530519	61.065734
606.870765	60.498601
609.208391	61.080420
611.549452	64.006993
613.885876	67.511888
616.223716	67.613287
618.558938	71.061538
620.891545	68.898601
623.225569	65.593706
625.556978	63.564336
627.887789	66.332168
630.218002	64.951748
632.547618	66.361538
634.872610	65.123776
637.203044	64.775524
639.528856	63.615385
641.852062	63.363636
644.176684	64.365734
646.498700	65.111189
648.820122	66.412587
651.138941	68.141958
653.459176	73.499301
655.778818	73.713287
658.095859	73.611888
660.412309	74.015385
662.726160	71.831469
665.041426	69.923776
667.354096	66.754545
669.668181	67.780420
671.977667	67.601399
674.288567	67.400000
676.596875	68.453147
678.904595	69.241958
681.213730	71.495804
683.518272	70.563636
685.822228	69.502797
688.125597	67.836364
690.430381	68.483916
692.730579	66.946154
695.032192	68.467832
697.333219	69.788112
699.629665	66.079021
701.927525	66.900699
704.224803	66.890909
706.521496	67.370629
708.813614	68.686014
711.109143	69.923077
713.400099	67.520280
715.692469	67.773427
717.982263	68.904895
720.271478	69.844056
722.560113	70.001399
724.846175	68.340559
727.133651	66.853846
729.418557	68.079720
731.702884	67.131469
733.984644	67.570629
736.267817	69.595804
738.550413	72.304196
740.828453	68.893007
743.107907	68.367832
745.386786	67.552448
747.665090	67.804895
749.938843	62.430070
752.214011	63.803497
754.488605	64.920280
756.760640	64.506993
759.034088	66.281119
761.304978	67.145455
763.573312	69.111189
765.843059	69.985315
768.110251	66.897203
770.376873	66.701399
772.642926	65.501399
774.906427	66.879021
777.171340	64.357343
779.435685	66.851748
781.695499	69.281119
783.956727	71.206294
786.217387	71.683217
788.475500	71.652448
790.731070	72.082517
792.990029	71.706294
795.242490	70.165035
797.500318	68.023776
799.753627	66.274126
802.004395	68.093007
804.256576	65.359441
806.506219	65.581818
808.757273	67.152448
811.003816	67.006993
813.251772	65.330769
815.497192	68.065035
817.744025	72.247552
819.990295	73.572028
822.232062	74.403497
824.477211	73.152448
826.715888	70.327972
828.957948	70.382517
831.195509	64.472727
833.434481	63.692308
835.670928	63.039161
837.908785	63.347552
840.144117	62.353846
842.376925	66.353147
844.611145	68.586014
846.842843	70.721678
849.073986	68.996503
851.304574	66.097203
853.534608	63.967133
855.764087	64.341259
857.989086	63.086713
860.217458	65.795804
862.441352	68.555245
864.666656	73.060839
866.887485	73.674825
869.111687	77.065035
871.331415	77.231469
873.552553	78.437762
875.773141	73.696503
877.991220	73.037762
880.210708	69.953147
882.425730	68.583916
884.640204	67.331469
886.854131	66.802098
889.067510	67.534965
891.280343	68.895804
893.492628	66.069930
895.702412	68.107692
897.911650	68.744755
900.120342	69.438462
902.326536	69.851748
904.534139	68.041259
906.739245	64.506294
908.943807	62.520979
911.145874	59.087413
913.349350	60.575524
915.550332	61.271329
917.750772	63.183916
919.952621	64.148951
922.148079	68.686014
924.346895	72.146853
926.541274	76.074825
928.739010	79.402797
930.932310	77.849650
933.127018	75.856643
935.319241	71.767832
937.510926	67.288811
939.702073	68.368531
941.890737	65.583217
944.078864	67.860839
946.264511	67.334965
948.453511	69.034266
950.638086	71.295804
952.822127	76.370629
955.009518	80.388811
957.188606	82.062238
959.371044	82.441259
961.552947	83.202098
963.732377	80.283916
965.909334	80.613986
968.087699	76.851049
970.267470	75.546154
972.440893	70.602797
974.617663	72.187413
976.790025	74.267133
978.963795	79.174126
981.133161	82.136364
983.305871	85.206993
985.476115	87.063636
987.645831	90.269930
989.815018	89.249650
991.979808	89.123077
994.147940	87.493007
996.311676	86.390909
998.476820	85.280420
1000.639504	89.467832
1002.801663	87.152448
1004.961364	89.093706
1007.120542	91.177622
1009.281126	92.217483
1011.439255	89.360839
1013.596860	88.673427
1015.753942	90.509790
1017.910501	90.797902
1020.062680	94.551748
1022.216266	92.077622
1024.369330	92.878322
1026.519945	93.473427
1028.671966	92.513287
1030.819615	96.697902
1032.970594	97.171329
1035.117204	99.571329
1037.263294	98.752448
1039.408866	95.873427
1041.555842	100.995804
1043.696531	99.341259
1045.840548	99.139860
1047.982126	93.304895
1050.123186	92.976224
1052.265651	88.435664
1054.401837	87.573427
1056.541349	88.948951
1058.676505	87.077622
1060.814986	91.063636
1062.949114	93.968531
1065.082728	91.080420
1067.217746	95.378322
1069.348415	93.825175
1071.480490	93.205594
1073.610134	91.272727
1075.739267	88.051748
1077.867889	82.036364
1079.995999	83.596503
1082.121683	82.802098
1084.246857	81.009091
1086.373434	83.102098
1088.495675	87.462937
1090.619320	90.239161
1092.738630	92.583217
1094.863169	92.215385
1096.981464	90.589510
1099.101162	91.242657
1101.218442	89.842657
1103.335216	89.375524
1105.451483	88.045455
1107.565335	86.493007
1109.680590	83.690210
1111.791523	82.281119
1113.905768	83.965734
1116.015692	88.548951
1118.127019	90.864336
1120.237843	91.638462
1122.344350	95.164336
1124.454166	98.078322
1126.559668	101.825175
1128.666574	102.776923
1130.767264	99.468531
1132.873165	100.414685
1134.974758	92.640559
1137.077754	87.950350
1139.180249	83.870629
1141.276538	81.352448
1143.378033	80.416783
1145.475226	76.667832
1147.571920	79.773427
1149.668117	79.622378
1151.763815	84.000699
1153.859016	87.516084
1155.951820	90.076224
1158.046026	93.729371
1160.134041	91.992308
1162.227254	94.690909
1164.314279	95.674825
1166.404604	95.865734
1168.490640	94.515385
1170.579974	93.233566
1172.663127	92.798601
1174.747683	94.563636
1176.833639	95.602098
1178.915315	95.985315
1180.998391	94.236364
1183.079082	95.108392
1185.159282	96.119580
1187.238990	99.297902
1189.318207	100.118881
1191.395041	99.878322
1193.469495	97.858042
1195.547241	98.545455
1197.620716	96.751748
1199.695593	100.867133
1201.766202	102.553846
1203.838212	101.520280
1205.907846	99.100699
1207.978881	98.495804
1210.049428	96.719580
1212.115715	96.010490
1214.183401	94.379021
1216.248716	95.884615
1218.315431	96.718182
1220.377890	97.715385
1222.443635	100.878322
1224.505125	102.771329
1226.568015	102.481818
1228.628538	101.085315
1230.688578	98.393706
1232.748134	97.346853
1234.805326	97.993007
1236.862035	100.169930
1238.916382	100.818182
1240.974009	106.200000
1243.029274	106.248951
1245.080298	107.946154
1247.132723	107.358741
1249.184667	105.625874
1251.234253	104.427273
1253.283360	106.691608
1255.331988	106.604196
1257.380138	108.274825
1259.427810	109.061538
1261.471251	109.404196
1263.517967	110.578322
1265.562331	112.286014
1267.606217	110.360839
1269.647753	111.545455
1271.686939	111.508392
1273.729397	113.532867
1275.767634	118.016084
1277.807268	120.248252
1279.846428	120.824476
1281.881370	120.408392
1283.917710	116.705594
1285.951705	117.700699
1287.987099	119.039161
1290.018279	121.592308
1292.050858	122.544056
1294.082964	124.536364
1296.112730	127.655245
1298.143894	131.819580
1300.170850	135.135664
1302.199204	134.520280
1304.223354	132.535664
1306.250769	133.904895
1308.273981	134.683217
1310.298591	136.909790
1312.320866	135.404895
1314.344539	137.610490
1316.365879	135.424476
1318.386752	137.107692
1320.407157	139.397203
1322.423369	143.689510
1324.440978	143.774825
1326.456259	146.030070
1328.474799	147.890210
1330.489149	153.732168
1332.501174	154.193706
1334.516457	152.394406
1336.527554	150.680420
1338.540047	154.832867
1340.548358	152.195105
1342.559925	153.523077
1344.565453	152.930070
1346.574235	155.533566
1348.578841	155.178322
1350.586700	155.767832
1352.594097	155.387413
1354.595462	155.374126
1356.598225	152.310490
1358.600528	153.889510
1360.602370	153.781119
1362.603754	154.472028
1364.602823	147.053147
1366.601434	144.217483
1368.599587	139.726573
1370.597282	135.893007
1372.590813	131.295105
1374.585741	128.940559
1376.580212	128.199301
1378.574226	126.228671
1380.565933	127.920979
1382.557184	130.840559
1384.546130	130.612587
1386.536471	132.014685
1388.526357	129.774825
1390.513940	130.648951
1392.501069	130.899301
1394.485896	130.384615
1396.472118	129.700699
1398.456039	130.223776
1400.439508	129.100000
1402.422525	126.546853
1404.403244	127.786713
1406.385357	128.676224
1408.365173	128.993706
1410.344539	128.634965
1412.319766	126.603497
1414.298231	124.593706
1416.274403	127.454545
1418.250125	127.274126
1420.225398	127.688811
1422.198381	130.637063
1424.170915	129.638462
1426.143001	132.866434
1428.114639	135.048951
1430.082150	139.927273
1432.054734	137.688811
1434.019512	137.844755
1435.989363	131.779021
1437.955089	126.640559
1439.922209	125.445455
1441.887045	123.600000
1443.847761	122.149650
1445.813545	123.155245
1447.773374	121.716084
1449.734596	124.639161
1451.697211	124.923077
1453.655711	125.354545
1455.613769	128.410490
1457.571384	130.570629
1459.528558	128.649650
1461.483456	129.378322
1463.439746	133.442657
1465.393762	135.582517
1467.347338	133.506294
1469.298641	133.601399
1471.251336	131.009790
1473.201760	130.259441
1475.151745	127.505594
1477.101291	124.860140
1479.048567	126.558741
1480.993577	125.463636
1482.939979	125.453147
1484.885943	124.121678
1486.831470	125.088811
1488.774731	125.357343
1490.717556	123.175524
1492.658118	123.406993
1494.600072	123.125175
1496.539763	122.716783
1498.479019	123.509091
1500.417841	124.995804
1502.354403	126.164336
1504.292355	131.662937
1506.228050	130.595804
1508.163311	130.089510
1510.096315	129.497902
1512.028887	131.548951
1513.961027	129.324476
1515.892735	128.304196
1517.822190	127.261538
1519.753034	125.962238
1521.683448	126.017483
1523.609789	128.050350
1525.537520	127.978322
1527.463001	129.602098
1529.388053	126.351748
1531.312676	128.695804
1533.236870	130.600000
1535.158817	133.204895
1537.082153	134.161538
1539.003244	135.938462
1540.922090	140.841259
1542.842326	147.578322
1544.760318	151.295804
1546.677884	160.110490
1548.593209	167.281818
1550.509922	172.617483
1552.422581	175.743357
1554.338444	187.797902
1556.252068	196.353147
1558.163453	205.509790
1560.076227	218.991608
1561.984953	235.202797
1563.895067	257.018881
1565.804758	279.405594
1567.714026	300.562238
1569.621059	326.055944
1571.525860	343.022378
1573.432050	350.609790
1575.336009	345.306294
1577.239546	338.934266
1579.142662	320.217483
1581.043550	300.815385
1582.945826	279.747552
1584.845873	259.861538
1586.747309	240.303497
1588.644710	224.974126
1590.541694	213.072028
1592.438259	205.728671
1594.336211	194.304895
1596.228329	189.507692
1598.123641	183.442657
1600.018534	182.370629
1601.911207	174.897902
1603.803462	177.119580
1605.693498	175.624476
1607.583118	176.527273
1609.472323	173.554545
1611.361112	173.062238
1613.247685	166.287413
1615.135645	161.836364
1617.019588	157.639860
1618.904918	159.581818
1620.789835	158.114685
1622.672538	155.819580
1624.556628	144.997203
1626.436706	144.637063
1628.318171	137.390909
1630.197426	134.215385
1632.078067	131.537063
1633.952905	128.959441
1635.832723	125.075524
1637.708536	124.534965
1639.583940	122.794406
1641.460729	120.815385
1643.331721	115.734965
1645.205896	114.934266
1647.076071	106.980420
1648.949427	103.688112
1650.820580	98.665035
1652.689531	102.579021
1654.559868	103.137063
1656.426211	103.262238
1658.293941	103.217483
1660.159471	101.894406
1662.026386	100.673427
1663.889313	95.086014
1665.753625	91.456643
1667.615742	93.372727
1669.477453	86.622378
1671.340549	81.731469
1673.201451	80.310490
1675.060159	79.918182
1676.918465	75.927972
1678.778154	74.934965
1680.632077	74.941958
1682.489173	72.605594
1684.345865	77.922378
1686.198582	73.576224
1688.054470	75.168531
1689.906384	76.232867
1691.757897	77.321678
1693.609009	75.138462
1695.459720	75.438462
1697.310031	77.833566
1699.158158	76.597203
1701.007668	77.750350
1702.851430	79.062238
1704.700142	79.023776
1706.543107	80.611888
1708.389238	74.152448
1710.231408	75.002797
1712.076742	79.567133
1713.916336	77.290909
1715.757314	72.112587
1717.599676	74.751049
1719.438080	76.625874
1721.277868	72.280420
1723.115481	73.550350
1724.952698	75.795105
1726.787742	75.788112
1728.624169	71.420979
1730.458424	72.086713
1732.292285	73.672028
1734.125751	75.879021
1735.955271	71.569930
1737.787950	72.460140
1739.616685	69.874825
1741.448578	70.987413
1743.276528	70.349650
1745.104086	73.682517
1746.931253	75.700000
1748.758028	75.771329
1750.584411	76.038462
1752.406858	77.026573
1754.232459	75.962937
1756.054126	78.073427
1757.877175	78.279720
1759.698063	72.435664
1761.518561	65.739161
1763.340441	73.583916
1765.156621	72.339161
1766.975953	71.271329
1768.791358	68.258741
1770.609914	67.140559
1772.424544	68.031469
1774.238787	68.134965
1776.052644	68.639161
1777.866114	66.841259
1779.677430	62.767133
1781.490128	57.616084
1783.302439	57.848252
1785.110833	61.846853
1786.920608	61.766434
1788.726467	60.038462
1790.535473	61.173427
1792.340565	60.555944
1794.147037	62.985315
1795.953126	63.179021
1797.755305	59.919580
1799.560627	59.290909
1801.362041	61.381119
1803.164835	64.846853
1804.963724	65.017483
1806.763992	65.925175
1808.563880	69.851748
1810.361625	72.344056
1812.158990	71.885315
1813.955974	70.642657
1815.752578	69.586014
1817.547043	68.530070
1819.342888	66.772727
1821.133077	68.504196
1822.928163	67.543357
1824.717596	68.988811
1826.510167	62.338462
1828.300602	62.048951
1830.088902	59.805594
1831.880338	60.660839
1833.666129	57.525175
1835.453298	57.008392
1837.238337	58.588112
1839.026508	62.452448
1840.810794	66.006993
1842.592951	68.998601
1844.376487	72.634965
1846.157894	75.874126
1847.940679	75.360839
1849.719585	74.516783
1851.499869	73.404196
1853.278028	73.385315
1855.057564	68.364336
1856.834976	68.606993
1858.610264	68.109790
1860.386931	67.716783
1862.161475	70.121678
1863.937396	70.515385
1865.707698	67.809790
1867.481127	69.165734
1869.252436	69.834266
1871.023374	69.720979
1872.795689	68.781818
1874.562392	67.124476
1876.332219	67.052448
1878.098183	70.813986
1879.867271	64.059441
1881.632497	65.546154
1883.397355	65.036364
1885.163589	61.503497
1886.925965	59.463636
1888.687974	62.688811
1890.449616	62.788112
1892.210890	66.435664
1893.971798	65.216084
1895.732338	67.555245
1897.490770	69.151748
1899.248835	66.811189
1901.004793	59.515385
1902.762127	60.118881
1904.519095	56.969231
1906.273958	54.680420
1908.026715	52.546154
1909.779109	54.673427
1911.532879	55.027972
1913.284545	60.505594
1915.034108	63.509790
1916.785048	66.234965
1918.535624	64.703497
1920.282362	63.504895
1922.030475	60.051049
1923.776489	60.129371
1925.523879	55.509790
1927.269170	51.979720
1929.012364	48.639161
1930.756934	49.383217
1932.499407	49.027273
1934.241520	51.474825
1935.983274	51.940210
1937.724667	52.041259
1939.463967	53.873776
1941.202908	57.920979
1942.941490	61.129021
1944.677980	67.034965
1946.414113	69.300350
1948.151620	70.858042
1949.885306	69.206643
1951.620366	68.993007
1953.353337	69.491259
1955.085952	68.618182
1956.818210	66.003846
1958.550112	64.680420
1960.279928	65.872727
1962.007660	67.358741
1963.736766	69.531469
1965.465516	72.130070
1967.192183	74.137063
1968.918496	71.753147
1970.646182	69.785315
1972.368333	70.340559
1974.093584	65.471329
1975.815028	62.158042
1977.539572	57.941259
1979.262037	55.409790
1980.980698	54.688811
1982.702458	54.682517
1984.420416	55.563636
1986.139748	58.506294
1987.855279	61.052448
1989.575632	64.646154
1991.292186	65.418881
1993.004943	66.486713
1994.720796	63.842657
1996.434577	61.868531
1998.148008	61.262238
1999.859367	59.364336
2001.572100	57.565035
2003.281041	57.011189
2004.993076	56.359441
2006.699601	58.371329
2008.409219	60.395804
2010.116769	60.467832
2011.823972	57.420979
2013.529109	61.281818
2015.233899	60.411189
2016.940061	60.504895
2018.642441	60.620979
2020.346193	64.916084
2022.047882	65.197902
2023.749225	67.076224
2025.450223	64.247552
2027.149161	64.683916
2028.849470	65.250350
2030.546003	62.066434
2032.243908	61.239161
2033.939755	63.505594
2035.638687	60.075524
2037.332133	60.958042
2039.026950	61.260839
2040.721424	65.279021
2042.412130	63.039161
2044.105920	64.038462
2045.795943	61.357343
2047.487337	62.053846
2049.176678	66.088112
2050.867389	68.176923
2052.554338	67.577622
2054.240946	67.748252
2055.928925	66.271329
2057.613144	64.594406
2059.298733	61.860140
2060.983983	57.933566
2062.667185	53.939161
2064.351757	52.768531
2066.030865	49.359441
2067.714759	50.214685
2069.393193	51.817483
2071.074704	53.105594
2072.752463	52.111888
2074.429886	54.208392
2076.108678	57.639860
2077.785427	61.070629
2079.460135	62.881818
2081.136212	64.504895
2082.810249	65.522378
2084.483950	68.252448
2086.157316	67.949650
2087.828644	64.955245
2089.499637	63.457343
2091.170296	61.812587
2092.840621	60.131469
2094.510611	57.088112
2096.178566	59.511189
2097.846188	59.147552
2099.511776	56.244755
2101.178732	53.845455
2102.843655	55.033566
2104.508245	59.448951
2106.170804	61.046853
2107.834732	60.223077
2109.496628	62.811189
2111.158193	62.539161
2112.819428	62.816084
2114.478633	60.818881
2116.137509	61.861538
2117.796054	60.127972
2119.454270	55.506993
2121.108763	53.353846
2122.766320	55.248252
2124.423547	59.336364
2126.077054	60.467133
2127.731928	60.409790
2129.383083	57.448252
2131.037301	57.650350
2132.687801	55.121678
2134.339669	56.995105
2135.986128	57.379720
2137.637341	60.816783
2139.284842	59.569231
2140.933709	64.096503
2142.580557	65.589510
2144.227080	66.523776
2145.873277	63.083217
2147.515765	60.504895
2149.161312	56.437063
2150.803152	56.456643
2152.448049	52.538462
2154.089241	56.152448
2155.730109	54.000699
2157.370654	53.415385
2159.009186	52.449650
2160.649084	57.661538
2162.285282	56.445455
2163.922846	56.946154
2165.560088	56.273427
2167.195320	57.944056
2168.830230	60.351748
2170.464819	62.591608
2172.099087	63.194406
2173.729661	66.918881
2175.363286	65.383217
2176.993220	62.541958
2178.624520	61.433566
2180.253814	62.982517
2181.882789	60.079720
2183.511444	62.897203
2185.139780	58.305594
2186.766113	56.730070
2188.392128	56.423077
2190.016142	55.341958
2191.641521	57.210490
2193.264899	58.381818
2194.889642	55.843357
2196.510703	55.548951
2198.131449	57.548252
2199.753558	59.117483
2201.373670	59.552448
2202.991786	63.348951
2204.609586	59.097203
2206.227070	59.192308
2207.844239	58.872028
2209.461093	57.765734
2211.077632	61.676224
2212.692177	60.025874
2214.304731	56.793706
2215.918648	58.009091
2217.530573	57.668531
2219.143863	57.041259
2220.755161	58.058042
2222.364471	61.714685
2223.975143	60.911189
2225.583827	61.530070
2227.192199	61.181818
2228.798583	62.378322
2230.406331	65.079720
2232.012092	66.745455
2233.617543	64.561538
2235.221008	65.495105
2236.825836	64.658741
2238.428680	63.315385
2240.029541	64.061538
2241.631765	65.737762
2243.232007	61.526573
2244.833611	59.209790
2246.431562	55.052448
2248.030876	54.820979
2249.628210	51.002098
2251.225236	52.083916
2252.823623	53.079720
2254.418362	56.532867
2256.011125	58.395105
2257.605249	60.282517
2259.200736	62.297203
2260.792577	63.890210
2262.384112	62.009091
2263.977008	62.738462
2265.564595	64.182517
2267.156879	65.117483
2268.743855	62.305594
2270.333860	62.360839
2271.918560	63.473427
2273.507954	64.345455
2275.092045	62.954545
2276.677498	60.467832
2278.260982	56.908392
2279.847491	58.353846
2281.430367	55.144755
2283.012939	53.915035
2284.595209	54.468531
2286.173848	53.755594
2287.755512	57.684615
2289.333547	60.369580
2290.914605	57.812587
2292.492036	58.347902
2294.067504	57.907692
2295.645994	57.098951
2297.220859	56.683916
2298.795425	60.440909
2300.369689	53.302797
2301.943653	49.818531
2303.517317	48.965035
2305.090680	48.669231
2306.660425	50.219580
2308.229871	48.718182
2309.802336	47.836364
2311.369526	49.548252
2312.939733	53.941259
2314.506327	56.308392
2316.074279	58.554545
2317.640277	61.793007
2319.205977	59.200699
2320.771379	62.594406
2322.334828	62.651049
2323.899636	60.698601
2325.460835	61.068531
2327.025049	65.655245
2328.584002	66.646154
2330.145968	65.843357
2331.705984	64.575524
2333.265704	65.761538
2334.823475	63.434965
2336.380952	59.670629
2337.938133	60.563636
2339.493368	60.597203
2341.048308	56.272727
2342.602955	54.902797
2344.157308	56.658741
2345.711367	60.285315
2347.265133	57.074126
2348.816954	60.046853
2350.366832	58.048951
2351.919718	65.436364
2353.467362	66.150350
2355.018013	65.734965
2356.565074	64.127273
2358.113492	62.248951
2359.661618	59.508392
2361.206157	62.279720
2362.752053	60.903497
2364.296010	59.577622
2365.841325	56.662238
2367.383055	57.209091
2368.926143	55.481818
2370.467294	59.390210
2372.008156	59.517483
2373.548729	56.057343
2375.089013	52.925874
2376.629008	55.251049
2378.165424	57.274825
2379.704842	61.423776
2381.240683	60.406993
2382.777880	62.125175
2384.311503	60.190909
2385.848125	56.650350
2387.382817	56.112587
2388.915578	59.679021
2390.448054	60.971329
2391.978601	60.253846
2393.512146	59.504196
2395.040480	56.015385
2396.570170	55.867832
2398.099575	56.582517
2399.628695	57.752448
2401.157529	53.976923
2402.681159	50.050350
2404.209424	51.181119
2405.732486	52.374825
2407.260183	57.185315
2408.781039	60.306993
2410.306529	64.035664
2411.828459	62.531469
2413.351743	59.791608
2414.873107	60.562238
2416.392551	62.534266
2417.913350	61.265734
2419.432230	60.731469
2420.950828	63.722378
2422.467509	62.476923
2423.985545	57.069930
2425.503299	56.009790
2427.017501	51.887413
2428.531423	50.946154
2430.045066	49.115385
2431.560062	46.165035
2433.071511	45.386713
2434.584313	47.404196
2436.095203	49.216783
2437.605813	54.217483
2439.114512	53.572028
2440.626198	52.534965
2442.134340	54.337762
2443.642203	53.079021
2445.149789	53.946853
2446.653835	59.070629
2448.160865	63.223776
2449.665987	60.036364
2451.170832	59.383916
2452.673770	62.986014
2454.176431	64.158042
2455.678816	66.920280
2457.179296	63.968531
2458.681129	65.502797
2460.181058	63.787413
2461.680711	60.525175
2463.180089	60.194406
2464.677564	57.174126
2466.173137	56.297203
2467.671690	54.164336
2469.166715	52.725175
2470.663092	55.594406
2472.155943	53.431469
2473.650146	58.582517
2475.144077	58.760140
2476.634483	59.821678
2478.127867	55.804196
2479.619353	54.323077
2481.108942	52.338462
2482.598259	53.069930
2484.085680	53.525175
2485.576077	56.770629
2487.062955	54.072028
2488.551186	57.410490
2490.035899	57.861538
2491.520342	63.853846
2493.006137	66.055245
2494.490039	65.332867
2495.975293	61.325874
2497.455413	64.059441
2498.938505	63.211888
2500.419708	64.939161
2501.900640	61.291608
2503.379684	64.616084
2504.858460	63.034266
2506.336967	60.500699
2507.815205	59.037762
2509.293176	58.788811
2510.767641	57.534266
2512.245075	55.322378
2513.719006	54.885315
2515.194288	58.823776
2516.669302	60.979021
2518.140815	66.504895
2519.613679	66.952448
2521.084660	68.907692
2522.556991	65.922378
2524.024208	61.728671
2525.494392	59.679021
2526.962694	60.411189
2528.430732	59.369231
2529.898505	60.134266
2531.366013	58.184615
2532.833257	57.718182
2534.297008	60.518182
2535.762109	62.323077
2537.225333	60.481818
2538.689906	59.767133
2540.150991	60.219580
2541.613425	59.390909
2543.075596	57.074825
2544.534280	61.941958
2545.997537	62.241259
2547.455697	63.054545
2548.915206	56.608392
2550.369622	56.240559
2551.828608	55.968531
2553.285721	55.234965
2554.740964	53.092308
2556.195946	54.177622
2557.649058	55.071329
2559.103519	56.632867
2560.556111	56.886014
2562.008443	59.754545
2563.458907	60.616084
2564.912327	61.351748
2566.360665	55.732867
2567.811959	58.211189
2569.261386	58.713986
2570.707342	61.153846
2572.156252	59.034266
2573.601691	59.867133
2575.048479	61.638462
2576.493403	64.628671
2577.938070	63.602098
2579.384084	64.060839
2580.826631	63.781818
2582.270526	62.491608
2583.710956	60.183217
2585.152734	64.629371
2586.592652	66.874825
2588.033917	69.831469
2589.471720	66.122378
2590.912473	67.776923
2592.348163	67.798601
2593.786803	67.967133
2595.223586	65.672028
2596.658512	65.327273
2598.096387	65.153846
2599.529204	66.006294
2600.963368	63.947552
2602.395677	60.286713
2603.829334	57.886713
2605.261136	55.298601
2606.692686	51.044755
2608.123982	54.160839
2609.553427	54.913287
2610.982619	55.744056
2612.409960	56.309091
2613.838648	61.847552
2615.267083	65.745455
2616.692072	66.479720
2618.118406	63.831469
2619.542892	61.341958
2620.968724	64.406993
2622.391112	63.569231
2623.814846	64.881119
2625.236734	70.795804
2626.658371	68.732168
2628.078164	69.244755
2629.499301	72.106294
2630.920189	77.318881
2632.337639	79.100699
2633.758028	80.460140
2635.174980	81.153846
2636.591684	80.234965
2638.008139	81.021678
2639.424346	79.076923
2640.840304	75.518881
2642.254422	73.826573
2643.668293	70.267832
2645.080324	67.272727
2646.493700	67.216084
2647.903646	68.584615
2649.316528	68.061538
2650.725981	75.543357
2652.135188	76.427273
2653.542559	77.547552
2654.952864	81.888112
2656.361333	88.113287
2657.767967	89.264336
2659.174356	91.323077
2660.578911	94.320979
2661.984810	91.845455
2663.388876	92.953147
2664.792698	89.850350
2666.196275	89.256643
2667.598021	96.040559
2669.001110	91.318881
2670.400781	92.648951
2671.801796	96.112587
2673.199395	102.554545
2674.599923	102.398601
2675.997037	105.127273
2677.395494	109.048951
2678.792123	113.283217
2680.188511	114.272028
2681.584656	115.667133
2682.978975	116.885315
2684.374637	118.481818
2685.766889	114.959441
2687.160485	114.719580
2688.552256	113.888112
2689.945369	113.646154
2691.336659	108.697902
2692.726126	106.228671
2694.115354	103.567832
2695.504341	103.218881
2696.894671	101.193706
2698.280016	103.241259
2699.668286	98.827273
2701.054735	97.155944
2702.440945	96.155245
2703.826916	92.828671
2705.209489	92.283217
2706.593404	93.295804
2707.977080	93.450350
2709.360519	95.645455
2710.740562	96.380420
2712.121947	101.562238
2713.501516	104.879720
2714.882427	108.744056
2716.261523	104.176923
2717.638805	101.455245
2719.017428	100.967832
2720.394237	94.310490
2721.770811	93.082517
2723.147149	93.695804
2724.521675	93.306993
2725.897542	93.621678
2727.270022	89.599301
2728.645419	88.706993
2730.015854	84.213287
2731.387631	82.163636
2732.759174	79.233566
2734.128908	78.272727
2735.499982	77.583916
2736.869249	76.513986
2738.238282	75.906294
2739.605508	76.281119
2740.972502	76.486713
2742.339263	77.348252
2743.705791	75.241958
2745.070515	71.165035
2746.435006	66.689510
2747.799265	66.620280
2749.163293	67.618881
2750.527088	67.183916
2751.887510	67.051748
2753.250843	68.346154
2754.609233	66.372028
2755.970533	66.362937
2757.328462	65.793706
2758.689301	67.573427
2760.048339	66.905594
2761.404009	61.469231
2762.762588	57.288112
2764.117799	58.127972
2765.472781	55.972028
2766.825966	57.922378
2768.182058	57.835664
2769.534786	57.912587
2770.887285	59.083916
2772.239557	58.797203
2773.593166	54.607692
2774.943414	54.106294
2776.291869	54.551748
2777.643228	54.390909
2778.991228	52.752448
2780.340567	51.445455
2781.688113	50.053147
2783.035432	53.619580
2784.382525	52.441958
2785.727827	53.722378
2787.072903	53.778322
2788.417753	52.650350
2789.762377	48.407692
2791.103648	51.250350
2792.446258	58.765734
2793.788643	58.848951
2795.130802	56.432168
2796.469612	58.304196
2797.811322	57.865035
2799.149683	58.256643
2800.489382	56.257343
2801.827295	53.630070
2803.163424	49.690210
2804.499330	48.851748
2805.836572	43.946853
2807.172031	46.220979
2808.507267	45.960140
2809.840721	46.404196
2811.175511	49.690909
2812.506960	53.532867
2813.841305	54.850350
2815.170752	60.404895
2816.501536	60.379021
2817.832098	60.805594
2819.160881	61.788112
2820.491001	62.084615
2821.819341	56.132867
2823.147461	55.237063
2824.473804	53.013287
2825.801482	56.720280
2827.125828	55.339860
2828.451510	57.214685
2829.775416	58.300699
2831.099102	58.318881
2832.424124	55.371329
2833.745817	58.632168
2835.067290	59.837762
2836.388545	59.572727
2837.709581	53.078322
2839.028845	54.008392
2840.349444	56.088811
2841.668271	57.202098
2842.986880	55.627273
2844.303719	57.341958
2845.620340	53.465035
2846.936743	51.155245
2848.251378	52.720979
2849.567347	58.965734
2850.879997	58.741958
2852.193981	60.441958
2853.507749	58.032867
2854.821300	60.195804
2856.133084	58.314685
2857.443103	58.643357
2858.754456	52.860839
2860.062493	51.665734
2861.371866	47.388112
2862.681023	48.620979
2863.989965	49.460839
2865.297144	55.169231
2866.602559	55.618881
2867.909309	58.426573
2869.214297	54.010490
2870.519070	53.754545
2871.822083	51.682517
2873.127976	55.069930
2874.429015	51.698601
2875.731387	51.388112
2877.032000	50.955944
2878.333947	51.383217
2879.635681	49.282517
2880.934111	49.588112
2882.233874	50.364336
2883.531880	49.469231
2884.829674	46.072028
2886.125711	49.158741
2887.423082	49.590210
2888.718697	49.615385
2890.014102	47.594406
2891.309295	46.343357
2892.601190	47.475524
2893.895962	45.865035
2895.187438	46.391608
2896.480246	48.736364
2897.772844	52.902098
2899.062147	53.994406
2900.352783	53.769930
2901.641669	55.873427
2902.931886	55.027273
2904.218812	53.659441
2905.507070	52.956643
2906.793579	54.410490
2908.079879	55.622378
2909.365971	56.262937
2910.650315	57.118881
2911.937531	57.112587
2913.219920	56.830070
2914.503641	57.307692
2915.785615	54.812587
2917.067383	56.027273
2918.347405	53.669930
2919.630297	52.600699
2920.911444	50.327972
2922.189309	50.751748
2923.470043	48.088112
2924.747496	47.453846
2926.024744	44.423776
2927.300249	43.939860
2928.578622	46.855245
2929.852181	48.908392
2931.128606	46.338462
2932.403291	51.669930
2933.676236	51.900699
2934.950511	53.804196
2936.223047	55.172028
2937.495379	56.440559
2938.764438	52.885315
2940.036362	47.410490
2941.306548	41.532867
2942.576530	40.918881
2943.846309	41.434965
2945.114351	40.871329
2946.380658	40.839860
2947.646762	46.501399
2948.914197	47.164336
2950.179896	48.477622
2951.445393	51.393007
2952.710689	52.707692
2953.972719	49.209790
2955.236079	41.760839
2956.499238	39.248252
2957.760664	38.487413
2959.023420	37.389510
2960.284445	36.293007
2961.543739	35.745455
2962.802832	36.609790
2964.061725	35.332168
2965.320418	37.779021
2966.578911	42.274825
2967.835675	45.505594
2969.092240	44.151748
2970.347076	44.586014
2971.603242	45.289510
2972.856152	45.081119
2974.110392	43.574825
2975.364433	45.018881
2976.616748	42.387413
2977.868865	41.704895
2979.119257	38.931469
2980.372504	40.648252
2981.620974	39.742657
2982.872298	39.334266
2984.120374	35.401399
2985.368252	39.597902
2986.615933	36.318881
2987.863418	38.227972
2989.109181	37.538462
2990.354747	42.231469
2991.601642	40.160140
2992.845291	39.643357
2994.090269	39.430769
2995.332004	41.254545
2996.576590	40.292308
2997.819457	43.136364
2999.059082	40.714685
3000.301559	44.100000
3001.540795	39.713986
3002.781359	41.912587
3004.020206	39.315385
3005.258859	39.492308
3006.495796	35.476923
3007.734061	31.350350
3008.970610	32.227273
3010.206966	36.342657
3011.443128	38.966434
3012.677576	43.898601
3013.911831	45.686014
3015.145893	50.244755
3016.378243	50.474126
3017.608881	52.708392
3018.842365	51.620979
3020.074138	48.558042
3021.304199	44.931469
3022.534069	39.574126
3023.762229	40.039860
3024.991716	42.293007
3026.219493	42.957343
3027.447079	45.674825
3028.675991	44.518182
3029.900161	43.939161
3031.127174	41.726573
3032.350964	39.592308
3033.576079	38.174825
3034.799488	34.862937
3036.022708	33.415385
3037.244222	31.374825
3038.468577	31.593007
3039.688197	32.620979
3040.909143	32.937063
3042.129899	34.594406
3043.348952	30.724476
3044.569331	29.995804
3045.786493	30.241259
3047.004980	30.648951
3048.221766	35.997203
3049.438363	38.323776
3050.654773	39.342657
3051.867969	42.140559
3053.084003	42.844056
3054.296825	44.641958
3055.512484	45.216084
3056.723420	48.616783
3057.935682	44.723776
3059.147756	44.114685
3060.359644	44.640559
3061.569834	40.044056
3062.779839	40.761538
3063.989657	39.758042
3065.197779	34.604196
3066.405715	37.005594
3067.611957	34.844755
3068.819523	35.144056
3070.025394	36.802797
3071.231080	43.257343
3072.436582	43.313986
3073.640390	46.647552
3074.845522	44.869930
3076.048961	40.415385
3077.250708	39.644755
3078.452272	40.018881
3079.653652	36.779720
3080.854848	39.883916
3082.054354	35.416084
3083.253676	36.554545
3084.454322	37.138462
3085.653279	41.874825
3086.849040	42.981119
3088.047631	45.881119
3089.243028	43.895804
3090.439749	41.191608
3091.633277	41.024476
3092.829633	41.697902
3094.024302	39.043357
3095.215781	40.095804
3096.411591	36.358042
3097.602708	36.639860
3098.795148	33.530769
3099.984399	35.442657
3101.176477	35.772028
3102.366871	38.752448
3103.554078	37.363636
3104.742609	37.681119
3105.932462	41.471329
3107.119130	42.483217
3108.305619	41.684615
3109.491928	39.868531
3110.679560	36.574126
3111.864009	35.851748
3113.046778	35.458042
3114.232371	37.455944
3115.416283	38.705594
3116.598517	42.168531
3117.780573	43.655944
3118.962450	47.153147
3120.144149	48.869231
3121.324171	49.956643
3122.502516	47.690210
3123.683681	46.130769
3124.861671	42.200699
3126.039484	38.830070
3127.217120	36.502098
3128.393081	36.630070
3129.568866	33.823776
3130.745971	35.376224
3131.921403	37.438462
3133.095161	40.537762
3134.267246	41.352448
3135.440652	39.227972
3136.613883	40.466434
3137.785442	41.775524
3138.958321	40.425175
3140.128033	39.081818
3141.299066	38.769231
3142.468428	37.907692
3143.636121	32.697203
3144.806629	35.545455
3145.972478	35.428671
3147.142637	36.351049
3148.308138	31.027273
3149.473466	28.395804
3150.638620	32.902098
3151.803601	35.075524
3152.969901	38.833566
3154.131548	41.002797
3155.294516	42.204196
3156.457311	43.686713
3157.619932	41.873427
3158.780889	45.418881
3159.941674	42.125175
3161.102286	39.700000
3162.261234	36.051049
3163.420010	40.929371
3164.578615	44.481818
3165.737048	43.629371
3166.895309	43.433566
3168.051909	43.370629
3169.206846	38.533566
3170.363104	37.078322
3171.517700	32.137063
3172.672126	32.230070
3173.824891	29.153846
3174.977487	28.312587
3176.129913	30.248252
3177.282168	36.444056
3178.434254	37.141958
3179.583193	35.393007
3180.734939	38.859441
3181.885028	41.114685
3183.033459	39.779021
3184.181722	40.483217
3185.329816	39.186014
3186.477741	39.830769
3187.624010	39.642657
3188.770111	37.013986
3189.914558	35.228671
3191.058836	33.859441
3192.202947	29.984615
3193.348376	28.637063
3194.490666	31.858741
3195.632788	31.776224
3196.774744	32.790909
3197.916532	32.099301
3199.058153	30.311189
3200.196638	32.525175
3201.336442	32.397902
3202.477562	29.469231
3203.615548	30.567133
3204.751885	30.855245
3205.888056	31.332168
3207.025545	33.793706
3208.161385	34.936364
3209.298542	35.183217
3210.431086	36.297203
3211.567911	35.355245
3212.700125	34.336364
3213.833657	37.791608
3214.967023	35.404196
3216.097262	33.569231
3217.230300	33.276224
3218.360210	31.618182
3219.491438	29.794406
3220.619540	29.149650
3221.750440	26.982517
3222.879695	29.598601
3224.007307	31.267133
3225.131796	33.419580
3226.260561	35.260140
3227.386204	36.281119
3228.511684	33.853846
3229.635523	35.619580
3230.762157	32.134965
3231.884192	31.602797
3233.007544	29.894406
3234.130734	30.513986
3235.253762	29.341958
3236.375150	30.136364
3237.496377	28.932867
3238.615965	28.856643
3239.735392	28.294406
3240.853182	26.969930
3241.973763	28.341259
3243.091231	34.026573
3244.208538	35.020280
3245.325684	39.669231
3246.441195	41.167832
3247.558021	42.107692
3248.671736	37.430070
3249.788242	34.100000
3250.903112	28.130769
3252.014874	24.370629
3253.126477	24.246154
3254.239395	25.970629
3255.352153	26.732867
3256.461805	32.825874
3257.572772	34.572028
3258.683580	35.672727
3259.792756	33.660140
3260.900301	31.882517
3262.009161	29.026573
3263.117862	30.285315
3264.223461	26.911189
3265.330375	25.810490
3266.435659	27.667133
3267.542257	28.319580
3268.645755	28.218881
3269.750567	33.056643
3270.855222	30.814685
3271.956779	30.072028
3273.058179	26.614685
3274.160893	28.480420
3275.263450	31.076923
3276.362912	34.936364
3277.465156	32.495105
3278.564306	31.600699
3279.661830	31.891608
3280.759200	30.376923
3281.859351	29.842657
3282.956409	29.965035
3284.053313	25.064336
3285.150061	25.660140
3286.242250	24.725175
3287.338689	26.689510
3288.433505	26.328671
3289.528166	27.848252
3290.621206	27.098601
3291.714092	28.876923
3292.805357	28.452448
3293.897935	28.820280
3294.988893	31.147552
3296.078231	29.486713
3297.167416	25.197902
3298.257913	26.316084
3299.345326	23.281119
3300.432587	23.537063
3301.521160	21.169231
3302.609580	22.186713
3303.693453	24.202098
3304.781568	25.416084
3305.866602	28.813287
3306.950020	34.960140
3308.034750	36.809790
3309.117864	36.059441
3310.202290	32.478322
3311.283638	31.591608
3312.366298	27.711189
3313.447344	27.896503
3314.528239	22.774825
3315.607521	22.544056
3316.686652	20.434266
3317.767095	20.598601
3318.844463	25.306294
3319.923143	29.337762
3321.000211	30.439860
3322.077129	29.480420
3323.152437	28.828671
3324.227595	29.134965
3325.304064	25.730769
3326.377462	27.743357
3327.450712	28.746853
3328.525273	29.737762
3329.598224	30.004895
3330.669568	35.925874
3331.742222	37.710490
3332.811809	37.843357
3333.882707	35.307692
3334.951998	33.338462
3336.022600	33.119580
3337.091595	28.916084
3338.158985	24.330769
3339.224768	24.960140
3340.294778	25.321678
3341.361725	23.555245
3342.425610	26.372727
3343.492263	29.468531
3344.557312	27.577622
3345.620757	25.526573
3346.684055	23.934965
3347.747208	25.861538
3348.810214	25.437063
3349.873073	25.602797
3350.934331	25.415385
3351.992532	27.053147
3353.054954	27.695804
3354.114319	28.149650
3355.173540	29.451748
3356.234069	30.097203
3357.290089	27.828671
3358.348874	25.474126
3359.403151	24.997203
3360.460192	28.774825
3361.515634	30.069930
3362.572385	30.103497
3363.627539	25.602098
3364.681095	29.347552
3365.733054	28.800699
3366.787776	31.476923
3367.839448	30.734965
3368.890976	31.489510
3369.943814	31.558042
3370.993604	29.641958
3372.044703	30.403497
3373.092755	30.757343
3374.143568	27.785315
3375.191335	25.737762
3376.238960	24.602797
3377.286443	28.667133
3378.332332	24.185315
3379.379531	26.166434
3380.423686	26.227972
3381.470600	26.914685
3382.515923	26.690909
3383.558204	27.712587
3384.600344	28.792308
3385.643793	27.646154
3386.687100	29.651748
3387.728817	30.750350
3388.770394	30.917483
3389.811829	30.701399
3390.851676	25.765734
3391.889934	28.334965
3392.929500	30.536364
3393.968926	29.849650
3395.006764	31.496503
3396.043015	33.851049
3397.079126	33.875524
3398.116545	34.846154
3399.150931	34.634965
3400.186625	29.943357
3401.222179	22.893007
3402.254701	23.085315
3403.289977	17.755944
3404.322222	21.319580
3405.354329	21.788112
3406.384853	23.658042
3407.416683	27.089510
3408.448375	31.267133
3409.477039	36.134266
3410.505566	41.618182
3411.535399	38.755944
3412.565095	35.290210
3413.591765	28.502797
3414.619741	30.790909
3415.644693	27.997902
3416.672396	29.974825
3417.697074	26.148252
3418.723059	29.890909
3419.747465	29.481119
3420.771733	33.644755
3421.794424	34.668531
3422.816978	37.786713
3423.840838	34.528671
3424.861678	35.138462
3425.882382	35.102098
3426.904392	34.557792
3427.923384	33.318482
3428.942241	31.197103
3429.962404	28.006593
3430.979549	23.559890
