-118.277064	-20.090659
-115.607463	-11.397802
-112.940798	-5.671429
-110.274885	-2.467133
-107.611905	-1.340509
-104.947494	-1.847153
-102.286014	-3.542657
-99.623105	-7.006993
-96.965303	-6.167832
-94.306070	-12.300699
-91.647586	-15.086713
-88.992027	-14.765035
-86.335039	-13.745455
-83.683148	-14.688112
-81.029828	-9.647552
-78.379427	-11.004196
-75.727598	-9.334266
-73.080859	-10.198601
-70.432690	-5.724476
-67.785265	-7.827972
-65.140753	-5.846154
-62.494812	-7.372028
-59.853954	-4.205594
-57.211665	-0.152448
-54.572286	2.872727
-51.931478	2.570629
-49.291409	2.918881
-46.656414	-2.065734
-44.019989	-0.334266
-41.386468	-0.611189
-38.751517	-0.671329
-36.121633	-3.939860
-33.488155	0.939860
-30.859740	-1.132867
-28.232059	-0.439161
-25.602950	-3.205594
-22.978897	-25.569231
-20.351254	-85.455944
-17.728666	-182.493706
-15.106808	-143.934266
-12.485681	250.517483
-9.865285	915.197203
-7.247776	1466.048951
-4.628839	1841.811189
-2.012788	2045.909091
0.602536	2070.951049
3.217131	1926.229371
5.828845	1603.275524
8.441986	1125.025175
11.050095	539.286713
13.661784	-13.370629
16.268443	-292.826573
18.876530	-216.763636
21.483893	-29.727273
24.086231	-4.000000
26.692147	-5.290909
29.293042	-2.537063
31.895364	-1.097902
34.492668	-1.100699
37.093548	-5.538462
39.689414	-5.423776
42.286707	-12.383217
44.883281	-9.365035
47.474846	-12.489510
50.067839	-12.737063
52.657972	-11.921678
55.249531	-13.339860
57.838231	-11.639161
60.428359	-11.700699
63.013487	-10.447552
65.600043	-9.784615
68.185884	-11.299301
70.768872	-9.355245
73.353287	-7.657343
75.930572	-3.937063
78.511424	-3.916084
81.089427	1.018182
83.666720	-3.907692
86.245440	-1.247552
88.819177	-1.846154
91.394341	-5.324476
93.966662	-5.232168
96.538276	-5.848951
99.107049	-10.688112
101.677249	-8.278322
104.244610	-9.148252
106.813398	-7.468531
109.379349	-3.237762
111.942464	-3.906294
114.509137	-7.356643
117.066587	-0.695105
119.629723	1.478322
122.187900	4.776224
124.749631	8.590210
127.306405	18.475524
129.864605	31.781818
132.417853	54.395804
134.970402	73.521678
137.526503	101.558042
140.077655	127.387413
142.628110	151.565035
145.177867	172.902098
147.724805	191.725874
150.271048	207.074126
152.818716	215.514685
155.365688	216.050350
157.907724	220.572028
160.449068	224.097902
162.989718	226.518881
165.531793	226.004196
168.071058	225.939860
170.607513	223.780420
173.143278	219.967832
175.680468	215.237762
178.216967	215.166434
180.750660	212.581818
183.281549	210.889510
185.811750	206.766434
188.343376	207.639161
190.872202	208.485315
193.398228	207.531469
195.923568	206.525874
198.450333	205.023776
200.974302	204.316084
203.497585	208.857343
206.020184	211.932867
208.539990	212.636364
211.059113	213.956643
213.577553	215.334266
216.097418	215.779021
218.610280	221.499301
221.126674	223.704895
223.642387	224.137063
226.153209	222.093706
228.665456	226.381818
231.174920	223.825175
233.683706	225.597203
236.191814	222.430769
238.701346	219.356643
241.205997	218.510490
243.709972	213.604196
246.215371	212.895105
248.715895	215.613986
251.219942	216.611189
253.717019	219.323077
256.217618	220.011189
258.715446	227.393007
261.212601	225.016783
263.709084	228.137063
266.200703	228.219580
268.695841	228.213986
271.188214	227.174825
273.679916	227.857343
276.168855	232.758042
278.659217	234.611189
281.146818	237.921678
283.631659	238.770629
286.120014	237.991608
288.601431	239.351049
291.086361	235.197203
293.566445	236.427972
296.050042	230.299301
298.528797	223.502098
301.008974	223.651748
303.486400	225.426573
305.963162	230.342657
308.439260	240.535664
310.912610	250.974825
313.385299	260.906294
315.857326	271.130070
318.328691	285.760839
320.797313	289.118881
323.265275	292.723077
325.734660	287.332867
328.199222	279.790210
330.667287	274.657343
333.130533	263.275524
335.593122	252.826573
338.055053	252.234965
340.516328	249.432168
342.974869	246.972028
345.434832	250.660140
347.892063	253.906294
350.348639	258.219580
352.804560	260.437762
355.257753	260.397203
357.712368	258.798601
360.162181	257.697902
362.615490	252.669930
365.064000	246.525874
367.511860	246.581818
369.961141	241.793007
372.405629	240.689510
374.851539	242.121678
377.296800	243.269930
379.739342	250.146853
382.181236	249.654545
384.622482	247.918881
387.061013	247.888112
389.500966	251.309091
391.938205	252.686713
394.372732	251.959441
396.810747	253.637762
399.243985	250.085315
401.678645	256.758042
404.108532	257.346853
406.541904	260.246154
408.970506	260.495105
411.398466	257.660140
413.827847	251.471329
416.252464	250.000000
418.678501	250.195804
421.103899	251.881119
423.528656	247.406993
425.948654	246.134266
428.370074	246.646154
430.788797	254.004196
433.208941	253.271329
435.626390	256.023776
438.045259	255.962238
440.461435	254.453147
442.872864	253.244755
445.287769	255.809790
447.699984	255.205594
450.111565	255.328671
452.522513	247.861538
454.930773	245.532867
457.338402	244.202797
459.745398	245.054545
462.151762	243.344056
464.555445	245.500699
466.958497	245.103497
469.360919	247.262937
471.762711	246.360839
474.161825	246.433566
476.562359	240.991608
478.962264	239.145455
481.357447	242.002797
483.756095	241.734266
486.150024	238.956643
488.543327	238.911888
490.936004	234.991608
493.328056	233.935664
495.721527	224.053147
498.110285	217.916084
500.496377	211.839161
502.883889	202.476923
505.270777	190.212587
507.655002	190.197203
510.040646	192.072727
512.423627	189.420979
514.803948	185.714685
517.185688	185.346853
519.564770	182.041958
521.945269	182.365035
524.323111	178.668531
526.698298	179.653147
529.072867	180.544056
531.448855	179.633566
533.822189	174.720280
536.196942	181.460140
538.567008	182.906294
540.936459	183.699301
543.307329	183.317483
545.673517	182.879720
548.041124	178.924476
550.406085	177.334266
552.770434	174.503497
555.134169	170.690909
557.499322	171.139860
559.859803	168.124476
562.221701	161.921678
564.580960	163.416783
566.937580	160.590210
569.297646	160.609790
571.651020	163.262937
574.007839	166.696503
576.362023	167.090909
578.715598	168.476923
581.068565	166.605594
583.418901	170.104895
585.770654	170.341259
588.115729	164.008392
590.466269	161.875524
592.810136	159.651748
595.159464	156.387413
597.504143	156.176224
599.846198	157.332867
602.189670	158.032168
604.530519	160.674126
606.870765	166.179021
609.208391	164.752448
611.549452	171.040559
613.885876	169.822378
616.223716	172.840559
618.558938	172.447552
620.891545	170.569231
623.225569	165.634965
625.556978	162.118881
627.887789	158.093706
630.218002	155.869930
632.547618	154.556643
634.872610	153.902098
637.203044	148.453147
639.528856	149.306294
641.852062	146.625175
644.176684	150.005594
646.498700	147.969231
648.820122	150.181818
651.138941	149.643357
653.459176	152.275524
655.778818	154.200000
658.095859	156.897902
660.412309	153.376224
662.726160	154.177622
665.041426	153.809790
667.354096	155.295105
669.668181	153.506294
671.977667	151.503497
674.288567	146.172028
676.596875	144.053147
678.904595	144.381818
681.213730	146.916084
683.518272	144.724476
685.822228	143.029371
688.125597	138.800000
690.430381	140.753846
692.730579	144.095105
695.032192	146.513287
697.333219	146.289510
699.629665	146.710490
701.927525	147.711888
704.224803	149.071329
706.521496	152.847552
708.813614	154.453147
711.109143	151.633566
713.400099	151.148252
715.692469	145.248951
717.982263	144.723077
720.271478	144.608392
722.560113	146.657343
724.846175	145.541259
727.133651	148.153846
729.418557	147.570629
731.702884	149.075524
733.984644	152.172028
736.267817	153.650350
738.550413	155.381818
740.828453	153.823776
743.107907	151.282517
745.386786	151.160839
747.665090	149.081119
749.938843	147.917483
752.214011	142.260140
754.488605	139.337063
756.760640	136.062937
759.034088	137.193007
761.304978	139.036364
763.573312	142.125874
765.843059	145.829371
768.110251	146.906294
770.376873	152.420979
772.642926	158.165035
774.906427	159.560839
777.171340	160.693706
779.435685	156.027972
781.695499	153.832168
783.956727	153.882517
786.217387	154.819580
788.475500	154.100699
790.731070	153.090909
792.990029	148.615385
795.242490	148.541259
797.500318	149.916084
799.753627	157.609790
802.004395	154.745455
804.256576	157.521678
806.506219	154.169231
808.757273	157.107692
811.003816	154.844755
813.251772	158.341259
815.497192	157.700699
817.744025	155.351049
819.990295	152.593007
822.232062	156.832168
824.477211	157.019580
826.715888	161.328671
828.957948	158.739860
831.195509	160.876923
833.434481	155.620979
835.670928	153.542657
837.908785	150.004196
840.144117	152.588811
842.376925	151.741259
844.611145	148.218182
846.842843	150.874126
849.073986	146.254545
851.304574	144.885315
853.534608	145.794406
855.764087	142.899301
857.989086	143.583217
860.217458	141.036364
862.441352	143.714685
864.666656	148.034965
866.887485	155.173427
869.111687	157.089510
871.331415	154.534266
873.552553	152.570629
875.773141	147.732867
877.991220	151.537063
880.210708	152.549650
882.425730	150.162238
884.640204	157.699301
886.854131	152.879720
889.067510	153.321678
891.280343	154.647552
893.492628	156.338462
895.702412	150.739860
897.911650	145.060140
900.120342	139.969231
902.326536	145.439161
904.534139	146.528671
906.739245	148.643357
908.943807	150.851748
911.145874	157.323077
913.349350	156.204196
915.550332	159.106294
917.750772	160.411189
919.952621	164.240559
922.148079	164.618182
924.346895	160.096503
926.541274	159.535664
928.739010	162.159441
930.932310	164.606993
933.127018	161.041958
935.319241	159.632168
937.510926	156.702098
939.702073	156.809790
941.890737	156.220979
944.078864	155.453147
946.264511	159.258741
948.453511	161.086713
950.638086	164.930070
952.822127	166.832168
955.009518	171.808392
957.188606	179.920280
959.371044	185.131469
961.552947	192.082517
963.732377	190.737063
965.909334	184.446154
968.087699	182.334266
970.267470	175.376224
972.440893	175.339860
974.617663	168.437762
976.790025	165.688112
978.963795	161.734266
981.133161	163.163636
983.305871	172.503497
985.476115	182.169231
987.645831	187.833566
989.815018	194.092308
991.979808	188.981818
994.147940	191.272727
996.311676	185.342657
998.476820	187.774825
1000.639504	181.479720
1002.801663	186.493706
1004.961364	186.510490
1007.120542	187.047552
1009.281126	199.724476
1011.439255	207.492308
1013.596860	214.546853
1015.753942	224.205594
1017.910501	217.890909
1020.062680	211.029371
1022.216266	205.934266
1024.369330	208.153846
1026.519945	197.148252
1028.671966	194.416783
1030.819615	181.818182
1032.970594	184.352448
1035.117204	208.987413
1037.263294	217.646154
1039.408866	226.609790
1041.555842	236.853147
1043.696531	235.352448
1045.840548	233.412587
1047.982126	235.083916
1050.123186	234.772028
1052.265651	225.939860
1054.401837	212.195804
1056.541349	204.065734
1058.676505	207.137063
1060.814986	214.283916
1062.949114	212.980420
1065.082728	216.299301
1067.217746	212.167832
1069.348415	205.615385
1071.480490	208.689510
1073.610134	207.639161
1075.739267	204.542657
1077.867889	202.840559
1079.995999	194.970629
1082.121683	203.906294
1084.246857	201.286713
1086.373434	199.744056
1088.495675	207.900699
1090.619320	200.837762
1092.738630	196.158042
1094.863169	187.661538
1096.981464	190.341259
1099.101162	184.634965
1101.218442	177.088112
1103.335216	177.471329
1105.451483	183.489510
1107.565335	193.843357
1109.680590	195.041958
1111.791523	198.302098
1113.905768	200.981818
1116.015692	194.177622
1118.127019	192.265734
1120.237843	182.583217
1122.344350	184.394406
1124.454166	181.965035
1126.559668	176.393007
1128.666574	173.034965
1130.767264	177.616783
1132.873165	182.805594
1134.974758	188.541259
1137.077754	189.026573
1139.180249	199.492308
1141.276538	199.283916
1143.378033	202.237762
1145.475226	200.601399
1147.571920	203.481119
1149.668117	200.502098
1151.763815	201.583217
1153.859016	195.595804
1155.951820	199.460140
1158.046026	199.370629
1160.134041	204.001399
1162.227254	199.727273
1164.314279	207.061538
1166.404604	199.465734
1168.490640	197.711888
1170.579974	196.598601
1172.663127	194.423776
1174.747683	193.657343
1176.833639	200.881119
1178.915315	199.868531
1180.998391	206.911888
1183.079082	207.565035
1185.159282	213.275524
1187.238990	207.650350
1189.318207	212.311888
1191.395041	211.278322
1193.469495	213.037762
1195.547241	214.598601
1197.620716	211.036364
1199.695593	213.156643
1201.766202	213.834965
1203.838212	214.001399
1205.907846	215.005594
1207.978881	215.116084
1210.049428	218.215385
1212.115715	214.251748
1214.183401	218.878322
1216.248716	212.455944
1218.315431	211.888112
1220.377890	209.269930
1222.443635	213.710490
1224.505125	213.846154
1226.568015	214.716084
1228.628538	218.086713
1230.688578	223.590210
1232.748134	227.539860
1234.805326	229.117483
1236.862035	225.025175
1238.916382	226.222378
1240.974009	222.086713
1243.029274	226.092308
1245.080298	226.841958
1247.132723	231.316084
1249.184667	232.018182
1251.234253	231.920280
1253.283360	235.036364
1255.331988	236.212587
1257.380138	242.332867
1259.427810	247.475524
1261.471251	243.170629
1263.517967	246.678322
1265.562331	247.478322
1267.606217	247.650350
1269.647753	248.323077
1271.686939	250.194406
1273.729397	248.805594
1275.767634	246.744056
1277.807268	245.155245
1279.846428	243.197203
1281.881370	251.506294
1283.917710	258.488112
1285.951705	256.735664
1287.987099	261.686713
1290.018279	266.162238
1292.050858	270.573427
1294.082964	274.808392
1296.112730	278.089510
1298.143894	278.057343
1300.170850	284.198601
1302.199204	281.868531
1304.223354	282.093706
1306.250769	284.016783
1308.273981	293.709091
1310.298591	293.176224
1312.320866	302.853147
1314.344539	309.419580
1316.365879	312.208392
1318.386752	307.674126
1320.407157	311.952448
1322.423369	311.034965
1324.440978	313.646154
1326.456259	310.657343
1328.474799	314.240559
1330.489149	315.786014
1332.501174	327.113287
1334.516457	331.269930
1336.527554	346.664336
1338.540047	347.909091
1340.548358	349.394406
1342.559925	349.443357
1344.565453	354.739860
1346.574235	352.325874
1348.578841	352.166434
1350.586700	349.095105
1352.594097	349.609790
1354.595462	342.717483
1356.598225	342.076923
1358.600528	338.027972
1360.602370	332.806993
1362.603754	324.517483
1364.602823	319.700699
1366.601434	314.584615
1368.599587	310.854545
1370.597282	302.960839
1372.590813	295.808392
1374.585741	293.173427
1376.580212	288.709091
1378.574226	283.386014
1380.565933	284.834965
1382.557184	280.179021
1384.546130	282.903497
1386.536471	286.900699
1388.526357	287.816783
1390.513940	286.695105
1392.501069	289.572028
1394.485896	284.910490
1396.472118	282.776224
1398.456039	283.142657
1400.439508	277.100699
1402.422525	274.181818
1404.403244	272.627972
1406.385357	268.251748
1408.365173	275.836364
1410.344539	274.262937
1412.319766	271.977622
1414.298231	271.935664
1416.274403	270.151049
1418.250125	268.258741
1420.225398	269.316084
1422.198381	265.590210
1424.170915	261.413986
1426.143001	258.204196
1428.114639	254.081119
1430.082150	254.120280
1432.054734	250.993007
1434.019512	246.690909
1435.989363	246.362238
1437.955089	243.011189
1439.922209	242.278322
1441.887045	247.303497
1443.847761	251.976224
1445.813545	248.553846
1447.773374	249.190210
1449.734596	246.173427
1451.697211	248.702098
1453.655711	249.734266
1455.613769	247.892308
1457.571384	251.065734
1459.528558	255.363636
1461.483456	257.104895
1463.439746	262.318881
1465.393762	262.282517
1467.347338	262.104895
1469.298641	258.604196
1471.251336	257.191608
1473.201760	256.041958
1475.151745	261.567832
1477.101291	258.686713
1479.048567	262.690909
1480.993577	262.053147
1482.939979	269.667133
1484.885943	268.523077
1486.831470	269.903497
1488.774731	272.497902
1490.717556	270.240559
1492.658118	268.869930
1494.600072	268.334266
1496.539763	263.074126
1498.479019	262.609790
1500.417841	259.973427
1502.354403	258.702098
1504.292355	255.149650
1506.228050	263.716084
1508.163311	263.731469
1510.096315	267.107692
1512.028887	272.239161
1513.961027	268.851748
1515.892735	269.600000
1517.822190	270.240559
1519.753034	263.521678
1521.683448	264.479720
1523.609789	263.227972
1525.537520	267.309091
1527.463001	276.597203
1529.388053	285.071329
1531.312676	289.640559
1533.236870	294.988811
1535.158817	302.408392
1537.082153	305.295105
1539.003244	315.858741
1540.922090	324.188811
1542.842326	325.889510
1544.760318	328.194406
1546.677884	333.212587
1548.593209	346.876923
1550.509922	365.579021
1552.422581	380.974825
1554.338444	409.620979
1556.252068	447.742657
1558.163453	487.013986
1560.076227	537.720280
1561.984953	602.534266
1563.895067	680.170629
1565.804758	761.556643
1567.714026	848.272727
1569.621059	923.206993
1571.525860	984.963636
1573.432050	1019.460140
1575.336009	1015.109091
1577.239546	993.542657
1579.142662	933.342657
1581.043550	854.857343
1582.945826	765.586014
1584.845873	682.718881
1586.747309	614.001399
1588.644710	553.394406
1590.541694	506.980420
1592.438259	472.289510
1594.336211	446.037762
1596.228329	422.451748
1598.123641	408.883916
1600.018534	404.300699
1601.911207	392.727273
1603.803462	389.000000
1605.693498	384.976224
1607.583118	382.377622
1609.472323	379.488112
1611.361112	369.239161
1613.247685	358.874126
1615.135645	351.658741
1617.019588	339.111888
1618.904918	332.373427
1620.789835	327.212587
1622.672538	320.423776
1624.556628	313.692308
1626.436706	300.152448
1628.318171	289.363636
1630.197426	280.841958
1632.078067	275.569231
1633.952905	264.071329
1635.832723	260.888112
1637.708536	253.903497
1639.583940	251.303497
1641.460729	240.963636
1643.331721	231.255944
1645.205896	222.744056
1647.076071	215.622378
1648.949427	205.128671
1650.820580	200.458741
1652.689531	192.172028
1654.559868	184.990210
1656.426211	183.559441
1658.293941	188.123077
1660.159471	191.534266
1662.026386	192.671329
1663.889313	186.172028
1665.753625	192.254545
1667.615742	201.495105
1669.477453	213.615385
1671.340549	219.539860
1673.201451	221.857343
1675.060159	219.033566
1676.918465	219.765035
1678.778154	216.388811
1680.632077	207.289510
1682.489173	191.816783
1684.345865	179.569231
1686.198582	175.651748
1688.054470	175.692308
1689.906384	177.549650
1691.757897	178.504895
1693.609009	186.928671
1695.459720	191.356643
1697.310031	194.047552
1699.158158	194.710490
1701.007668	192.257343
1702.851430	185.910490
1704.700142	179.798601
1706.543107	185.370629
1708.389238	184.587413
1710.231408	180.474126
1712.076742	178.956643
1713.916336	181.832168
1715.757314	188.490909
1717.599676	183.076923
1719.438080	177.525874
1721.277868	183.737063
1723.115481	188.193007
1724.952698	185.358042
1726.787742	194.296503
1728.624169	199.004196
1730.458424	188.295105
1732.292285	181.346853
1734.125751	174.289510
1735.955271	172.138462
1737.787950	162.595804
1739.616685	157.212587
1741.448578	153.137063
1743.276528	152.510490
1745.104086	145.458741
1746.931253	141.360839
1748.758028	153.302098
1750.584411	148.341259
1752.406858	145.167832
1754.232459	155.318881
1756.054126	155.660140
1757.877175	155.928671
1759.698063	158.131469
1761.518561	155.158042
1763.340441	149.374825
1765.156621	144.121678
1766.975953	143.805594
1768.791358	138.102098
1770.609914	137.005594
1772.424544	133.023776
1774.238787	141.241958
1776.052644	149.307692
1777.866114	147.972028
1779.677430	146.706294
1781.490128	153.685315
1783.302439	139.988811
1785.110833	140.781818
1786.920608	144.367832
1788.726467	146.580420
1790.535473	141.798601
1792.340565	140.429371
1794.147037	144.423776
1795.953126	145.186014
1797.755305	155.033566
1799.560627	158.749650
1801.362041	157.751049
1803.164835	159.290909
1804.963724	153.395804
1806.763992	154.114685
1808.563880	154.071329
1810.361625	151.075524
1812.158990	148.702098
1813.955974	139.756643
1815.752578	132.454545
1817.547043	127.408392
1819.342888	139.851748
1821.133077	139.184615
1822.928163	136.538462
1824.717596	132.658741
1826.510167	138.102098
1828.300602	139.840559
1830.088902	146.469930
1831.880338	153.469930
1833.666129	153.956643
1835.453298	148.213986
1837.238337	151.100699
1839.026508	154.506294
1840.810794	164.325874
1842.592951	156.286713
1844.376487	149.461538
1846.157894	149.044755
1847.940679	155.766434
1849.719585	151.834965
1851.499869	160.029371
1853.278028	160.833566
1855.057564	156.297902
1856.834976	154.766434
1858.610264	160.337063
1860.386931	152.423776
1862.161475	151.657343
1863.937396	145.667133
1865.707698	149.509091
1867.481127	148.959441
1869.252436	145.468531
1871.023374	139.948252
1872.795689	146.469930
1874.562392	140.886713
1876.332219	138.921678
1878.098183	145.518881
1879.867271	146.205594
1881.632497	143.604196
1883.397355	145.952448
1885.163589	146.113287
1886.925965	150.289510
1888.687974	145.046154
1890.449616	140.751049
1892.210890	146.229371
1893.971798	144.758042
1895.732338	143.549650
1897.490770	141.068531
1899.248835	140.451748
1901.004793	137.488112
1902.762127	137.664336
1904.519095	135.344056
1906.273958	135.552448
1908.026715	138.096503
1909.779109	139.760839
1911.532879	143.461538
1913.284545	151.967832
1915.034108	150.739860
1916.785048	155.089510
1918.535624	156.620979
1920.282362	151.864336
1922.030475	148.317483
1923.776489	144.949650
1925.523879	142.331469
1927.269170	134.186014
1929.012364	126.423776
1930.756934	126.176224
1932.499407	118.538462
1934.241520	115.644755
1935.983274	117.327273
1937.724667	122.055944
1939.463967	126.359441
1941.202908	123.959441
1942.941490	120.155245
1944.677980	124.110490
1946.414113	123.544056
1948.151620	111.405594
1949.885306	114.699301
1951.620366	120.773427
1953.353337	115.324476
1955.085952	121.766434
1956.818210	133.706294
1958.550112	140.580420
1960.279928	143.990210
1962.007660	147.104895
1963.736766	146.885315
1965.465516	146.144056
1967.192183	146.832168
1968.918496	141.393007
1970.646182	145.097902
1972.368333	144.005594
1974.093584	143.865734
1975.815028	150.005594
1977.539572	155.205594
1979.262037	153.676923
1980.980698	151.605594
1982.702458	150.001399
1984.420416	150.011189
1986.139748	147.257343
1987.855279	150.215385
1989.575632	142.134266
1991.292186	142.577622
1993.004943	141.834965
1994.720796	145.065734
1996.434577	146.731469
1998.148008	148.734266
1999.859367	149.120280
2001.572100	145.173427
2003.281041	144.331469
2004.993076	145.955245
2006.699601	136.302098
2008.409219	132.323077
2010.116769	127.197203
2011.823972	130.958042
2013.529109	126.369231
2015.233899	128.622378
2016.940061	134.109091
2018.642441	140.753846
2020.346193	144.920280
2022.047882	146.696503
2023.749225	150.005594
2025.450223	147.591608
2027.149161	140.541259
2028.849470	140.910490
2030.546003	142.921678
2032.243908	148.516084
2033.939755	154.283916
2035.638687	159.700699
2037.332133	166.360839
2039.026950	172.608392
2040.721424	173.565035
2042.412130	171.888112
2044.105920	164.772028
2045.795943	153.148252
2047.487337	150.711888
2049.176678	146.181818
2050.867389	144.061538
2052.554338	146.260140
2054.240946	147.068531
2055.928925	146.089510
2057.613144	142.763636
2059.298733	143.520280
2060.983983	139.521678
2062.667185	133.648951
2064.351757	131.594406
2066.030865	131.194406
2067.714759	137.490909
2069.393193	134.569231
2071.074704	138.541259
2072.752463	140.497902
2074.429886	142.609790
2076.108678	146.166434
2077.785427	143.490909
2079.460135	147.120280
2081.136212	137.952448
2082.810249	136.107692
2084.483950	139.986014
2086.157316	141.774825
2087.828644	141.180420
2089.499637	140.601399
2091.170296	140.840559
2092.840621	136.507692
2094.510611	134.146853
2096.178566	133.241958
2097.846188	130.370629
2099.511776	133.144056
2101.178732	127.826573
2102.843655	133.506294
2104.508245	135.633566
2106.170804	141.432168
2107.834732	137.490909
2109.496628	137.766434
2111.158193	138.606993
2112.819428	140.362238
2114.478633	140.099301
2116.137509	143.569231
2117.796054	144.497902
2119.454270	147.404196
2121.108763	142.537063
2122.766320	141.272727
2124.423547	143.661538
2126.077054	143.156643
2127.731928	134.709091
2129.383083	134.372028
2131.037301	137.395804
2132.687801	140.668531
2134.339669	142.731469
2135.986128	148.923077
2137.637341	148.348252
2139.284842	146.146853
2140.933709	143.145455
2142.580557	139.593007
2144.227080	141.376224
2145.873277	134.948252
2147.515765	130.353846
2149.161312	123.135664
2150.803152	118.767832
2152.448049	122.001399
2154.089241	127.236364
2155.730109	131.767832
2157.370654	131.559441
2159.009186	133.853147
2160.649084	134.272727
2162.285282	133.907692
2163.922846	133.706294
2165.560088	131.744056
2167.195320	131.524476
2168.830230	129.412587
2170.464819	132.606993
2172.099087	137.827972
2173.729661	141.513287
2175.363286	142.269930
2176.993220	143.255944
2178.624520	147.120280
2180.253814	145.518881
2181.882789	149.124476
2183.511444	146.415385
2185.139780	148.295105
2186.766113	152.721678
2188.392128	156.745455
2190.016142	156.765035
2191.641521	156.559441
2193.264899	154.415385
2194.889642	151.504895
2196.510703	151.997203
2198.131449	147.709091
2199.753558	141.253147
2201.373670	140.365035
2202.991786	137.551049
2204.609586	139.011189
2206.227070	136.425175
2207.844239	134.987413
2209.461093	128.387413
2211.077632	127.521678
2212.692177	125.015385
2214.304731	124.497902
2215.918648	132.041958
2217.530573	124.479720
2219.143863	124.423776
2220.755161	126.772028
2222.364471	131.086713
2223.975143	134.848951
2225.583827	133.979021
2227.192199	138.988811
2228.798583	140.616783
2230.406331	146.822378
2232.012092	149.562238
2233.617543	152.338462
2235.221008	154.756643
2236.825836	149.563636
2238.428680	145.809790
2240.029541	139.739860
2241.631765	135.837762
2243.232007	132.212587
2244.833611	131.685315
2246.431562	134.868531
2248.030876	136.871329
2249.628210	139.032168
2251.225236	136.004196
2252.823623	136.699301
2254.418362	134.993007
2256.011125	136.793007
2257.605249	132.040559
2259.200736	126.823776
2260.792577	129.709091
2262.384112	131.562238
2263.977008	133.268531
2265.564595	134.534266
2267.156879	135.209790
2268.743855	134.693706
2270.333860	134.408392
2271.918560	138.159441
2273.507954	141.131469
2275.092045	146.973427
2276.677498	141.497902
2278.260982	139.064336
2279.847491	143.493706
2281.430367	142.372028
2283.012939	136.620979
2284.595209	131.029371
2286.173848	127.805594
2287.755512	130.313287
2289.333547	132.532867
2290.914605	135.209790
2292.492036	138.187413
2294.067504	137.213986
2295.645994	130.995804
2297.220859	128.871329
2298.795425	126.060140
2300.369689	121.444755
2301.943653	113.623776
2303.517317	114.766434
2305.090680	117.458741
2306.660425	121.379021
2308.229871	120.391608
2309.802336	121.718881
2311.369526	121.770629
2312.939733	128.440559
2314.506327	131.909091
2316.074279	135.132867
2317.640277	134.106294
2319.205977	137.791608
2320.771379	146.925874
2322.334828	156.020979
2323.899636	161.854545
2325.460835	160.600000
2327.025049	154.924476
2328.584002	151.809790
2330.145968	144.816783
2331.705984	139.297902
2333.265704	131.379021
2334.823475	127.510490
2336.380952	127.542657
2337.938133	134.598601
2339.493368	143.198601
2341.048308	147.356643
2342.602955	147.386014
2344.157308	140.118881
2345.711367	131.609790
2347.265133	125.496503
2348.816954	119.825175
2350.366832	107.162238
2351.919718	106.285315
2353.467362	106.183217
2355.018013	118.608392
2356.565074	121.314685
2358.113492	130.626573
2359.661618	136.749650
2361.206157	135.293706
2362.752053	135.629371
2364.296010	133.717483
2365.841325	141.071329
2367.383055	141.990210
2368.926143	140.812587
2370.467294	142.556643
2372.008156	140.440559
2373.548729	136.134266
2375.089013	133.144056
2376.629008	135.457343
2378.165424	135.853147
2379.704842	135.552448
2381.240683	137.569231
2382.777880	143.668531
2384.311503	146.426573
2385.848125	152.569231
2387.382817	154.588811
2388.915578	150.096503
2390.448054	146.488112
2391.978601	133.054545
2393.512146	130.444755
2395.040480	120.517483
2396.570170	119.454545
2398.099575	122.093706
2399.628695	132.053147
2401.157529	137.889510
2402.681159	145.295105
2404.209424	157.707692
2405.732486	162.488112
2407.260183	169.018182
2408.781039	171.495105
2410.306529	162.965035
2411.828459	158.204196
2413.351743	145.738462
2414.873107	146.988811
2416.392551	141.735664
2417.913350	144.881119
2419.432230	145.420979
2420.950828	153.970629
2422.467509	166.426573
2423.985545	175.710490
2425.503299	176.783217
2427.017501	173.608392
2428.531423	166.419580
2430.045066	165.176224
2431.560062	156.984615
2433.071511	155.282517
2434.584313	143.913287
2436.095203	147.233566
2437.605813	151.395804
2439.114512	158.639161
2440.626198	168.359441
2442.134340	164.790210
2443.642203	158.690909
2445.149789	154.029371
2446.653835	152.871329
2448.160865	155.026573
2449.665987	155.770629
2451.170832	160.699301
2452.673770	158.439161
2454.176431	164.462937
2455.678816	167.132867
2457.179296	164.022378
2458.681129	161.032168
2460.181058	154.458741
2461.680711	144.668531
2463.180089	138.055944
2464.677564	130.116084
2466.173137	127.476923
2467.671690	123.907692
2469.166715	129.735664
2470.663092	125.488112
2472.155943	134.911888
2473.650146	139.734266
2475.144077	139.180420
2476.634483	140.433566
2478.127867	142.686713
2479.619353	136.834965
2481.108942	139.464336
2482.598259	144.979021
2484.085680	150.906294
2485.576077	152.012587
2487.062955	159.667133
2488.551186	153.137063
2490.035899	155.226573
2491.520342	149.057343
2493.006137	143.151049
2494.490039	137.190210
2495.975293	133.883916
2497.455413	127.885315
2498.938505	135.170629
2500.419708	141.257343
2501.900640	151.495105
2503.379684	163.153846
2504.858460	162.239161
2506.336967	161.146853
2507.815205	162.896503
2509.293176	165.825175
2510.767641	162.791608
2512.245075	145.205594
2513.719006	139.135664
2515.194288	132.243357
2516.669302	116.316084
2518.140815	113.618182
2519.613679	119.517483
2521.084660	123.944056
2522.556991	127.565035
2524.024208	143.285315
2525.494392	158.572028
2526.962694	170.188811
2528.430732	174.503497
2529.898505	171.527273
2531.366013	169.618182
2532.833257	151.855944
2534.297008	134.830769
2535.762109	132.255944
2537.225333	119.794406
2538.689906	115.871329
2540.150991	121.223776
2541.613425	125.925874
2543.075596	133.959441
2544.534280	141.636364
2545.997537	156.139860
2547.455697	156.888112
2548.915206	147.559441
2550.369622	137.650350
2551.828608	135.040559
2553.285721	127.769231
2554.740964	124.384615
2556.195946	124.781818
2557.649058	127.714685
2559.103519	130.462937
2560.556111	135.311888
2562.008443	138.741259
2563.458907	144.555245
2564.912327	144.335664
2566.360665	139.089510
2567.811959	142.040559
2569.261386	141.092308
2570.707342	145.965035
2572.156252	146.365035
2573.601691	142.935664
2575.048479	152.184615
2576.493403	156.198601
2577.938070	157.885315
2579.384084	156.818182
2580.826631	154.788811
2582.270526	150.941259
2583.710956	149.188811
2585.152734	147.206993
2586.592652	149.370629
2588.033917	152.293706
2589.471720	149.281119
2590.912473	154.737063
2592.348163	157.795804
2593.786803	152.944056
2595.223586	159.651748
2596.658512	154.023776
2598.096387	145.046154
2599.529204	138.057343
2600.963368	139.902098
2602.395677	143.453147
2603.829334	154.188811
2605.261136	161.780420
2606.692686	165.317483
2608.123982	168.514685
2609.553427	164.064336
2610.982619	167.594406
2612.409960	168.006993
2613.838648	157.020979
2615.267083	153.283916
2616.692072	149.871329
2618.118406	150.285315
2619.542892	159.883916
2620.968724	168.847552
2622.391112	176.576224
2623.814846	175.179021
2625.236734	174.111888
2626.658371	174.323077
2628.078164	173.949650
2629.499301	169.216783
2630.920189	173.937063
2632.337639	181.121678
2633.758028	181.135664
2635.174980	186.745455
2636.591684	197.728671
2638.008139	207.068531
2639.424346	211.823776
2640.840304	206.914685
2642.254422	203.573427
2643.668293	207.460140
2645.080324	205.327273
2646.493700	209.995804
2647.903646	213.057343
2649.316528	218.896503
2650.725981	223.765035
2652.135188	231.657343
2653.542559	241.232168
2654.952864	243.987413
2656.361333	247.716084
2657.767967	240.206993
2659.174356	239.630769
2660.578911	236.309091
2661.984810	234.762238
2663.388876	234.851748
2664.792698	235.735664
2666.196275	245.346853
2667.598021	252.046154
2669.001110	260.353846
2670.400781	269.426573
2671.801796	272.804196
2673.199395	278.660140
2674.599923	281.867133
2675.997037	285.513287
2677.395494	286.625175
2678.792123	287.111888
2680.188511	286.197203
2681.584656	285.258741
2682.978975	292.072727
2684.374637	291.193007
2685.766889	289.023776
2687.160485	290.314685
2688.552256	296.181818
2689.945369	304.187413
2691.336659	313.881119
2692.726126	314.234965
2694.115354	316.039161
2695.504341	313.539860
2696.894671	318.793007
2698.280016	320.549650
2699.668286	327.195804
2701.054735	323.334266
2702.440945	324.183217
2703.826916	317.619580
2705.209489	311.471329
2706.593404	306.951049
2707.977080	301.563636
2709.360519	284.815385
2710.740562	279.538462
2712.121947	271.516084
2713.501516	275.580420
2714.882427	281.276923
2716.261523	278.560839
2717.638805	273.613986
2719.017428	279.118881
2720.394237	270.709091
2721.770811	263.741259
2723.147149	255.841958
2724.521675	243.131469
2725.897542	225.500699
2727.270022	216.956643
2728.645419	205.597203
2730.015854	202.751049
2731.387631	198.900699
2732.759174	190.348252
2734.128908	194.573427
2735.499982	198.890909
2736.869249	198.391608
2738.238282	192.983217
2739.605508	183.328671
2740.972502	174.742657
2742.339263	172.283916
2743.705791	174.013986
2745.070515	164.637762
2746.435006	156.324476
2747.799265	153.528671
2749.163293	150.509091
2750.527088	159.573427
2751.887510	158.615385
2753.250843	159.949650
2754.609233	163.179021
2755.970533	159.464336
2757.328462	159.806993
2758.689301	163.096503
2760.048339	162.535664
2761.404009	154.191608
2762.762588	148.229371
2764.117799	146.604196
2765.472781	145.124476
2766.825966	147.630769
2768.182058	146.338462
2769.534786	149.166434
2770.887285	147.393007
2772.239557	141.374825
2773.593166	134.516084
2774.943414	136.559441
2776.291869	141.958042
2777.643228	143.113287
2778.991228	137.069930
2780.340567	141.974825
2781.688113	145.406993
2783.035432	143.453147
2784.382525	147.769231
2785.727827	150.841958
2787.072903	144.043357
2788.417753	140.791608
2789.762377	132.325874
2791.103648	138.495105
2792.446258	139.797203
2793.788643	128.358042
2795.130802	125.404196
2796.469612	122.194406
2797.811322	120.890909
2799.149683	122.037762
2800.489382	123.861538
2801.827295	120.570629
2803.163424	117.720280
2804.499330	119.469930
2805.836572	119.742657
2807.172031	124.151049
2808.507267	122.612587
2809.840721	123.601399
2811.175511	130.633566
2812.506960	125.948252
2813.841305	126.911888
2815.170752	124.200000
2816.501536	120.871329
2817.832098	122.299301
2819.160881	125.885315
2820.491001	130.366434
2821.819341	125.348252
2823.147461	121.927273
2824.473804	122.893706
2825.801482	120.362238
2827.125828	118.827972
2828.451510	117.896503
2829.775416	115.260140
2831.099102	114.816783
2832.424124	110.813986
2833.745817	118.493706
2835.067290	115.671329
2836.388545	118.641958
2837.709581	122.201399
2839.028845	124.262937
2840.349444	125.613986
2841.668271	123.051748
2842.986880	123.432168
2844.303719	126.655944
2845.620340	124.946853
2846.936743	120.362238
2848.251378	112.710490
2849.567347	111.851748
2850.879997	107.078322
2852.193981	108.446154
2853.507749	115.258741
2854.821300	119.381818
2856.133084	127.360839
2857.443103	128.383217
2858.754456	132.337063
2860.062493	131.822378
2861.371866	123.892308
2862.681023	112.426573
2863.989965	108.293706
2865.297144	102.262937
2866.602559	95.071329
2867.909309	93.686713
2869.214297	106.030769
2870.519070	117.867133
2871.822083	126.613986
2873.127976	127.429371
2874.429015	135.090909
2875.731387	127.935664
2877.032000	126.413986
2878.333947	113.429371
2879.635681	105.987413
2880.934111	105.658741
2882.233874	96.462937
2883.531880	97.641958
2884.829674	99.497902
2886.125711	103.713287
2887.423082	105.902098
2888.718697	107.344056
2890.014102	112.117483
2891.309295	109.562238
2892.601190	116.604196
2893.895962	106.274126
2895.187438	108.774825
2896.480246	116.426573
2897.772844	106.574825
2899.062147	109.144056
2900.352783	108.156643
2901.641669	107.528671
2902.931886	104.567832
2904.218812	100.976224
2905.507070	107.531469
2906.793579	111.937063
2908.079879	119.118881
2909.365971	120.720280
2910.650315	124.648951
2911.937531	124.797203
2913.219920	120.699301
2914.503641	122.896503
2915.785615	127.181818
2917.067383	127.447552
2918.347405	128.139860
2919.630297	124.402797
2920.911444	134.262937
2922.189309	134.888112
2923.470043	133.745455
2924.747496	132.483916
2926.024744	127.026573
2927.300249	123.240559
2928.578622	121.703497
2929.852181	121.601399
2931.128606	124.960839
2932.403291	125.036364
2933.676236	119.190210
2934.950511	112.517483
2936.223047	112.510490
2937.495379	105.909091
2938.764438	103.868531
2940.036362	100.678322
2941.306548	97.921678
2942.576530	98.243357
2943.846309	95.076923
2945.114351	98.027972
2946.380658	97.952448
2947.646762	102.237762
2948.914197	106.979021
2950.179896	110.690909
2951.445393	112.200000
2952.710689	116.734266
2953.972719	119.208392
2955.236079	115.765035
2956.499238	111.979021
2957.760664	109.169231
2959.023420	99.942657
2960.284445	103.686713
2961.543739	105.665734
2962.802832	119.963636
2964.061725	121.861538
2965.320418	120.227972
2966.578911	121.570629
2967.835675	123.984615
2969.092240	123.037762
2970.347076	112.862937
2971.603242	107.158042
2972.856152	101.047552
2974.110392	94.983217
2975.364433	98.177622
2976.616748	104.706294
2977.868865	103.883916
2979.119257	98.573427
2980.372504	96.531469
2981.620974	100.664336
2982.872298	102.690909
2984.120374	109.187413
2985.368252	105.562238
2986.615933	110.190210
2987.863418	111.311888
2989.109181	114.067133
2990.354747	116.243357
2991.601642	112.702098
2992.845291	104.848951
2994.090269	103.135664
2995.332004	100.241958
2996.576590	107.160839
2997.819457	105.923077
2999.059082	112.321678
3000.301559	113.700699
3001.540795	110.227972
3002.781359	107.667133
3004.020206	104.138462
3005.258859	104.921678
3006.495796	108.106294
3007.734061	103.627972
3008.970610	108.334266
3010.206966	112.865734
3011.443128	113.401399
3012.677576	106.986014
3013.911831	117.366434
3015.145893	113.476923
3016.378243	112.713287
3017.608881	109.441958
3018.842365	105.620979
3020.074138	105.818182
3021.304199	108.328671
3022.534069	106.704895
3023.762229	114.511888
3024.991716	109.812587
3026.219493	106.069930
3027.447079	97.758042
3028.675991	103.293706
3029.900161	99.316084
3031.127174	106.232168
3032.350964	103.179021
3033.576079	100.085315
3034.799488	99.135664
3036.022708	101.640559
3037.244222	107.283916
3038.468577	112.420979
3039.688197	111.321678
3040.909143	115.813986
3042.129899	105.850350
3043.348952	108.579021
3044.569331	107.545455
3045.786493	109.379021
3047.004980	112.798601
3048.221766	111.811189
3049.438363	107.138462
3050.654773	107.097902
3051.867969	109.060140
3053.084003	111.517483
3054.296825	110.145455
3055.512484	111.765035
3056.723420	105.714685
3057.935682	110.738462
3059.147756	108.074126
3060.359644	110.988811
3061.569834	113.934266
3062.779839	113.034266
3063.989657	109.742657
3065.197779	108.176923
3066.405715	109.718881
3067.611957	109.939161
3068.819523	101.839161
3070.025394	94.834266
3071.231080	86.566434
3072.436582	77.888811
3073.640390	69.348252
3074.845522	69.196503
3076.048961	70.365035
3077.250708	78.642657
3078.452272	82.727273
3079.653652	80.987413
3080.854848	91.751049
3082.054354	101.215385
3083.253676	96.651748
3084.454322	95.956643
3085.653279	96.209790
3086.849040	92.243357
3088.047631	95.795804
3089.243028	100.784615
3090.439749	105.795804
3091.633277	109.622378
3092.829633	102.420979
3094.024302	94.756643
3095.215781	93.899301
3096.411591	95.384615
3097.602708	84.931469
3098.795148	86.629371
3099.984399	91.752448
3101.176477	89.676923
3102.366871	88.481119
3103.554078	87.731469
3104.742609	88.072727
3105.932462	86.400000
3107.119130	83.496503
3108.305619	79.588811
3109.491928	83.299301
3110.679560	86.973427
3111.864009	87.779021
3113.046778	91.732867
3114.232371	92.276923
3115.416283	91.102098
3116.598517	87.162238
3117.780573	86.269930
3118.962450	84.429371
3120.144149	89.790210
3121.324171	92.935664
3122.502516	93.560839
3123.683681	100.072727
3124.861671	98.286713
3126.039484	94.447552
3127.217120	91.040559
3128.393081	88.955245
3129.568866	87.507692
3130.745971	89.762238
3131.921403	91.019580
3133.095161	95.590210
3134.267246	99.349650
3135.440652	102.816783
3136.613883	102.200000
3137.785442	100.434965
3138.958321	92.991608
3140.128033	87.030769
3141.299066	81.629371
3142.468428	80.633566
3143.636121	79.725874
3144.806629	82.374825
3145.972478	88.400000
3147.142637	90.169231
3148.308138	82.053147
3149.473466	80.767832
3150.638620	79.041958
3151.803601	76.737063
3152.969901	76.532867
3154.131548	78.306294
3155.294516	80.647552
3156.457311	93.013986
3157.619932	98.412587
3158.780889	103.594406
3159.941674	99.071329
3161.102286	94.131469
3162.261234	85.422378
3163.420010	83.674126
3164.578615	85.723077
3165.737048	86.090909
3166.895309	87.998601
3168.051909	89.763636
3169.206846	98.458741
3170.363104	104.763636
3171.517700	104.517483
3172.672126	99.784615
3173.824891	95.358042
3174.977487	94.128671
3176.129913	87.416783
3177.282168	84.274126
3178.434254	83.240559
3179.583193	84.300699
3180.734939	86.325874
3181.885028	84.384615
3183.033459	86.468531
3184.181722	78.531469
3185.329816	77.230769
3186.477741	76.981818
3187.624010	80.338462
3188.770111	71.591608
3189.914558	69.976224
3191.058836	69.836364
3192.202947	75.148252
3193.348376	80.324476
3194.490666	82.699301
3195.632788	84.402797
3196.774744	83.711888
3197.916532	79.254545
3199.058153	80.394406
3200.196638	80.563636
3201.336442	85.362238
3202.477562	82.956643
3203.615548	92.707692
3204.751885	93.383217
3205.888056	96.573427
3207.025545	94.809790
3208.161385	95.223776
3209.298542	94.816783
3210.431086	88.660140
3211.567911	84.808392
3212.700125	78.857343
3213.833657	79.609790
3214.967023	85.406993
3216.097262	81.418182
3217.230300	85.348252
3218.360210	75.563636
3219.491438	77.460140
3220.619540	75.177622
3221.750440	77.716084
3222.879695	84.271329
3224.007307	89.995804
3225.131796	96.769231
3226.260561	102.377622
3227.386204	111.713287
3228.511684	117.306294
3229.635523	117.829371
3230.762157	112.818182
3231.884192	109.219580
3233.007544	109.464336
3234.130734	98.865734
3235.253762	94.595804
3236.375150	91.546853
3237.496377	85.930070
3238.615965	83.916084
3239.735392	83.911888
3240.853182	83.390210
3241.973763	84.925874
3243.091231	87.201399
3244.208538	81.987413
3245.325684	84.639161
3246.441195	80.794406
3247.558021	78.197203
3248.671736	79.532867
3249.788242	76.251748
3250.903112	78.037762
3252.014874	82.376224
3253.126477	83.847552
3254.239395	81.867133
3255.352153	81.548252
3256.461805	80.465734
3257.572772	76.153846
3258.683580	76.216783
3259.792756	76.404196
3260.900301	74.044755
3262.009161	76.388811
3263.117862	79.234965
3264.223461	84.363636
3265.330375	86.910490
3266.435659	85.022378
3267.542257	84.739860
3268.645755	85.795804
3269.750567	86.044755
3270.855222	87.756643
3271.956779	83.195804
3273.058179	78.674126
3274.160893	67.483916
3275.263450	68.994406
3276.362912	65.723077
3277.465156	66.883916
3278.564306	61.883916
3279.661830	65.366434
3280.759200	69.934266
3281.859351	71.566434
3282.956409	75.744056
3284.053313	78.613986
3285.150061	77.044755
3286.242250	77.622378
3287.338689	76.946853
3288.433505	82.613986
3289.528166	80.455944
3290.621206	85.019580
3291.714092	78.551049
3292.805357	75.577622
3293.897935	67.907692
3294.988893	64.013986
3296.078231	64.464336
3297.167416	63.405594
3298.257913	62.002797
3299.345326	64.566434
3300.432587	69.078322
3301.521160	71.135664
3302.609580	70.658741
3303.693453	73.292308
3304.781568	65.138462
3305.866602	57.941259
3306.950020	56.311888
3308.034750	64.339860
3309.117864	70.086713
3310.202290	76.797203
3311.283638	76.524476
3312.366298	83.092308
3313.447344	78.655944
3314.528239	77.730070
3315.607521	76.439161
3316.686652	78.471329
3317.767095	74.033566
3318.844463	68.597203
3319.923143	68.963636
3321.000211	69.183217
3322.077129	71.883916
3323.152437	75.639161
3324.227595	69.517483
3325.304064	67.187413
3326.377462	56.057343
3327.450712	59.711888
3328.525273	57.341259
3329.598224	63.244755
3330.669568	62.811189
3331.742222	61.068531
3332.811809	62.099301
3333.882707	60.078322
3334.951998	62.113287
3336.022600	65.412587
3337.091595	59.432168
3338.158985	63.744056
3339.224768	61.146853
3340.294778	67.548252
3341.361725	67.406993
3342.425610	71.334266
3343.492263	68.423776
3344.557312	69.895105
3345.620757	64.902098
3346.684055	64.548252
3347.747208	62.562238
3348.810214	65.427972
3349.873073	64.179021
3350.934331	68.623776
3351.992532	65.330070
3353.054954	67.932867
3354.114319	66.040559
3355.173540	63.843357
3356.234069	59.748252
3357.290089	62.815385
3358.348874	60.100699
3359.403151	64.825175
3360.460192	62.099301
3361.515634	59.626573
3362.572385	55.167832
3363.627539	54.324476
3364.681095	53.625175
3365.733054	60.342657
3366.787776	60.829371
3367.839448	61.907692
3368.890976	61.563636
3369.943814	64.990210
3370.993604	68.928671
3372.044703	70.406993
3373.092755	67.746853
3374.143568	62.197203
3375.191335	59.900699
3376.238960	64.756643
3377.286443	66.274126
3378.332332	74.372028
3379.379531	66.846154
3380.423686	64.767832
3381.470600	61.128671
3382.515923	61.248951
3383.558204	64.862937
3384.600344	58.355245
3385.643793	60.195804
3386.687100	61.194406
3387.728817	63.015385
3388.770394	69.050350
3389.811829	68.030769
3390.851676	72.706294
3391.889934	72.355245
3392.929500	76.998601
3393.968926	76.113287
3395.006764	76.520280
3396.043015	77.927273
3397.079126	72.875524
3398.116545	70.714685
3399.150931	66.857343
3400.186625	57.532867
3401.222179	52.346853
3402.254701	48.588811
3403.289977	50.914685
3404.322222	53.675524
3405.354329	58.882517
3406.384853	60.163636
3407.416683	71.655944
3408.448375	77.390210
3409.477039	76.990210
3410.505566	67.886713
3411.535399	65.874126
3412.565095	59.833566
3413.591765	58.335664
3414.619741	61.018182
3415.644693	62.300699
3416.672396	65.590210
3417.697074	71.825175
3418.723059	75.906294
3419.747465	82.223776
3420.771733	80.011189
3421.794424	81.479720
3422.816978	73.755245
3423.840838	74.246154
3424.861678	69.296503
3425.882382	67.472727
3426.904392	66.193506
3427.923384	65.564436
3428.942241	65.691109
3429.962404	66.679121
3430.979549	68.634066
