-118.277064	0.810989
-115.607463	1.431868
-112.940798	1.694805
-110.274885	1.688611
-107.611905	1.502098
-104.947494	1.224076
-102.286014	0.943357
-99.623105	1.634965
-96.965303	3.107692
-94.306070	3.008392
-91.647586	1.162937
-88.992027	-0.181818
-86.335039	-0.625175
-83.683148	-0.482517
-81.029828	-0.637063
-78.379427	0.420280
-75.727598	2.131469
-73.080859	-1.732168
-70.432690	-3.700699
-67.785265	-1.339860
-65.140753	-1.393706
-62.494812	-1.407692
-59.853954	-1.991608
-57.211665	-2.266434
-54.572286	-3.569930
-51.931478	-2.262937
-49.291409	-0.390210
-46.656414	2.017483
-44.019989	0.208392
-41.386468	-0.981119
-38.751517	0.595804
-36.121633	2.976224
-33.488155	1.752448
-30.859740	2.251049
-28.232059	3.246853
-25.602950	1.714685
-22.978897	1.577622
-20.351254	2.594406
-17.728666	1.855245
-15.106808	0.621678
-12.485681	-0.278322
-9.865285	6.911189
-7.247776	9.816084
-4.628839	15.064336
-2.012788	17.174126
0.602536	18.603497
3.217131	17.599301
5.828845	17.262238
8.441986	15.195804
11.050095	12.140559
13.661784	5.032867
16.268443	1.958042
18.876530	1.579021
21.483893	3.423077
24.086231	2.064336
26.692147	1.328671
29.293042	-0.780420
31.895364	-0.616084
34.492668	-1.987413
37.093548	-0.822378
39.689414	-0.678322
42.286707	1.622378
44.883281	0.779720
47.474846	1.691608
50.067839	1.997902
52.657972	1.748951
55.249531	0.571329
57.838231	0.783916
60.428359	0.609790
63.013487	3.369930
65.600043	1.096503
68.185884	2.202098
70.768872	3.037063
73.353287	6.239860
75.930572	5.713287
78.511424	7.600699
81.089427	7.375524
83.666720	7.081818
86.245440	4.027972
88.819177	2.851748
91.394341	0.259441
93.966662	-0.866434
96.538276	-4.386014
99.107049	-2.683217
101.677249	-3.134266
104.244610	0.581818
106.813398	0.177622
109.379349	4.403497
111.942464	3.936364
114.509137	4.520979
117.066587	2.057343
119.629723	1.809091
122.187900	0.055944
124.749631	1.420979
127.306405	0.806294
129.864605	2.724476
132.417853	1.593007
134.970402	2.694406
137.526503	3.972727
140.077655	5.748252
142.628110	2.795804
145.177867	0.769231
147.724805	-1.044056
150.271048	0.206993
152.818716	0.269231
155.365688	3.000699
157.907724	2.434965
160.449068	5.789510
162.989718	6.344056
165.531793	7.481119
168.071058	9.721678
170.607513	8.889510
173.143278	6.159441
175.680468	3.495804
178.216967	-0.114685
180.750660	-1.463636
183.281549	-2.635664
185.811750	-3.439860
188.343376	-4.848252
190.872202	-2.947552
193.398228	-2.994406
195.923568	-3.332168
198.450333	-1.488112
200.974302	2.353846
203.497585	5.685315
206.020184	4.891608
208.539990	0.860140
211.059113	1.755944
213.577553	2.575524
216.097418	5.030070
218.610280	5.791608
221.126674	6.273427
223.642387	5.667133
226.153209	4.677622
228.665456	5.207692
231.174920	6.723077
233.683706	6.722378
236.191814	3.520280
238.701346	1.154545
241.205997	3.790210
243.709972	4.985315
246.215371	9.091608
248.715895	8.170629
251.219942	7.498601
253.717019	7.888112
256.217618	8.983916
258.715446	7.913287
261.212601	7.419580
263.709084	5.144755
266.200703	5.055944
268.695841	5.863636
271.188214	6.665734
273.679916	3.566434
276.168855	4.334965
278.659217	1.551049
281.146818	0.860140
283.631659	1.417483
286.120014	2.140559
288.601431	2.379720
291.086361	2.843357
293.566445	4.699301
296.050042	5.565035
298.528797	4.725874
301.008974	4.070629
303.486400	3.677622
305.963162	7.513986
308.439260	5.297902
310.912610	4.885315
313.385299	5.043357
315.857326	5.106993
318.328691	4.291608
320.797313	5.465035
323.265275	5.076923
325.734660	3.626573
328.199222	2.802098
330.667287	4.660839
333.130533	8.395105
335.593122	10.820280
338.055053	8.618881
340.516328	9.352448
342.974869	10.376224
345.434832	10.544056
347.892063	8.497902
350.348639	7.260140
352.804560	4.242657
355.257753	6.485315
357.712368	6.406993
360.162181	8.123077
362.615490	9.763636
365.064000	9.430769
367.511860	8.148252
369.961141	10.359441
372.405629	10.868531
374.851539	9.816783
377.296800	5.429371
379.739342	5.716084
382.181236	4.706993
384.622482	5.130070
387.061013	4.425175
389.500966	4.666434
391.938205	2.624476
394.372732	2.383217
396.810747	2.858741
399.243985	4.644755
401.678645	2.811888
404.108532	3.557343
406.541904	3.479720
408.970506	7.583916
411.398466	7.160140
413.827847	8.100699
416.252464	7.635664
418.678501	8.056643
421.103899	4.488811
423.528656	4.239860
425.948654	4.571329
428.370074	5.449650
430.788797	5.849650
433.208941	7.420280
435.626390	7.363636
438.045259	9.224476
440.461435	11.666434
442.872864	14.406294
445.287769	14.625175
447.699984	13.122378
450.111565	9.137063
452.522513	8.833566
454.930773	9.005594
457.338402	8.909091
459.745398	9.101399
462.151762	6.459441
464.555445	3.702797
466.958497	2.990909
469.360919	3.834266
471.762711	5.297203
474.161825	3.443357
476.562359	0.701399
478.962264	0.744755
481.357447	0.130769
483.756095	-0.336364
486.150024	1.016084
488.543327	3.993007
490.936004	3.430070
493.328056	2.988112
495.721527	3.710490
498.110285	3.844755
500.496377	4.932168
502.883889	2.379021
505.270777	0.790909
507.655002	0.502098
510.040646	-1.494406
512.423627	-2.506294
514.803948	-1.145455
517.185688	-1.436364
519.564770	-0.825874
521.945269	-0.273427
524.323111	1.844056
526.698298	3.342657
529.072867	7.548951
531.448855	6.708392
533.822189	8.290909
536.196942	8.395105
538.567008	8.141958
540.936459	5.374825
543.307329	5.548951
545.673517	2.518182
548.041124	3.337762
550.406085	1.377622
552.770434	2.251049
555.134169	2.716783
557.499322	2.977622
559.859803	0.767832
562.221701	1.267133
564.580960	0.734266
566.937580	1.129371
569.297646	0.825175
571.651020	1.804196
574.007839	1.815385
576.362023	2.751049
578.715598	2.425175
581.068565	4.764336
583.418901	3.463636
585.770654	3.239860
588.115729	1.960140
590.466269	1.476224
592.810136	0.828671
595.159464	1.466434
597.504143	1.460839
599.846198	0.983217
602.189670	3.158042
604.530519	4.051049
606.870765	3.886014
609.208391	6.259441
611.549452	3.574825
613.885876	4.627972
616.223716	2.946154
618.558938	0.800000
620.891545	0.421678
623.225569	1.670629
625.556978	0.548252
627.887789	1.484615
630.218002	2.097203
632.547618	3.292308
634.872610	2.986014
637.203044	6.472727
639.528856	6.504196
641.852062	7.795105
644.176684	9.146154
646.498700	7.423077
648.820122	6.681818
651.138941	4.567832
653.459176	1.973427
655.778818	0.403497
658.095859	0.924476
660.412309	1.580420
662.726160	1.367832
665.041426	3.672727
667.354096	4.783916
669.668181	5.262238
671.977667	7.665734
674.288567	6.130769
676.596875	3.918182
678.904595	3.546154
681.213730	1.481818
683.518272	0.104196
685.822228	1.713287
688.125597	0.560839
690.430381	-1.997203
692.730579	-2.037762
695.032192	-4.897902
697.333219	-4.548951
699.629665	-2.473427
701.927525	-0.637762
704.224803	2.689510
706.521496	6.234266
708.813614	5.988112
711.109143	8.360140
713.400099	9.753846
715.692469	10.893007
717.982263	7.496503
720.271478	6.481119
722.560113	3.558741
724.846175	5.369930
727.133651	4.420280
729.418557	3.639161
731.702884	4.255245
733.984644	4.897203
736.267817	1.699301
738.550413	3.734266
740.828453	2.675524
743.107907	5.091608
745.386786	4.438462
747.665090	7.275524
749.938843	11.334266
752.214011	10.504196
754.488605	7.211189
756.760640	8.669231
759.034088	8.481119
761.304978	8.381818
763.573312	2.755245
765.843059	2.578322
768.110251	-0.567832
770.376873	0.592308
772.642926	0.509790
774.906427	2.507692
777.171340	3.106294
779.435685	0.123077
781.695499	-0.746154
783.956727	2.030070
786.217387	1.347552
788.475500	1.395804
790.731070	-0.686713
792.990029	0.869930
795.242490	1.200000
797.500318	4.091608
799.753627	7.675524
802.004395	8.537762
804.256576	7.397902
806.506219	6.535664
808.757273	5.009790
811.003816	5.746154
813.251772	4.531469
815.497192	0.941259
817.744025	-0.841259
819.990295	-0.012587
822.232062	-0.962937
824.477211	0.709790
826.715888	2.348252
828.957948	1.955245
831.195509	3.931469
833.434481	4.711888
835.670928	5.383217
837.908785	7.791608
840.144117	7.278322
842.376925	4.528671
844.611145	5.379720
846.842843	8.046154
849.073986	6.091608
851.304574	5.709091
853.534608	2.472028
855.764087	5.060839
857.989086	7.330070
860.217458	7.497203
862.441352	8.244056
864.666656	8.148951
866.887485	5.160140
869.111687	2.863636
871.331415	3.742657
873.552553	5.586713
875.773141	4.320979
877.991220	4.913287
880.210708	5.402797
882.425730	7.409091
884.640204	6.246853
886.854131	5.238462
889.067510	3.817483
891.280343	0.606294
893.492628	-1.330070
895.702412	-0.978322
897.911650	-0.436364
900.120342	2.043357
902.326536	5.251748
904.534139	9.604895
906.739245	11.423077
908.943807	8.175524
911.145874	5.971329
913.349350	3.892308
915.550332	0.476224
917.750772	-1.799301
919.952621	-3.246154
922.148079	-5.582517
924.346895	-7.663636
926.541274	-5.918182
928.739010	-5.766434
930.932310	-3.341958
933.127018	-2.583217
935.319241	-1.202797
937.510926	1.939161
939.702073	3.713986
941.890737	5.069930
944.078864	5.975524
946.264511	5.400000
948.453511	6.439860
950.638086	5.977622
952.822127	5.552448
955.009518	2.458741
957.188606	4.025175
959.371044	4.876224
961.552947	7.162238
963.732377	7.473427
965.909334	7.455245
968.087699	6.866434
970.267470	3.982517
972.440893	2.803497
974.617663	3.039161
976.790025	0.976224
978.963795	0.764336
981.133161	0.008392
983.305871	2.463636
985.476115	3.108392
987.645831	3.067133
989.815018	3.009091
991.979808	4.348951
994.147940	6.559441
996.311676	7.082517
998.476820	8.144056
1000.639504	10.120979
1002.801663	8.616783
1004.961364	9.274825
1007.120542	7.369231
1009.281126	9.252448
1011.439255	9.679720
1013.596860	9.232867
1015.753942	9.703497
1017.910501	9.951748
1020.062680	11.067832
1022.216266	10.636364
1024.369330	9.683916
1026.519945	10.192308
1028.671966	4.774126
1030.819615	4.801399
1032.970594	2.204895
1035.117204	5.210490
1037.263294	4.109790
1039.408866	1.262238
1041.555842	-1.520979
1043.696531	-2.509091
1045.840548	-3.408392
1047.982126	-1.854545
1050.123186	-0.460839
1052.265651	1.556643
1054.401837	-0.990210
1056.541349	3.640559
1058.676505	2.770629
1060.814986	6.069930
1062.949114	4.060140
1065.082728	3.204196
1067.217746	1.459441
1069.348415	2.541958
1071.480490	-0.001399
1073.610134	5.487413
1075.739267	8.020979
1077.867889	7.592308
1079.995999	5.197902
1082.121683	6.487413
1084.246857	3.069930
1086.373434	3.666434
1088.495675	0.883217
1090.619320	1.137063
1092.738630	-2.973427
1094.863169	-0.124476
1096.981464	-1.759441
1099.101162	5.856643
1101.218442	5.190909
1103.335216	6.409790
1105.451483	4.367133
1107.565335	6.272028
1109.680590	4.407692
1111.791523	4.237063
1113.905768	5.134266
1116.015692	7.085315
1118.127019	3.460839
1120.237843	5.588112
1122.344350	4.433566
1124.454166	6.050350
1126.559668	4.955944
1128.666574	6.910490
1130.767264	3.482517
1132.873165	3.781119
1134.974758	2.000699
1137.077754	2.630070
1139.180249	3.967832
1141.276538	4.381818
1143.378033	3.449650
1145.475226	5.148252
1147.571920	4.167832
1149.668117	4.239860
1151.763815	4.466434
1153.859016	3.695804
1155.951820	0.318881
1158.046026	1.230070
1160.134041	0.267133
1162.227254	0.327273
1164.314279	0.053846
1166.404604	2.138462
1168.490640	4.561538
1170.579974	5.302098
1172.663127	4.723776
1174.747683	6.430070
1176.833639	4.070629
1178.915315	3.733566
1180.998391	2.647552
1183.079082	4.132867
1185.159282	1.626573
1187.238990	2.151049
1189.318207	4.248252
1191.395041	6.817483
1193.469495	7.912587
1195.547241	8.575524
1197.620716	7.549650
1199.695593	6.938462
1201.766202	4.806993
1203.838212	4.781119
1205.907846	2.260140
1207.978881	0.851049
1210.049428	-0.196503
1212.115715	0.813287
1214.183401	2.177622
1216.248716	3.124476
1218.315431	1.426573
1220.377890	2.920979
1222.443635	2.149650
1224.505125	3.644056
1226.568015	3.265734
1228.628538	3.006993
1230.688578	1.079720
1232.748134	2.884615
1234.805326	5.523077
1236.862035	7.885315
1238.916382	7.268531
1240.974009	10.034266
1243.029274	10.309091
1245.080298	14.181818
1247.132723	11.138462
1249.184667	10.444755
1251.234253	5.827273
1253.283360	5.710490
1255.331988	3.841259
1257.380138	4.822378
1259.427810	5.081119
1261.471251	4.991608
1263.517967	3.567832
1265.562331	4.054545
1267.606217	4.916783
1269.647753	4.572028
1271.686939	1.958042
1273.729397	3.561538
1275.767634	1.369231
1277.807268	5.634965
1279.846428	6.856643
1281.881370	11.225874
1283.917710	11.952448
1285.951705	15.640559
1287.987099	15.383916
1290.018279	14.176923
1292.050858	14.742657
1294.082964	11.073427
1296.112730	6.690909
1298.143894	4.437063
1300.170850	1.623776
1302.199204	1.482517
1304.223354	0.084615
1306.250769	4.881119
1308.273981	3.361538
1310.298591	7.547552
1312.320866	5.952448
1314.344539	7.741958
1316.365879	7.329371
1318.386752	7.334965
1320.407157	5.365734
1322.423369	7.333566
1324.440978	6.666434
1326.456259	5.132867
1328.474799	3.200699
1330.489149	5.109091
1332.501174	3.388112
1334.516457	6.384615
1336.527554	2.816084
1338.540047	5.108392
1340.548358	5.039161
1342.559925	8.303497
1344.565453	8.204196
1346.574235	11.974126
1348.578841	10.845455
1350.586700	10.035664
1352.594097	6.832168
1354.595462	6.242657
1356.598225	5.658042
1358.600528	6.993706
1360.602370	3.045455
1362.603754	3.359441
1364.602823	3.887413
1366.601434	3.294406
1368.599587	3.048252
1370.597282	7.544056
1372.590813	6.067832
1374.585741	5.903497
1376.580212	3.186014
1378.574226	2.036364
1380.565933	1.885315
1382.557184	4.523776
1384.546130	2.297203
1386.536471	3.390210
1388.526357	2.534266
1390.513940	1.795804
1392.501069	2.268531
1394.485896	4.206993
1396.472118	3.316084
1398.456039	6.908392
1400.439508	5.908392
1402.422525	4.825175
1404.403244	6.048252
1406.385357	7.054545
1408.365173	5.449650
1410.344539	6.502797
1412.319766	4.218182
1414.298231	4.523077
1416.274403	2.251049
1418.250125	0.738462
1420.225398	0.423077
1422.198381	3.281119
1424.170915	0.244056
1426.143001	-0.711888
1428.114639	1.882517
1430.082150	5.383916
1432.054734	6.190210
1434.019512	7.728671
1435.989363	7.361538
1437.955089	7.620280
1439.922209	6.951748
1441.887045	5.213986
1443.847761	5.809790
1445.813545	7.445455
1447.773374	6.353147
1449.734596	5.932867
1451.697211	7.535664
1453.655711	9.204895
1455.613769	4.420280
1457.571384	3.897902
1459.528558	-0.439860
1461.483456	-0.926573
1463.439746	-1.720280
1465.393762	-3.939860
1467.347338	-4.204196
1469.298641	-2.395804
1471.251336	-3.715385
1473.201760	-3.244056
1475.151745	0.376923
1477.101291	2.934965
1479.048567	0.076224
1480.993577	5.823776
1482.939979	6.193007
1484.885943	10.255944
1486.831470	10.314685
1488.774731	10.720979
1490.717556	10.318881
1492.658118	10.853846
1494.600072	7.179021
1496.539763	5.157343
1498.479019	4.893706
1500.417841	5.442657
1502.354403	2.077622
1504.292355	6.975524
1506.228050	7.400699
1508.163311	8.696503
1510.096315	6.548252
1512.028887	6.716783
1513.961027	5.268531
1515.892735	4.211189
1517.822190	1.998601
1519.753034	-0.340559
1521.683448	0.951748
1523.609789	3.405594
1525.537520	1.868531
1527.463001	7.232168
1529.388053	9.178322
1531.312676	10.993007
1533.236870	9.525175
1535.158817	10.300699
1537.082153	10.602797
1539.003244	10.376224
1540.922090	10.437762
1542.842326	6.577622
1544.760318	5.119580
1546.677884	4.250350
1548.593209	1.722378
1550.509922	4.198601
1552.422581	5.720280
1554.338444	6.413287
1556.252068	7.157343
1558.163453	10.941958
1560.076227	11.746853
1561.984953	13.809790
1563.895067	11.853147
1565.804758	10.727972
1567.714026	12.342657
1569.621059	11.983217
1571.525860	10.942657
1573.432050	13.660839
1575.336009	14.682517
1577.239546	13.303497
1579.142662	12.333566
1581.043550	12.243357
1582.945826	11.354545
1584.845873	12.365734
1586.747309	9.100699
1588.644710	7.884615
1590.541694	7.288112
1592.438259	6.345455
1594.336211	7.609091
1596.228329	8.554545
1598.123641	7.780420
1600.018534	5.548252
1601.911207	3.076923
1603.803462	2.766434
1605.693498	3.713287
1607.583118	7.269930
1609.472323	4.368531
1611.361112	2.118182
1613.247685	1.847552
1615.135645	2.366434
1617.019588	3.192308
1618.904918	7.430070
1620.789835	6.098601
1622.672538	4.957343
1624.556628	3.443357
1626.436706	2.929371
1628.318171	1.039860
1630.197426	5.083217
1632.078067	3.413986
1633.952905	2.588112
1635.832723	2.769930
1637.708536	4.890909
1639.583940	6.944755
1641.460729	9.683916
1643.331721	5.513287
1645.205896	7.313986
1647.076071	4.313986
1648.949427	3.891608
1650.820580	2.132867
1652.689531	4.373427
1654.559868	3.245455
1656.426211	3.510490
1658.293941	3.344755
1660.159471	3.475524
1662.026386	2.418182
1663.889313	0.901399
1665.753625	-0.549650
1667.615742	1.010490
1669.477453	-0.733566
1671.340549	0.634965
1673.201451	1.422378
1675.060159	1.644056
1676.918465	2.073427
1678.778154	4.147552
1680.632077	3.409091
1682.489173	5.678322
1684.345865	4.783916
1686.198582	4.286014
1688.054470	2.636364
1689.906384	2.781818
1691.757897	3.711888
1693.609009	4.991608
1695.459720	6.720979
1697.310031	7.646853
1699.158158	6.419580
1701.007668	8.131469
1702.851430	8.009091
1704.700142	7.592308
1706.543107	4.056643
1708.389238	3.051748
1710.231408	-0.553147
1712.076742	0.306993
1713.916336	1.365035
1715.757314	0.986713
1717.599676	0.476923
1719.438080	1.145455
1721.277868	0.446853
1723.115481	3.215385
1724.952698	5.386713
1726.787742	4.266434
1728.624169	1.655245
1730.458424	2.707692
1732.292285	-1.937063
1734.125751	-2.217483
1735.955271	-4.229371
1737.787950	-5.067133
1739.616685	-6.172727
1741.448578	-4.166434
1743.276528	0.616084
1745.104086	4.546853
1746.931253	8.247552
1748.758028	8.376224
1750.584411	8.244056
1752.406858	8.975524
1754.232459	7.206294
1756.054126	8.340559
1757.877175	5.843357
1759.698063	7.116783
1761.518561	5.909790
1763.340441	5.827273
1765.156621	6.653147
1766.975953	5.666434
1768.791358	4.373427
1770.609914	6.400000
1772.424544	6.752448
1774.238787	7.386713
1776.052644	9.581119
1777.866114	9.290210
1779.677430	7.141958
1781.490128	8.803497
1783.302439	7.577622
1785.110833	5.027972
1786.920608	2.888811
1788.726467	2.267133
1790.535473	-0.074126
1792.340565	1.927273
1794.147037	1.397203
1795.953126	0.988112
1797.755305	-0.660140
1799.560627	-2.837063
1801.362041	-2.007692
1803.164835	-0.193007
1804.963724	-0.376224
1806.763992	0.105594
1808.563880	0.111888
1810.361625	2.322378
1812.158990	1.822378
1813.955974	4.682517
1815.752578	4.994406
1817.547043	5.896503
1819.342888	4.265035
1821.133077	5.729371
1822.928163	8.772028
1824.717596	9.181818
1826.510167	6.835664
1828.300602	9.246853
1830.088902	8.592308
1831.880338	9.751049
1833.666129	7.644056
1835.453298	8.678322
1837.238337	4.656643
1839.026508	5.787413
1840.810794	4.020280
1842.592951	5.081818
1844.376487	4.033566
1846.157894	2.716783
1847.940679	1.579720
1849.719585	5.474126
1851.499869	6.523077
1853.278028	6.332168
1855.057564	5.344056
1856.834976	6.316783
1858.610264	4.386014
1860.386931	7.812587
1862.161475	7.195105
1863.937396	6.648951
1865.707698	5.311189
1867.481127	4.462937
1869.252436	2.730070
1871.023374	5.741259
1872.795689	5.734965
1874.562392	3.646154
1876.332219	2.881119
1878.098183	3.118881
1879.867271	2.986014
1881.632497	6.104196
1883.397355	4.509790
1885.163589	4.802098
1886.925965	5.425874
1888.687974	5.404895
1890.449616	2.432168
1892.210890	5.477622
1893.971798	3.188112
1895.732338	2.840559
1897.490770	3.401399
1899.248835	4.751748
1901.004793	5.445455
1902.762127	8.263636
1904.519095	6.274126
1906.273958	7.629371
1908.026715	5.127972
1909.779109	4.489510
1911.532879	-0.749650
1913.284545	-1.638462
1915.034108	-4.656643
1916.785048	-2.258741
1918.535624	-0.427273
1920.282362	-0.518881
1922.030475	0.709091
1923.776489	3.969231
1925.523879	3.290210
1927.269170	2.960140
1929.012364	0.841958
1930.756934	2.753147
1932.499407	0.688811
1934.241520	-1.094406
1935.983274	-2.091958
1937.724667	-1.867832
1939.463967	-3.588462
1941.202908	-4.765035
1942.941490	-4.610839
1944.677980	-3.427972
1946.414113	-3.316434
1948.151620	-2.835664
1949.885306	-4.591958
1951.620366	-1.095804
1953.353337	-0.606643
1955.085952	-0.094406
1956.818210	-0.291259
1958.550112	3.134266
1960.279928	2.304196
1962.007660	3.481119
1963.736766	2.798601
1965.465516	5.398601
1967.192183	6.048252
1968.918496	4.272028
1970.646182	2.203497
1972.368333	4.281119
1974.093584	4.464336
1975.815028	4.628671
1977.539572	5.742657
1979.262037	9.115385
1980.980698	5.064336
1982.702458	5.607692
1984.420416	4.504895
1986.139748	5.837762
1987.855279	3.190210
1989.575632	2.509790
1991.292186	2.276923
1993.004943	4.165734
1994.720796	5.014685
1996.434577	7.239860
1998.148008	7.097203
1999.859367	6.534266
2001.572100	4.382517
2003.281041	5.436364
2004.993076	6.209790
2006.699601	5.356643
2008.409219	4.086713
2010.116769	4.516084
2011.823972	4.858741
2013.529109	8.238462
2015.233899	8.491608
2016.940061	9.204196
2018.642441	5.334266
2020.346193	6.921678
2022.047882	7.906294
2023.749225	9.411888
2025.450223	7.963636
2027.149161	4.293706
2028.849470	0.070629
2030.546003	-0.276923
2032.243908	-2.322378
2033.939755	-3.623776
2035.638687	-4.681818
2037.332133	-1.772028
2039.026950	-0.616084
2040.721424	2.058741
2042.412130	2.739161
2044.105920	2.671329
2045.795943	0.867832
2047.487337	0.354545
2049.176678	-2.141958
2050.867389	2.972028
2052.554338	2.811189
2054.240946	3.341958
2055.928925	5.040559
2057.613144	9.930070
2059.298733	6.845455
2060.983983	7.051748
2062.667185	4.423077
2064.351757	3.146154
2066.030865	0.059441
2067.714759	1.402098
2069.393193	-0.367832
2071.074704	3.516084
2072.752463	3.867133
2074.429886	3.806993
2076.108678	2.952448
2077.785427	4.006993
2079.460135	1.358042
2081.136212	3.902098
2082.810249	2.083916
2084.483950	4.441259
2086.157316	3.264336
2087.828644	7.879720
2089.499637	6.618182
2091.170296	6.778322
2092.840621	6.694406
2094.510611	7.501399
2096.178566	3.644056
2097.846188	1.417483
2099.511776	0.609790
2101.178732	1.901399
2102.843655	2.138462
2104.508245	5.006294
2106.170804	3.118881
2107.834732	6.620979
2109.496628	5.765035
2111.158193	4.679021
2112.819428	6.823077
2114.478633	7.420280
2116.137509	6.164336
2117.796054	5.498601
2119.454270	6.828671
2121.108763	7.075524
2122.766320	6.954545
2124.423547	6.932168
2126.077054	4.572028
2127.731928	5.611189
2129.383083	5.201399
2131.037301	6.179021
2132.687801	6.340559
2134.339669	4.227273
2135.986128	4.672727
2137.637341	3.104196
2139.284842	4.163636
2140.933709	4.258741
2142.580557	4.841958
2144.227080	3.887413
2145.873277	0.158042
2147.515765	0.209790
2149.161312	-1.018182
2150.803152	-0.130070
2152.448049	-1.785315
2154.089241	-2.557343
2155.730109	-1.239860
2157.370654	1.709091
2159.009186	2.234266
2160.649084	3.741958
2162.285282	4.702797
2163.922846	4.366434
2165.560088	2.483916
2167.195320	4.192308
2168.830230	2.163636
2170.464819	0.704895
2172.099087	-1.901399
2173.729661	-2.638462
2175.363286	-2.570629
2176.993220	-0.820280
2178.624520	-3.811189
2180.253814	-2.689510
2181.882789	-2.785315
2183.511444	0.616084
2185.139780	3.067133
2186.766113	4.502797
2188.392128	5.539860
2190.016142	3.402797
2191.641521	3.332867
2193.264899	5.033566
2194.889642	6.186713
2196.510703	6.746154
2198.131449	5.488112
2199.753558	5.153846
2201.373670	3.019580
2202.991786	4.279021
2204.609586	2.644056
2206.227070	1.527972
2207.844239	3.536364
2209.461093	1.836364
2211.077632	1.530769
2212.692177	4.018881
2214.304731	5.243357
2215.918648	3.965734
2217.530573	4.623077
2219.143863	6.289510
2220.755161	6.052448
2222.364471	7.316783
2223.975143	4.788811
2225.583827	6.905594
2227.192199	5.770629
2228.798583	4.800699
2230.406331	4.809790
2232.012092	4.756643
2233.617543	5.948951
2235.221008	5.833566
2236.825836	7.952448
2238.428680	10.453147
2240.029541	10.655944
2241.631765	9.345455
2243.232007	6.329371
2244.833611	5.714685
2246.431562	3.477622
2248.030876	3.919580
2249.628210	1.051049
2251.225236	1.281818
2252.823623	1.874825
2254.418362	2.737762
2256.011125	3.382517
2257.605249	3.712587
2259.200736	2.891608
2260.792577	2.663636
2262.384112	1.997203
2263.977008	0.791608
2265.564595	3.923077
2267.156879	6.266434
2268.743855	4.428671
2270.333860	6.313986
2271.918560	4.407692
2273.507954	5.289510
2275.092045	4.909790
2276.677498	4.849650
2278.260982	4.576224
2279.847491	5.116783
2281.430367	3.672727
2283.012939	3.516084
2284.595209	6.650350
2286.173848	10.458741
2287.755512	9.554545
2289.333547	9.142657
2290.914605	7.863636
2292.492036	7.213986
2294.067504	6.123776
2295.645994	5.967832
2297.220859	5.083916
2298.795425	4.764336
2300.369689	3.455944
2301.943653	3.297203
2303.517317	3.198601
2305.090680	2.597203
2306.660425	-0.686014
2308.229871	0.739860
2309.802336	1.642657
2311.369526	2.979720
2312.939733	4.414685
2314.506327	7.449650
2316.074279	7.772028
2317.640277	9.660140
2319.205977	9.374825
2320.771379	9.931469
2322.334828	7.955944
2323.899636	6.633566
2325.460835	4.989510
2327.025049	6.498601
2328.584002	2.734965
2330.145968	3.790909
2331.705984	5.022378
2333.265704	5.612587
2334.823475	3.062937
2336.380952	3.761538
2337.938133	3.530769
2339.493368	6.069231
2341.048308	4.380420
2342.602955	5.979720
2344.157308	3.275524
2345.711367	2.042657
2347.265133	1.061538
2348.816954	4.104196
2350.366832	4.018182
2351.919718	4.520280
2353.467362	2.958042
2355.018013	4.077622
2356.565074	4.541259
2358.113492	6.256643
2359.661618	3.895105
2361.206157	7.221678
2362.752053	6.841958
2364.296010	7.470629
2365.841325	8.432168
2367.383055	8.159441
2368.926143	6.634965
2370.467294	6.325874
2372.008156	3.379021
2373.548729	3.893706
2375.089013	2.334266
2376.629008	3.603497
2378.165424	2.247552
2379.704842	5.026573
2381.240683	3.236364
2382.777880	4.889510
2384.311503	5.241958
2385.848125	6.146154
2387.382817	7.330070
2388.915578	9.365035
2390.448054	9.880420
2391.978601	10.800000
2393.512146	8.538462
2395.040480	8.714685
2396.570170	5.937063
2398.099575	6.316084
2399.628695	2.759441
2401.157529	2.809091
2402.681159	2.146853
2404.209424	4.234266
2405.732486	3.897203
2407.260183	3.558741
2408.781039	1.136364
2410.306529	0.125874
2411.828459	-2.688811
2413.351743	-2.562937
2414.873107	-4.009790
2416.392551	-2.095804
2417.913350	-0.713986
2419.432230	2.408392
2420.950828	6.727972
2422.467509	9.634266
2423.985545	8.477622
2425.503299	9.999301
2427.017501	7.614685
2428.531423	8.282517
2430.045066	6.741958
2431.560062	6.297203
2433.071511	5.336364
2434.584313	6.218182
2436.095203	7.260839
2437.605813	6.588811
2439.114512	4.595105
2440.626198	2.889510
2442.134340	1.277622
2443.642203	1.404196
2445.149789	-1.323776
2446.653835	-0.234266
2448.160865	-0.727972
2449.665987	-0.691608
2451.170832	1.417483
2452.673770	5.865035
2454.176431	6.732168
2455.678816	5.820280
2457.179296	4.244755
2458.681129	5.919580
2460.181058	6.211888
2461.680711	4.812587
2463.180089	3.554545
2464.677564	2.076224
2466.173137	-2.464336
2467.671690	-1.061538
2469.166715	-0.593706
2470.663092	1.176224
2472.155943	0.541259
2473.650146	2.283916
2475.144077	2.647552
2476.634483	3.076923
2478.127867	2.193007
2479.619353	2.948951
2481.108942	1.878322
2482.598259	-1.357343
2484.085680	-3.348951
2485.576077	-0.515385
2487.062955	-1.855245
2488.551186	0.529371
2490.035899	4.085315
2491.520342	6.280420
2493.006137	4.397902
2494.490039	4.193706
2495.975293	1.965734
2497.455413	2.690210
2498.938505	-1.270629
2500.419708	-3.765035
2501.900640	-4.537762
2503.379684	-6.354545
2504.858460	-8.175524
2506.336967	-6.846154
2507.815205	-5.221678
2509.293176	-3.169930
2510.767641	-3.136364
2512.245075	-2.636364
2513.719006	-2.487413
2515.194288	1.906294
2516.669302	2.269231
2518.140815	5.924476
2519.613679	3.748951
2521.084660	2.698601
2522.556991	0.972028
2524.024208	2.027273
2525.494392	3.023077
2526.962694	2.462937
2528.430732	0.459441
2529.898505	-1.872028
2531.366013	-3.501399
2532.833257	-3.509091
2534.297008	-6.009091
2535.762109	-3.610490
2537.225333	-4.937063
2538.689906	-2.158042
2540.150991	-0.723776
2541.613425	2.168531
2543.075596	3.755245
2544.534280	5.366434
2545.997537	7.248252
2547.455697	8.265734
2548.915206	6.097902
2550.369622	5.977622
2551.828608	4.292308
2553.285721	3.533566
2554.740964	2.334965
2556.195946	2.347552
2557.649058	1.077622
2559.103519	1.024476
2560.556111	1.018881
2562.008443	2.941958
2563.458907	4.804196
2564.912327	5.924476
2566.360665	4.148951
2567.811959	4.653846
2569.261386	4.113986
2570.707342	1.619580
2572.156252	1.260839
2573.601691	2.069930
2575.048479	0.423077
2576.493403	-0.808392
2577.938070	-2.469231
2579.384084	-2.614685
2580.826631	-2.456643
2582.270526	-1.966434
2583.710956	-4.716783
2585.152734	-4.938462
2586.592652	-4.088112
2588.033917	-2.590210
2589.471720	-0.336364
2590.912473	2.235664
2592.348163	-0.327972
2593.786803	-0.283217
2595.223586	0.586014
2596.658512	-0.092308
2598.096387	-1.534965
2599.529204	-1.623776
2600.963368	-6.668531
2602.395677	-8.218182
2603.829334	-6.361538
2605.261136	-6.187413
2606.692686	-5.605594
2608.123982	-2.860140
2609.553427	-1.818182
2610.982619	5.072028
2612.409960	7.148252
2613.838648	7.646154
2615.267083	6.741958
2616.692072	6.195804
2618.118406	4.076224
2619.542892	4.058741
2620.968724	4.869930
2622.391112	3.495105
2623.814846	3.351049
2625.236734	5.347552
2626.658371	7.202797
2628.078164	8.604196
2629.499301	5.326573
2630.920189	4.286014
2632.337639	3.256643
2633.758028	2.911888
2635.174980	3.162238
2636.591684	2.441259
2638.008139	2.715385
2639.424346	3.921678
2640.840304	3.711189
2642.254422	3.268531
2643.668293	4.985315
2645.080324	4.800699
2646.493700	3.162937
2647.903646	4.162937
2649.316528	2.569231
2650.725981	1.696503
2652.135188	-0.730769
2653.542559	-0.851748
2654.952864	0.906993
2656.361333	0.861538
2657.767967	-0.020280
2659.174356	-0.502797
2660.578911	0.918182
2661.984810	0.469930
2663.388876	-1.676923
2664.792698	-2.332867
2666.196275	-6.008392
2667.598021	-5.505594
2669.001110	-5.913287
2670.400781	-2.002098
2671.801796	-0.462238
2673.199395	0.071329
2674.599923	1.401399
2675.997037	3.827273
2677.395494	4.342657
2678.792123	4.274825
2680.188511	4.479720
2681.584656	4.391608
2682.978975	4.851049
2684.374637	6.796503
2685.766889	8.233566
2687.160485	10.903497
2688.552256	10.047552
2689.945369	11.204895
2691.336659	12.689510
2692.726126	14.620979
2694.115354	11.104895
2695.504341	9.425175
2696.894671	7.697203
2698.280016	7.765035
2699.668286	6.052448
2701.054735	5.209790
2702.440945	3.203497
2703.826916	2.797902
2705.209489	2.281119
2706.593404	4.210490
2707.977080	4.568531
2709.360519	5.302098
2710.740562	4.342657
2712.121947	7.597902
2713.501516	6.995105
2714.882427	8.116084
2716.261523	4.919580
2717.638805	3.959441
2719.017428	0.786014
2720.394237	2.412587
2721.770811	1.769930
2723.147149	2.653846
2724.521675	1.914685
2725.897542	2.874825
2727.270022	3.246154
2728.645419	4.332168
2730.015854	4.165035
2731.387631	5.288112
2732.759174	4.713287
2734.128908	5.459441
2735.499982	4.088811
2736.869249	4.053846
2738.238282	0.989510
2739.605508	-0.094406
2740.972502	-3.047552
2742.339263	-4.741958
2743.705791	-6.878322
2745.070515	-5.273427
2746.435006	-4.474825
2747.799265	-0.499301
2749.163293	-2.934965
2750.527088	0.027972
2751.887510	-0.180420
2753.250843	1.472727
2754.609233	-0.585315
2755.970533	-0.674825
2757.328462	0.874126
2758.689301	3.453147
2760.048339	5.033566
2761.404009	6.990909
2762.762588	8.104895
2764.117799	10.909091
2765.472781	5.776224
2766.825966	8.579021
2768.182058	6.288811
2769.534786	3.814685
2770.887285	-0.815385
2772.239557	-2.750350
2773.593166	-4.987413
2774.943414	-4.865734
2776.291869	-6.950350
2777.643228	-6.526573
2778.991228	-5.320979
2780.340567	-4.731469
2781.688113	-4.266434
2783.035432	-2.734266
2784.382525	-2.148252
2785.727827	-4.048951
2787.072903	-3.744755
2788.417753	-3.671329
2789.762377	-4.181818
2791.103648	-1.444755
2792.446258	-1.877622
2793.788643	2.294406
2795.130802	1.711888
2796.469612	4.765734
2797.811322	8.257343
2799.149683	9.418182
2800.489382	6.530769
2801.827295	2.774126
2803.163424	1.208392
2804.499330	-0.255245
2805.836572	-1.736364
2807.172031	-3.139860
2808.507267	-3.784615
2809.840721	-2.076923
2811.175511	-2.743357
2812.506960	3.153846
2813.841305	4.624476
2815.170752	5.420979
2816.501536	2.690909
2817.832098	3.371329
2819.160881	3.610490
2820.491001	4.358042
2821.819341	4.450350
2823.147461	4.998601
2824.473804	4.760140
2825.801482	4.851049
2827.125828	3.437762
2828.451510	5.635664
2829.775416	4.741958
2831.099102	4.395804
2832.424124	2.506993
2833.745817	0.779720
2835.067290	-2.855245
2836.388545	-2.495804
2837.709581	-2.530070
2839.028845	-1.932867
2840.349444	-3.209790
2841.668271	0.234266
2842.986880	1.206993
2844.303719	3.626573
2845.620340	2.824476
2846.936743	1.186713
2848.251378	-1.281119
2849.567347	-1.842657
2850.879997	-3.651748
2852.193981	-0.960839
2853.507749	-0.120280
2854.821300	-1.446154
2856.133084	-0.329371
2857.443103	1.641259
2858.754456	0.428671
2860.062493	-0.568531
2861.371866	-2.088811
2862.681023	-0.437063
2863.989965	1.234965
2865.297144	5.723776
2866.602559	6.436364
2867.909309	6.616783
2869.214297	7.212587
2870.519070	4.647552
2871.822083	3.705594
2873.127976	4.807692
2874.429015	2.786713
2875.731387	1.869930
2877.032000	1.039860
2878.333947	1.270629
2879.635681	0.013986
2880.934111	-0.020280
2882.233874	-2.267133
2883.531880	-5.207692
2884.829674	-5.906294
2886.125711	-6.827972
2887.423082	-4.984615
2888.718697	-0.100000
2890.014102	0.129371
2891.309295	2.522378
2892.601190	4.149650
2893.895962	4.604895
2895.187438	5.469930
2896.480246	4.705594
2897.772844	2.678322
2899.062147	2.067832
2900.352783	1.492308
2901.641669	1.738462
2902.931886	1.365035
2904.218812	1.825175
2905.507070	3.501399
2906.793579	4.603497
2908.079879	3.536364
2909.365971	3.295804
2910.650315	3.043357
2911.937531	-0.146853
2913.219920	0.704895
2914.503641	3.129371
2915.785615	3.225175
2917.067383	3.560839
2918.347405	2.125874
2919.630297	4.065734
2920.911444	3.372028
2922.189309	4.098601
2923.470043	1.447552
2924.747496	1.825175
2926.024744	-0.486713
2927.300249	-2.632168
2928.578622	-2.717483
2929.852181	-3.385315
2931.128606	-4.170629
2932.403291	-4.136364
2933.676236	-4.206993
2934.950511	0.278322
2936.223047	-2.230769
2937.495379	1.045455
2938.764438	-1.218182
2940.036362	1.813986
2941.306548	1.576224
2942.576530	2.795804
2943.846309	4.091608
2945.114351	1.803497
2946.380658	0.910490
2947.646762	4.368531
2948.914197	5.183916
2950.179896	7.462937
2951.445393	3.920979
2952.710689	4.683217
2953.972719	3.300699
2955.236079	4.990909
2956.499238	1.842657
2957.760664	0.563636
2959.023420	0.016084
2960.284445	-3.303497
2961.543739	-4.269930
2962.802832	-2.237063
2964.061725	-4.882517
2965.320418	-3.956643
2966.578911	-2.913986
2967.835675	2.501399
2969.092240	6.186014
2970.347076	9.781119
2971.603242	11.253147
2972.856152	14.436364
2974.110392	16.129371
2975.364433	14.693007
2976.616748	9.596503
2977.868865	8.684615
2979.119257	4.090210
2980.372504	4.747552
2981.620974	3.879021
2982.872298	5.306993
2984.120374	4.311189
2985.368252	5.375524
2986.615933	5.139161
2987.863418	3.987413
2989.109181	-0.136364
2990.354747	-3.690210
2991.601642	-8.223077
2992.845291	-7.150350
2994.090269	-7.976923
2995.332004	-4.760839
2996.576590	-4.495804
2997.819457	-2.277622
2999.059082	1.474126
3000.301559	5.996503
3001.540795	6.870629
3002.781359	8.758042
3004.020206	7.138462
3005.258859	6.737762
3006.495796	3.958741
3007.734061	5.046853
3008.970610	4.706993
3010.206966	5.281818
3011.443128	4.479021
3012.677576	4.995105
3013.911831	5.382517
3015.145893	5.700699
3016.378243	5.313986
3017.608881	6.739161
3018.842365	3.893706
3020.074138	1.248252
3021.304199	-0.230070
3022.534069	2.205594
3023.762229	2.557343
3024.991716	4.760140
3026.219493	3.788112
3027.447079	3.604895
3028.675991	3.300000
3029.900161	3.602098
3031.127174	2.646154
3032.350964	-1.448252
3033.576079	-3.398601
3034.799488	-4.916084
3036.022708	-5.294406
3037.244222	-3.393706
3038.468577	-2.504196
3039.688197	0.269231
3040.909143	0.958741
3042.129899	3.618182
3043.348952	5.955944
3044.569331	6.547552
3045.786493	4.964336
3047.004980	3.248252
3048.221766	4.950350
3049.438363	2.488811
3050.654773	-0.437063
3051.867969	1.293007
3053.084003	-0.109091
3054.296825	1.196503
3055.512484	0.066434
3056.723420	0.957343
3057.935682	0.545455
3059.147756	5.077622
3060.359644	4.634965
3061.569834	4.740559
3062.779839	3.340559
3063.989657	0.730070
3065.197779	2.289510
3066.405715	6.393706
3067.611957	6.913986
3068.819523	8.517483
3070.025394	4.891608
3071.231080	6.965734
3072.436582	6.707692
3073.640390	12.358741
3074.845522	9.543357
3076.048961	10.123776
3077.250708	7.986713
3078.452272	7.479021
3079.653652	7.819580
3080.854848	7.919580
3082.054354	4.726573
3083.253676	0.851748
3084.454322	-1.995804
3085.653279	-0.955944
3086.849040	-3.965035
3088.047631	-2.682517
3089.243028	-3.792308
3090.439749	-2.567133
3091.633277	-1.944056
3092.829633	2.663636
3094.024302	3.753846
3095.215781	4.407692
3096.411591	4.013287
3097.602708	8.053846
3098.795148	11.961538
3099.984399	10.725175
3101.176477	8.727972
3102.366871	8.451748
3103.554078	6.186713
3104.742609	4.049650
3105.932462	3.890909
3107.119130	5.196503
3108.305619	3.418881
3109.491928	2.181119
3110.679560	2.096503
3111.864009	6.077622
3113.046778	4.795105
3114.232371	1.927972
3115.416283	3.862238
3116.598517	5.848951
3117.780573	6.627273
3118.962450	7.336364
3120.144149	8.120280
3121.324171	9.826573
3122.502516	10.009091
3123.683681	8.481119
3124.861671	5.590909
3126.039484	4.323776
3127.217120	-0.200699
3128.393081	-1.218182
3129.568866	-0.712587
3130.745971	-0.323776
3131.921403	-0.546154
3133.095161	1.066434
3134.267246	2.844056
3135.440652	4.413986
3136.613883	4.605594
3137.785442	5.686014
3138.958321	4.947552
3140.128033	5.597203
3141.299066	5.098601
3142.468428	5.071329
3143.636121	0.512587
3144.806629	0.269231
3145.972478	-1.283217
3147.142637	0.903497
3148.308138	-1.312587
3149.473466	-2.702797
3150.638620	-2.765035
3151.803601	-1.281818
3152.969901	-0.690909
3154.131548	1.156643
3155.294516	1.364336
3156.457311	-1.160140
3157.619932	-2.517483
3158.780889	1.098601
3159.941674	0.753147
3161.102286	2.244755
3162.261234	2.072727
3163.420010	3.325175
3164.578615	4.205594
3165.737048	3.880420
3166.895309	6.076224
3168.051909	8.983217
3169.206846	6.784615
3170.363104	3.614685
3171.517700	5.204196
3172.672126	5.068531
3173.824891	2.990909
3174.977487	3.409091
3176.129913	2.527972
3177.282168	1.670629
3178.434254	-0.608392
3179.583193	-0.465035
3180.734939	1.266434
3181.885028	3.082517
3183.033459	0.280420
3184.181722	0.804895
3185.329816	2.105594
3186.477741	2.802098
3187.624010	3.850350
3188.770111	7.711189
3189.914558	5.534965
3191.058836	7.948252
3192.202947	6.686014
3193.348376	6.021678
3194.490666	4.072727
3195.632788	2.677622
3196.774744	1.841259
3197.916532	3.617483
3199.058153	1.274825
3200.196638	-0.216783
3201.336442	-0.953846
3202.477562	0.589510
3203.615548	-0.346853
3204.751885	-0.120979
3205.888056	-4.327972
3207.025545	-5.993706
3208.161385	-5.960140
3209.298542	-5.113986
3210.431086	-2.520280
3211.567911	0.108392
3212.700125	-1.776224
3213.833657	-1.624476
3214.967023	-0.886014
3216.097262	2.181119
3217.230300	2.569930
3218.360210	1.339161
3219.491438	0.376923
3220.619540	0.690210
3221.750440	0.962937
3222.879695	2.370629
3224.007307	0.407692
3225.131796	-0.384615
3226.260561	-2.163636
3227.386204	-0.690210
3228.511684	-2.790909
3229.635523	-0.457343
3230.762157	-2.694406
3231.884192	-1.158042
3233.007544	-1.660839
3234.130734	-0.418881
3235.253762	2.324476
3236.375150	4.306993
3237.496377	2.107692
3238.615965	2.109091
3239.735392	2.480420
3240.853182	4.627972
3241.973763	1.807692
3243.091231	4.508392
3244.208538	1.982517
3245.325684	2.182517
3246.441195	0.176923
3247.558021	1.716084
3248.671736	3.451049
3249.788242	1.420979
3250.903112	-2.635664
3252.014874	-1.606294
3253.126477	-1.509091
3254.239395	3.014685
3255.352153	1.277622
3256.461805	3.600000
3257.572772	2.262937
3258.683580	2.800699
3259.792756	2.130769
3260.900301	0.940559
3262.009161	-0.448951
3263.117862	-1.519580
3264.223461	-2.852448
3265.330375	2.729371
3266.435659	2.107692
3267.542257	5.463636
3268.645755	3.327273
3269.750567	4.856643
3270.855222	5.265035
3271.956779	7.206993
3273.058179	6.927972
3274.160893	6.528671
3275.263450	4.962238
3276.362912	5.442657
3277.465156	2.700000
3278.564306	1.013287
3279.661830	-1.802098
3280.759200	-1.544755
3281.859351	-2.176224
3282.956409	-3.186713
3284.053313	-2.416783
3285.150061	-2.011189
3286.242250	-1.307692
3287.338689	0.793706
3288.433505	-0.031469
3289.528166	0.504895
3290.621206	-0.958042
3291.714092	0.253846
3292.805357	2.942657
3293.897935	4.858741
3294.988893	5.504196
3296.078231	5.958741
3297.167416	4.512587
3298.257913	2.586014
3299.345326	3.813287
3300.432587	3.439860
3301.521160	4.713287
3302.609580	5.339860
3303.693453	5.947552
3304.781568	8.276224
3305.866602	7.083916
3306.950020	8.062238
3308.034750	2.979021
3309.117864	1.481818
3310.202290	-2.239161
3311.283638	-4.406993
3312.366298	-4.479720
3313.447344	-6.119580
3314.528239	-4.907692
3315.607521	-2.758741
3316.686652	1.918182
3317.767095	4.527972
3318.844463	5.782517
3319.923143	7.825175
3321.000211	4.253147
3322.077129	6.342657
3323.152437	6.463636
3324.227595	5.293007
3325.304064	3.333566
3326.377462	0.451748
3327.450712	-1.990909
3328.525273	1.565035
3329.598224	1.706993
3330.669568	2.255245
3331.742222	1.695105
3332.811809	2.358042
3333.882707	0.672727
3334.951998	0.593706
3336.022600	0.640559
3337.091595	2.362238
3338.158985	0.420280
3339.224768	-0.641958
3340.294778	2.270629
3341.361725	4.520280
3342.425610	0.772727
3343.492263	0.598601
3344.557312	1.503497
3345.620757	3.446154
3346.684055	3.734266
3347.747208	5.481119
3348.810214	3.170629
3349.873073	5.923077
3350.934331	2.658042
3351.992532	1.166434
3353.054954	2.065734
3354.114319	-2.267832
3355.173540	-6.382517
3356.234069	-6.765035
3357.290089	-5.434965
3358.348874	-5.363636
3359.403151	-4.909790
3360.460192	-5.702797
3361.515634	-10.555944
3362.572385	-7.465035
3363.627539	-9.566434
3364.681095	-7.532867
3365.733054	-6.573427
3366.787776	-5.813986
3367.839448	-4.581119
3368.890976	-2.167832
3369.943814	-3.341958
3370.993604	-1.123776
3372.044703	-0.778322
3373.092755	-0.030070
3374.143568	-1.096503
3375.191335	1.402098
3376.238960	2.171329
3377.286443	3.698601
3378.332332	2.751049
3379.379531	2.951748
3380.423686	0.514685
3381.470600	0.542657
3382.515923	-2.057343
3383.558204	-0.742657
3384.600344	-4.107692
3385.643793	-5.547552
3386.687100	-9.348252
3387.728817	-7.944056
3388.770394	-5.672727
3389.811829	-1.151748
3390.851676	0.483916
3391.889934	2.463636
3392.929500	1.478322
3393.968926	5.925175
3395.006764	5.972028
3396.043015	7.961538
3397.079126	5.386014
3398.116545	4.569930
3399.150931	2.974126
3400.186625	2.760839
3401.222179	2.229371
3402.254701	3.119580
3403.289977	-1.668531
3404.322222	-2.053846
3405.354329	-6.572028
3406.384853	-5.286014
3407.416683	-6.185315
3408.448375	-3.688112
3409.477039	-2.911189
3410.505566	0.954545
3411.535399	3.058741
3412.565095	4.528671
3413.591765	2.667832
3414.619741	3.195804
3415.644693	0.250350
3416.672396	2.215385
3417.697074	-0.952448
3418.723059	-0.205594
3419.747465	-3.209790
3420.771733	-1.974825
3421.794424	-2.175524
3422.816978	0.697203
3423.840838	2.423776
3424.861678	5.683217
3425.882382	7.649051
3426.904392	9.098102
3427.923384	9.802398
3428.942241	9.533966
3429.962404	8.064835
3430.979549	5.167033
