-118.277064	-8.510989
-115.607463	-9.890110
-112.940798	-9.070929
-110.274885	-6.588412
-107.611905	-2.977522
-104.947494	1.226773
-102.286014	5.489510
-99.623105	15.237762
-96.965303	2.321678
-94.306070	7.881119
-91.647586	2.195804
-88.992027	10.587413
-86.335039	3.027972
-83.683148	5.307692
-81.029828	-3.153846
-78.379427	-2.405594
-75.727598	0.720280
-73.080859	3.244755
-70.432690	9.643357
-67.785265	20.811189
-65.140753	17.363636
-62.494812	24.034965
-59.853954	27.279720
-57.211665	33.174825
-54.572286	27.426573
-51.931478	30.993007
-49.291409	28.538462
-46.656414	25.811189
-44.019989	11.734266
-41.386468	5.237762
-38.751517	8.433566
-36.121633	3.188811
-33.488155	-8.153846
-30.859740	-5.216783
-28.232059	-6.678322
-25.602950	-2.762238
-22.978897	-21.286713
-20.351254	-72.972028
-17.728666	-177.251748
-15.106808	-127.125874
-12.485681	284.797203
-9.865285	956.846154
-7.247776	1507.356643
-4.628839	1873.972028
-2.012788	2072.601399
0.602536	2098.860140
3.217131	1937.062937
5.828845	1612.636364
8.441986	1126.923077
11.050095	537.923077
13.661784	-20.230769
16.268443	-282.559441
18.876530	-193.272727
21.483893	-7.244755
24.086231	18.209790
26.692147	22.853147
29.293042	34.013986
31.895364	28.566434
34.492668	18.146853
37.093548	17.174825
39.689414	16.006993
42.286707	7.461538
44.883281	-5.412587
47.474846	-5.006993
50.067839	-4.993007
52.657972	-0.377622
55.249531	0.713287
57.838231	1.853147
60.428359	7.167832
63.013487	7.433566
65.600043	6.951049
68.185884	11.419580
70.768872	10.510490
73.353287	5.286713
75.930572	5.692308
78.511424	18.006993
81.089427	18.104895
83.666720	17.412587
86.245440	23.867133
88.819177	19.027972
91.394341	22.223776
93.966662	30.111888
96.538276	26.342657
99.107049	31.636364
101.677249	26.664336
104.244610	24.650350
106.813398	18.251748
109.379349	21.720280
111.942464	11.419580
114.509137	3.321678
117.066587	3.468531
119.629723	1.111888
122.187900	11.608392
124.749631	18.517483
127.306405	25.321678
129.864605	48.685315
132.417853	68.965035
134.970402	96.713287
137.526503	122.153846
140.077655	160.447552
142.628110	174.384615
145.177867	205.552448
147.724805	222.706294
150.271048	244.342657
152.818716	254.580420
155.365688	254.335664
157.907724	251.300699
160.449068	249.972028
162.989718	240.790210
165.531793	234.552448
168.071058	216.762238
170.607513	211.041958
173.143278	196.790210
175.680468	204.041958
178.216967	195.496503
180.750660	208.125874
183.281549	207.741259
185.811750	206.881119
188.343376	208.412587
190.872202	216.664336
193.398228	227.867133
195.923568	226.797203
198.450333	222.321678
200.974302	216.727273
203.497585	212.727273
206.020184	218.237762
208.539990	216.867133
211.059113	230.286713
213.577553	225.944056
216.097418	227.671329
218.610280	227.384615
221.126674	242.748252
223.642387	250.321678
226.153209	245.748252
228.665456	249.153846
231.174920	241.657343
233.683706	233.118881
236.191814	233.545455
238.701346	232.797203
241.205997	238.419580
243.709972	233.356643
246.215371	231.230769
248.715895	220.559441
251.219942	236.020979
253.717019	237.300699
256.217618	243.083916
258.715446	252.874126
261.212601	257.328671
263.709084	256.174825
266.200703	262.734266
268.695841	261.139860
271.188214	262.160839
273.679916	261.832168
276.168855	258.244755
278.659217	249.482517
281.146818	246.027972
283.631659	237.377622
286.120014	237.657343
288.601431	244.650350
291.086361	239.734266
293.566445	235.916084
296.050042	233.440559
298.528797	221.818182
301.008974	234.027972
303.486400	244.916084
305.963162	250.580420
308.439260	260.090909
310.912610	279.909091
313.385299	298.804196
315.857326	321.538462
318.328691	332.608392
320.797313	329.538462
323.265275	325.300699
325.734660	315.706294
328.199222	297.006993
330.667287	296.489510
333.130533	276.335664
335.593122	269.594406
338.055053	267.349650
340.516328	269.335664
342.974869	262.139860
345.434832	265.839161
347.892063	264.979021
350.348639	267.265734
352.804560	264.972028
355.257753	266.139860
357.712368	262.307692
360.162181	256.384615
362.615490	249.076923
365.064000	253.692308
367.511860	245.699301
369.961141	245.587413
372.405629	238.860140
374.851539	246.846154
377.296800	247.699301
379.739342	244.174825
382.181236	243.825175
384.622482	240.629371
387.061013	243.811189
389.500966	239.958042
391.938205	248.083916
394.372732	256.776224
396.810747	253.069930
399.243985	256.979021
401.678645	253.146853
404.108532	250.846154
406.541904	243.769231
408.970506	239.398601
411.398466	243.048951
413.827847	237.160839
416.252464	247.783217
418.678501	249.790210
421.103899	263.111888
423.528656	268.594406
425.948654	261.944056
428.370074	263.538462
430.788797	265.363636
433.208941	258.769231
435.626390	261.321678
438.045259	265.909091
440.461435	260.874126
442.872864	266.174825
445.287769	270.020979
447.699984	273.272727
450.111565	271.202797
452.522513	266.195804
454.930773	262.741259
457.338402	267.818182
459.745398	260.041958
462.151762	254.027972
464.555445	260.545455
466.958497	253.279720
469.360919	250.069930
471.762711	250.965035
474.161825	253.566434
476.562359	258.013986
478.962264	253.489510
481.357447	259.951049
483.756095	259.867133
486.150024	262.755245
488.543327	244.601399
490.936004	235.356643
493.328056	226.363636
495.721527	221.202797
498.110285	217.391608
500.496377	222.482517
502.883889	233.202797
505.270777	230.566434
507.655002	229.153846
510.040646	231.300699
512.423627	233.587413
514.803948	234.405594
517.185688	220.916084
519.564770	212.790210
521.945269	210.146853
524.323111	214.825175
526.698298	209.664336
529.072867	214.517483
531.448855	206.573427
533.822189	200.720280
536.196942	193.146853
538.567008	178.314685
540.936459	169.804196
543.307329	170.048951
545.673517	167.000000
548.041124	158.979021
550.406085	162.657343
552.770434	170.874126
555.134169	181.993007
557.499322	196.489510
559.859803	193.545455
562.221701	205.076923
564.580960	203.000000
566.937580	199.461538
569.297646	201.720280
571.651020	213.552448
574.007839	204.097902
576.362023	195.643357
578.715598	192.741259
581.068565	190.650350
583.418901	186.958042
585.770654	181.643357
588.115729	166.412587
590.466269	169.573427
592.810136	167.832168
595.159464	173.629371
597.504143	185.741259
599.846198	187.594406
602.189670	178.755245
604.530519	189.650350
606.870765	182.797203
609.208391	190.069930
611.549452	180.230769
613.885876	170.314685
616.223716	164.069930
618.558938	156.293706
620.891545	160.440559
623.225569	164.426573
625.556978	172.797203
627.887789	165.223776
630.218002	165.965035
632.547618	174.888112
634.872610	170.062937
637.203044	170.958042
639.528856	157.000000
641.852062	156.951049
644.176684	159.678322
646.498700	162.629371
648.820122	172.636364
651.138941	178.167832
653.459176	182.237762
655.778818	184.958042
658.095859	187.083916
660.412309	180.811189
662.726160	174.125874
665.041426	164.468531
667.354096	158.356643
669.668181	156.104895
671.977667	143.713287
674.288567	141.951049
676.596875	140.776224
678.904595	143.776224
681.213730	144.650350
683.518272	149.965035
685.822228	147.783217
688.125597	141.118881
690.430381	139.125874
692.730579	137.419580
695.032192	142.559441
697.333219	136.300699
699.629665	124.769231
701.927525	137.090909
704.224803	137.545455
706.521496	148.867133
708.813614	155.636364
711.109143	170.027972
713.400099	177.300699
715.692469	183.342657
717.982263	185.706294
720.271478	192.524476
722.560113	187.811189
724.846175	179.692308
727.133651	171.237762
729.418557	170.580420
731.702884	150.384615
733.984644	147.384615
736.267817	143.510490
738.550413	151.265734
740.828453	147.125874
743.107907	149.664336
745.386786	155.405594
747.665090	154.195804
749.938843	150.783217
752.214011	158.167832
754.488605	163.251748
756.760640	162.195804
759.034088	155.307692
761.304978	162.832168
763.573312	167.657343
765.843059	181.804196
768.110251	185.335664
770.376873	194.706294
772.642926	191.804196
774.906427	184.573427
777.171340	181.125874
779.435685	179.510490
781.695499	171.888112
783.956727	164.300699
786.217387	148.097902
788.475500	154.741259
790.731070	157.888112
792.990029	161.888112
795.242490	161.573427
797.500318	161.783217
799.753627	156.230769
802.004395	165.363636
804.256576	173.426573
806.506219	170.461538
808.757273	171.846154
811.003816	173.510490
813.251772	162.881119
815.497192	166.720280
817.744025	164.496503
819.990295	158.321678
822.232062	148.118881
824.477211	151.041958
826.715888	147.363636
828.957948	153.594406
831.195509	147.755245
833.434481	142.489510
835.670928	149.573427
837.908785	149.594406
840.144117	153.454545
842.376925	153.664336
844.611145	161.272727
846.842843	165.489510
849.073986	165.650350
851.304574	166.027972
853.534608	160.909091
855.764087	157.671329
857.989086	143.888112
860.217458	141.216783
862.441352	131.951049
864.666656	136.062937
866.887485	134.825175
869.111687	131.916084
871.331415	139.671329
873.552553	152.405594
875.773141	166.629371
877.991220	160.622378
880.210708	173.279720
882.425730	179.349650
884.640204	180.027972
886.854131	172.482517
889.067510	166.048951
891.280343	163.797203
893.492628	150.552448
895.702412	139.419580
897.911650	144.944056
900.120342	158.881119
902.326536	165.034965
904.534139	164.692308
906.739245	179.979021
908.943807	182.741259
911.145874	183.853147
913.349350	187.825175
915.550332	175.769231
917.750772	171.419580
919.952621	163.783217
922.148079	159.832168
924.346895	172.104895
926.541274	176.853147
928.739010	175.132867
930.932310	172.020979
933.127018	173.300699
935.319241	171.902098
937.510926	184.300699
939.702073	189.167832
941.890737	185.629371
944.078864	200.293706
946.264511	194.384615
948.453511	203.461538
950.638086	202.363636
952.822127	189.972028
955.009518	179.300699
957.188606	168.111888
959.371044	169.167832
961.552947	174.629371
963.732377	178.601399
965.909334	175.636364
968.087699	193.055944
970.267470	199.265734
972.440893	197.251748
974.617663	209.069930
976.790025	195.811189
978.963795	187.076923
981.133161	179.587413
983.305871	172.125874
985.476115	172.384615
987.645831	175.895105
989.815018	184.321678
991.979808	191.713287
994.147940	218.622378
996.311676	217.370629
998.476820	221.559441
1000.639504	221.195804
1002.801663	220.937063
1004.961364	241.706294
1007.120542	240.181818
1009.281126	236.461538
1011.439255	245.363636
1013.596860	243.797203
1015.753942	245.510490
1017.910501	238.958042
1020.062680	226.965035
1022.216266	205.524476
1024.369330	189.965035
1026.519945	171.685315
1028.671966	167.363636
1030.819615	176.748252
1032.970594	186.461538
1035.117204	177.888112
1037.263294	182.384615
1039.408866	194.993007
1041.555842	192.020979
1043.696531	199.398601
1045.840548	197.489510
1047.982126	202.727273
1050.123186	209.545455
1052.265651	226.818182
1054.401837	223.020979
1056.541349	243.818182
1058.676505	250.237762
1060.814986	230.412587
1062.949114	232.048951
1065.082728	236.027972
1067.217746	219.440559
1069.348415	204.965035
1071.480490	194.958042
1073.610134	184.706294
1075.739267	186.419580
1077.867889	183.174825
1079.995999	168.447552
1082.121683	202.076923
1084.246857	204.678322
1086.373434	214.475524
1088.495675	219.776224
1090.619320	229.615385
1092.738630	251.104895
1094.863169	246.692308
1096.981464	256.783217
1099.101162	271.286713
1101.218442	285.461538
1103.335216	266.986014
1105.451483	263.174825
1107.565335	281.503497
1109.680590	253.888112
1111.791523	229.860140
1113.905768	218.489510
1116.015692	229.503497
1118.127019	229.916084
1120.237843	208.860140
1122.344350	214.692308
1124.454166	236.216783
1126.559668	231.482517
1128.666574	207.615385
1130.767264	210.097902
1132.873165	216.349650
1134.974758	191.930070
1137.077754	191.384615
1139.180249	206.244755
1141.276538	230.118881
1143.378033	224.307692
1145.475226	214.993007
1147.571920	232.006993
1149.668117	236.594406
1151.763815	236.636364
1153.859016	244.447552
1155.951820	250.923077
1158.046026	247.524476
1160.134041	233.748252
1162.227254	224.496503
1164.314279	223.027972
1166.404604	234.678322
1168.490640	227.503497
1170.579974	237.713287
1172.663127	244.097902
1174.747683	254.307692
1176.833639	263.384615
1178.915315	271.510490
1180.998391	270.153846
1183.079082	262.391608
1185.159282	241.146853
1187.238990	226.244755
1189.318207	222.160839
1191.395041	219.083916
1193.469495	213.811189
1195.547241	208.272727
1197.620716	195.468531
1199.695593	211.979021
1201.766202	206.951049
1203.838212	219.629371
1205.907846	219.727273
1207.978881	221.069930
1210.049428	213.370629
1212.115715	217.951049
1214.183401	227.181818
1216.248716	228.223776
1218.315431	233.356643
1220.377890	234.174825
1222.443635	243.986014
1224.505125	246.000000
1226.568015	245.461538
1228.628538	248.447552
1230.688578	243.489510
1232.748134	245.251748
1234.805326	241.384615
1236.862035	241.265734
1238.916382	249.559441
1240.974009	256.055944
1243.029274	268.993007
1245.080298	285.916084
1247.132723	295.104895
1249.184667	290.426573
1251.234253	295.741259
1253.283360	295.895105
1255.331988	287.650350
1257.380138	278.419580
1259.427810	270.090909
1261.471251	256.993007
1263.517967	241.678322
1265.562331	237.762238
1267.606217	247.139860
1269.647753	249.552448
1271.686939	246.888112
1273.729397	247.510490
1275.767634	248.881119
1277.807268	251.174825
1279.846428	244.678322
1281.881370	254.321678
1283.917710	265.265734
1285.951705	261.832168
1287.987099	251.958042
1290.018279	274.020979
1292.050858	289.405594
1294.082964	290.496503
1296.112730	293.692308
1298.143894	305.013986
1300.170850	298.181818
1302.199204	289.559441
1304.223354	296.958042
1306.250769	309.804196
1308.273981	311.531469
1310.298591	315.601399
1312.320866	319.090909
1314.344539	348.629371
1316.365879	335.552448
1318.386752	337.951049
1320.407157	334.510490
1322.423369	337.559441
1324.440978	332.097902
1326.456259	325.202797
1328.474799	339.048951
1330.489149	342.090909
1332.501174	349.405594
1334.516457	364.433566
1336.527554	369.874126
1338.540047	384.594406
1340.548358	380.013986
1342.559925	383.580420
1344.565453	381.062937
1346.574235	384.748252
1348.578841	383.811189
1350.586700	375.244755
1352.594097	368.062937
1354.595462	359.230769
1356.598225	368.146853
1358.600528	373.000000
1360.602370	362.699301
1362.603754	362.888112
1364.602823	351.818182
1366.601434	353.825175
1368.599587	351.496503
1370.597282	348.006993
1372.590813	344.139860
1374.585741	340.468531
1376.580212	326.545455
1378.574226	335.678322
1380.565933	342.237762
1382.557184	341.720280
1384.546130	315.797203
1386.536471	317.762238
1388.526357	306.223776
1390.513940	311.027972
1392.501069	304.419580
1394.485896	296.503497
1396.472118	288.678322
1398.456039	294.244755
1400.439508	292.699301
1402.422525	296.279720
1404.403244	296.720280
1406.385357	300.461538
1408.365173	289.902098
1410.344539	300.902098
1412.319766	300.685315
1414.298231	311.279720
1416.274403	308.783217
1418.250125	300.398601
1420.225398	285.566434
1422.198381	280.517483
1424.170915	266.797203
1426.143001	254.965035
1428.114639	250.405594
1430.082150	247.286713
1432.054734	244.832168
1434.019512	255.790210
1435.989363	273.923077
1437.955089	291.902098
1439.922209	298.258741
1441.887045	303.503497
1443.847761	291.811189
1445.813545	281.937063
1447.773374	277.055944
1449.734596	270.447552
1451.697211	257.867133
1453.655711	260.181818
1455.613769	255.335664
1457.571384	250.132867
1459.528558	249.272727
1461.483456	254.370629
1463.439746	270.335664
1465.393762	268.881119
1467.347338	266.699301
1469.298641	267.202797
1471.251336	274.202797
1473.201760	268.797203
1475.151745	268.069930
1477.101291	270.923077
1479.048567	263.524476
1480.993577	267.125874
1482.939979	261.636364
1484.885943	276.755245
1486.831470	297.468531
1488.774731	302.825175
1490.717556	297.335664
1492.658118	291.083916
1494.600072	286.454545
1496.539763	276.090909
1498.479019	258.125874
1500.417841	247.986014
1502.354403	257.447552
1504.292355	272.139860
1506.228050	264.755245
1508.163311	279.538462
1510.096315	290.643357
1512.028887	294.517483
1513.961027	280.839161
1515.892735	284.825175
1517.822190	292.132867
1519.753034	293.769231
1521.683448	291.993007
1523.609789	302.468531
1525.537520	327.965035
1527.463001	328.447552
1529.388053	323.034965
1531.312676	318.293706
1533.236870	317.398601
1535.158817	313.881119
1537.082153	305.888112
1539.003244	301.440559
1540.922090	306.349650
1542.842326	323.237762
1544.760318	349.755245
1546.677884	367.202797
1548.593209	387.867133
1550.509922	393.111888
1552.422581	403.811189
1554.338444	420.685315
1556.252068	448.510490
1558.163453	477.272727
1560.076227	529.426573
1561.984953	582.776224
1563.895067	667.384615
1565.804758	766.139860
1567.714026	862.300699
1569.621059	944.272727
1571.525860	1009.580420
1573.432050	1043.167832
1575.336009	1047.545455
1577.239546	1025.965035
1579.142662	981.167832
1581.043550	911.188811
1582.945826	848.867133
1584.845873	752.356643
1586.747309	677.566434
1588.644710	618.741259
1590.541694	566.678322
1592.438259	535.258741
1594.336211	513.664336
1596.228329	485.713287
1598.123641	455.307692
1600.018534	428.510490
1601.911207	430.510490
1603.803462	418.951049
1605.693498	414.048951
1607.583118	404.125874
1609.472323	411.209790
1611.361112	429.699301
1613.247685	413.727273
1615.135645	418.979021
1617.019588	402.118881
1618.904918	369.559441
1620.789835	336.048951
1622.672538	331.489510
1624.556628	329.930070
1626.436706	315.706294
1628.318171	305.419580
1630.197426	300.909091
1632.078067	298.244755
1633.952905	306.937063
1635.832723	283.223776
1637.708536	279.328671
1639.583940	259.062937
1641.460729	249.573427
1643.331721	243.153846
1645.205896	245.321678
1647.076071	246.804196
1648.949427	254.006993
1650.820580	252.615385
1652.689531	232.797203
1654.559868	229.832168
1656.426211	238.790210
1658.293941	223.923077
1660.159471	215.426573
1662.026386	200.783217
1663.889313	205.874126
1665.753625	198.671329
1667.615742	207.979021
1669.477453	209.853147
1671.340549	232.839161
1673.201451	231.538462
1675.060159	226.622378
1676.918465	247.636364
1678.778154	250.524476
1680.632077	235.363636
1682.489173	224.055944
1684.345865	211.384615
1686.198582	212.580420
1688.054470	197.000000
1689.906384	179.426573
1691.757897	148.867133
1693.609009	159.223776
1695.459720	146.741259
1697.310031	132.944056
1699.158158	140.839161
1701.007668	152.587413
1702.851430	157.328671
1704.700142	171.475524
1706.543107	193.811189
1708.389238	208.594406
1710.231408	212.839161
1712.076742	208.125874
1713.916336	215.314685
1715.757314	216.587413
1717.599676	207.601399
1719.438080	187.923077
1721.277868	171.293706
1723.115481	186.853147
1724.952698	157.132867
1726.787742	171.426573
1728.624169	170.867133
1730.458424	187.552448
1732.292285	176.181818
1734.125751	175.118881
1735.955271	176.174825
1737.787950	166.440559
1739.616685	153.888112
1741.448578	136.657343
1743.276528	119.958042
1745.104086	128.454545
1746.931253	109.594406
1748.758028	142.160839
1750.584411	154.979021
1752.406858	167.111888
1754.232459	169.146853
1756.054126	192.055944
1757.877175	183.538462
1759.698063	185.825175
1761.518561	186.699301
1763.340441	180.314685
1765.156621	182.727273
1766.975953	180.776224
1768.791358	175.657343
1770.609914	177.804196
1772.424544	176.006993
1774.238787	186.629371
1776.052644	214.979021
1777.866114	210.510490
1779.677430	213.405594
1781.490128	224.314685
1783.302439	212.223776
1785.110833	211.671329
1786.920608	212.748252
1788.726467	218.244755
1790.535473	220.000000
1792.340565	218.650350
1794.147037	235.916084
1795.953126	238.013986
1797.755305	212.265734
1799.560627	196.188811
1801.362041	207.825175
1803.164835	188.692308
1804.963724	162.027972
1806.763992	170.118881
1808.563880	156.440559
1810.361625	162.713287
1812.158990	181.377622
1813.955974	175.083916
1815.752578	171.881119
1817.547043	157.860140
1819.342888	144.909091
1821.133077	150.552448
1822.928163	152.517483
1824.717596	144.419580
1826.510167	133.503497
1828.300602	146.342657
1830.088902	133.090909
1831.880338	133.286713
1833.666129	125.300699
1835.453298	118.853147
1837.238337	116.923077
1839.026508	131.447552
1840.810794	143.384615
1842.592951	156.650350
1844.376487	167.104895
1846.157894	171.664336
1847.940679	163.069930
1849.719585	170.125874
1851.499869	170.804196
1853.278028	160.965035
1855.057564	162.895105
1856.834976	170.300699
1858.610264	167.090909
1860.386931	166.867133
1862.161475	178.482517
1863.937396	176.979021
1865.707698	175.727273
1867.481127	166.076923
1869.252436	156.048951
1871.023374	146.552448
1872.795689	139.860140
1874.562392	136.363636
1876.332219	159.657343
1878.098183	162.020979
1879.867271	160.006993
1881.632497	168.272727
1883.397355	175.132867
1885.163589	169.048951
1886.925965	171.895105
1888.687974	176.573427
1890.449616	175.314685
1892.210890	149.671329
1893.971798	141.937063
1895.732338	142.909091
1897.490770	141.377622
1899.248835	143.902098
1901.004793	148.062937
1902.762127	166.139860
1904.519095	160.923077
1906.273958	170.993007
1908.026715	183.244755
1909.779109	181.916084
1911.532879	167.062937
1913.284545	155.713287
1915.034108	154.622378
1916.785048	146.384615
1918.535624	132.685315
1920.282362	144.713287
1922.030475	146.055944
1923.776489	154.832168
1925.523879	174.580420
1927.269170	199.496503
1929.012364	193.923077
1930.756934	179.566434
1932.499407	180.923077
1934.241520	183.524476
1935.983274	180.835664
1937.724667	171.685315
1939.463967	161.234266
1941.202908	153.923077
1942.941490	145.241259
1944.677980	152.384615
1946.414113	164.905594
1948.151620	172.573427
1949.885306	160.052448
1951.620366	157.839161
1953.353337	172.269231
1955.085952	166.174825
1956.818210	159.136364
1958.550112	158.664336
1960.279928	169.524476
1962.007660	165.405594
1963.736766	167.216783
1965.465516	160.139860
1967.192183	169.671329
1968.918496	176.692308
1970.646182	167.741259
1972.368333	168.482517
1974.093584	174.909091
1975.815028	169.657343
1977.539572	158.846154
1979.262037	158.769231
1980.980698	159.629371
1982.702458	151.237762
1984.420416	132.874126
1986.139748	130.104895
1987.855279	141.251748
1989.575632	141.874126
1991.292186	155.517483
1993.004943	161.286713
1994.720796	179.384615
1996.434577	188.538462
1998.148008	187.706294
1999.859367	197.573427
2001.572100	186.629371
2003.281041	178.503497
2004.993076	164.916084
2006.699601	163.601399
2008.409219	161.580420
2010.116769	165.608392
2011.823972	176.097902
2013.529109	165.538462
2015.233899	173.559441
2016.940061	174.671329
2018.642441	169.489510
2020.346193	164.657343
2022.047882	157.692308
2023.749225	154.363636
2025.450223	166.552448
2027.149161	178.776224
2028.849470	189.279720
2030.546003	194.622378
2032.243908	190.916084
2033.939755	182.223776
2035.638687	175.461538
2037.332133	163.797203
2039.026950	154.699301
2040.721424	139.818182
2042.412130	140.986014
2044.105920	139.881119
2045.795943	147.643357
2047.487337	150.412587
2049.176678	141.972028
2050.867389	156.587413
2052.554338	158.279720
2054.240946	162.671329
2055.928925	168.405594
2057.613144	162.384615
2059.298733	159.167832
2060.983983	150.832168
2062.667185	150.755245
2064.351757	153.013986
2066.030865	134.000000
2067.714759	136.979021
2069.393193	118.006993
2071.074704	125.643357
2072.752463	125.055944
2074.429886	137.104895
2076.108678	138.440559
2077.785427	133.839161
2079.460135	140.748252
2081.136212	164.468531
2082.810249	168.895105
2084.483950	176.657343
2086.157316	167.720280
2087.828644	170.510490
2089.499637	143.972028
2091.170296	145.188811
2092.840621	144.104895
2094.510611	142.650350
2096.178566	125.650350
2097.846188	115.293706
2099.511776	126.083916
2101.178732	140.307692
2102.843655	140.797203
2104.508245	153.986014
2106.170804	152.902098
2107.834732	160.888112
2109.496628	165.790210
2111.158193	176.384615
2112.819428	167.433566
2114.478633	167.104895
2116.137509	153.958042
2117.796054	149.762238
2119.454270	158.083916
2121.108763	174.048951
2122.766320	162.853147
2124.423547	157.951049
2126.077054	149.237762
2127.731928	151.468531
2129.383083	152.986014
2131.037301	148.328671
2132.687801	138.636364
2134.339669	146.727273
2135.986128	155.132867
2137.637341	168.615385
2139.284842	176.503497
2140.933709	184.573427
2142.580557	172.839161
2144.227080	176.706294
2145.873277	170.664336
2147.515765	169.776224
2149.161312	164.202797
2150.803152	157.356643
2152.448049	145.678322
2154.089241	151.013986
2155.730109	160.510490
2157.370654	161.405594
2159.009186	168.986014
2160.649084	169.643357
2162.285282	175.153846
2163.922846	178.979021
2165.560088	175.615385
2167.195320	188.000000
2168.830230	181.538462
2170.464819	173.545455
2172.099087	168.685315
2173.729661	166.622378
2175.363286	158.776224
2176.993220	146.853147
2178.624520	145.475524
2180.253814	138.986014
2181.882789	143.860140
2183.511444	150.083916
2185.139780	140.804196
2186.766113	146.818182
2188.392128	151.475524
2190.016142	159.258741
2191.641521	163.678322
2193.264899	169.181818
2194.889642	165.811189
2196.510703	173.398601
2198.131449	179.727273
2199.753558	175.223776
2201.373670	177.643357
2202.991786	169.181818
2204.609586	144.230769
2206.227070	140.000000
2207.844239	140.314685
2209.461093	132.286713
2211.077632	123.027972
2212.692177	137.874126
2214.304731	144.902098
2215.918648	163.538462
2217.530573	170.916084
2219.143863	166.006993
2220.755161	170.622378
2222.364471	168.720280
2223.975143	176.783217
2225.583827	173.517483
2227.192199	161.790210
2228.798583	145.146853
2230.406331	134.265734
2232.012092	140.545455
2233.617543	143.671329
2235.221008	156.391608
2236.825836	161.090909
2238.428680	165.328671
2240.029541	170.482517
2241.631765	174.832168
2243.232007	192.804196
2244.833611	178.755245
2246.431562	166.853147
2248.030876	152.804196
2249.628210	145.195804
2251.225236	145.909091
2252.823623	155.552448
2254.418362	171.314685
2256.011125	169.874126
2257.605249	181.202797
2259.200736	175.300699
2260.792577	172.083916
2262.384112	190.013986
2263.977008	192.503497
2265.564595	185.832168
2267.156879	176.797203
2268.743855	182.853147
2270.333860	179.580420
2271.918560	179.559441
2273.507954	181.181818
2275.092045	171.258741
2276.677498	163.335664
2278.260982	146.601399
2279.847491	136.804196
2281.430367	143.524476
2283.012939	140.653846
2284.595209	135.720280
2286.173848	135.458042
2287.755512	127.972028
2289.333547	117.961538
2290.914605	114.013986
2292.492036	124.108392
2294.067504	146.972028
2295.645994	162.500000
2297.220859	173.881119
2298.795425	184.751748
2300.369689	186.958042
2301.943653	193.842657
2303.517317	190.384615
2305.090680	174.713287
2306.660425	153.258741
2308.229871	135.419580
2309.802336	132.650350
2311.369526	132.741259
2312.939733	147.594406
2314.506327	142.524476
2316.074279	134.237762
2317.640277	128.671329
2319.205977	128.069930
2320.771379	135.237762
2322.334828	128.888112
2323.899636	125.825175
2325.460835	139.706294
2327.025049	134.965035
2328.584002	146.496503
2330.145968	143.762238
2331.705984	137.524476
2333.265704	126.230769
2334.823475	121.818182
2336.380952	128.412587
2337.938133	138.251748
2339.493368	126.944056
2341.048308	119.377622
2342.602955	129.720280
2344.157308	137.664336
2345.711367	132.279720
2347.265133	128.027972
2348.816954	130.517483
2350.366832	121.209790
2351.919718	133.720280
2353.467362	135.720280
2355.018013	162.776224
2356.565074	157.048951
2358.113492	139.923077
2359.661618	132.587413
2361.206157	139.559441
2362.752053	131.503497
2364.296010	131.188811
2365.841325	137.713287
2367.383055	142.279720
2368.926143	148.398601
2370.467294	157.811189
2372.008156	157.048951
2373.548729	177.083916
2375.089013	164.118881
2376.629008	152.335664
2378.165424	161.384615
2379.704842	187.293706
2381.240683	179.097902
2382.777880	177.426573
2384.311503	186.489510
2385.848125	171.230769
2387.382817	165.349650
2388.915578	152.881119
2390.448054	158.216783
2391.978601	167.741259
2393.512146	158.265734
2395.040480	158.020979
2396.570170	182.034965
2398.099575	191.552448
2399.628695	175.321678
2401.157529	168.076923
2402.681159	158.685315
2404.209424	156.433566
2405.732486	156.314685
2407.260183	164.181818
2408.781039	171.503497
2410.306529	178.097902
2411.828459	172.769231
2413.351743	170.517483
2414.873107	178.097902
2416.392551	164.881119
2417.913350	165.076923
2419.432230	175.461538
2420.950828	175.034965
2422.467509	182.881119
2423.985545	168.545455
2425.503299	171.720280
2427.017501	146.062937
2428.531423	142.265734
2430.045066	129.125874
2431.560062	102.027972
2433.071511	97.111888
2434.584313	96.615385
2436.095203	121.657343
2437.605813	137.545455
2439.114512	163.433566
2440.626198	186.951049
2442.134340	202.405594
2443.642203	215.587413
2445.149789	193.797203
2446.653835	197.447552
2448.160865	186.594406
2449.665987	180.223776
2451.170832	183.321678
2452.673770	192.482517
2454.176431	178.314685
2455.678816	174.265734
2457.179296	202.153846
2458.681129	189.594406
2460.181058	174.125874
2461.680711	161.972028
2463.180089	144.377622
2464.677564	145.279720
2466.173137	155.972028
2467.671690	172.664336
2469.166715	183.748252
2470.663092	206.013986
2472.155943	191.048951
2473.650146	213.811189
2475.144077	223.860140
2476.634483	193.370629
2478.127867	165.048951
2479.619353	162.636364
2481.108942	141.839161
2482.598259	149.363636
2484.085680	141.867133
2485.576077	129.090909
2487.062955	134.237762
2488.551186	132.706294
2490.035899	112.447552
2491.520342	110.048951
2493.006137	117.125874
2494.490039	105.832168
2495.975293	112.412587
2497.455413	138.608392
2498.938505	147.167832
2500.419708	171.601399
2501.900640	171.412587
2503.379684	156.419580
2504.858460	172.013986
2506.336967	154.440559
2507.815205	150.286713
2509.293176	143.860140
2510.767641	150.139860
2512.245075	158.552448
2513.719006	154.545455
2515.194288	168.216783
2516.669302	169.951049
2518.140815	176.594406
2519.613679	176.993007
2521.084660	170.783217
2522.556991	198.888112
2524.024208	177.923077
2525.494392	187.755245
2526.962694	181.482517
2528.430732	179.769231
2529.898505	199.440559
2531.366013	188.321678
2532.833257	194.741259
2534.297008	177.762238
2535.762109	173.741259
2537.225333	167.146853
2538.689906	165.517483
2540.150991	155.020979
2541.613425	150.363636
2543.075596	171.440559
2544.534280	173.720280
2545.997537	180.006993
2547.455697	187.097902
2548.915206	184.538462
2550.369622	185.825175
2551.828608	183.482517
2553.285721	193.909091
2554.740964	192.986014
2556.195946	207.951049
2557.649058	205.300699
2559.103519	221.153846
2560.556111	208.566434
2562.008443	199.699301
2563.458907	181.153846
2564.912327	173.377622
2566.360665	151.055944
2567.811959	149.321678
2569.261386	135.111888
2570.707342	133.209790
2572.156252	137.174825
2573.601691	137.622378
2575.048479	120.965035
2576.493403	118.881119
2577.938070	127.510490
2579.384084	133.783217
2580.826631	144.699301
2582.270526	154.965035
2583.710956	149.132867
2585.152734	155.986014
2586.592652	155.755245
2588.033917	165.811189
2589.471720	180.447552
2590.912473	176.349650
2592.348163	179.769231
2593.786803	194.678322
2595.223586	220.958042
2596.658512	224.279720
2598.096387	243.825175
2599.529204	227.972028
2600.963368	211.755245
2602.395677	184.377622
2603.829334	157.580420
2605.261136	133.783217
2606.692686	130.825175
2608.123982	119.020979
2609.553427	124.048951
2610.982619	132.468531
2612.409960	153.909091
2613.838648	169.118881
2615.267083	187.076923
2616.692072	197.090909
2618.118406	201.062937
2619.542892	204.692308
2620.968724	201.461538
2622.391112	202.160839
2623.814846	207.671329
2625.236734	195.433566
2626.658371	203.538462
2628.078164	203.000000
2629.499301	195.657343
2630.920189	187.013986
2632.337639	172.209790
2633.758028	177.895105
2635.174980	183.153846
2636.591684	194.559441
2638.008139	208.300699
2639.424346	211.636364
2640.840304	210.622378
2642.254422	211.545455
2643.668293	239.636364
2645.080324	246.888112
2646.493700	236.937063
2647.903646	238.818182
2649.316528	215.559441
2650.725981	226.384615
2652.135188	221.048951
2653.542559	229.643357
2654.952864	243.671329
2656.361333	258.993007
2657.767967	267.734266
2659.174356	275.328671
2660.578911	285.181818
2661.984810	285.783217
2663.388876	282.265734
2664.792698	300.755245
2666.196275	278.930070
2667.598021	278.811189
2669.001110	266.370629
2670.400781	273.559441
2671.801796	265.888112
2673.199395	274.811189
2674.599923	285.923077
2675.997037	293.706294
2677.395494	300.909091
2678.792123	311.867133
2680.188511	310.426573
2681.584656	324.468531
2682.978975	309.202797
2684.374637	311.384615
2685.766889	310.062937
2687.160485	312.853147
2688.552256	315.790210
2689.945369	323.223776
2691.336659	337.174825
2692.726126	345.321678
2694.115354	347.377622
2695.504341	348.608392
2696.894671	338.944056
2698.280016	333.552448
2699.668286	307.006993
2701.054735	297.300699
2702.440945	285.069930
2703.826916	293.153846
2705.209489	294.468531
2706.593404	292.587413
2707.977080	310.860140
2709.360519	321.090909
2710.740562	318.979021
2712.121947	322.468531
2713.501516	317.580420
2714.882427	314.524476
2716.261523	286.608392
2717.638805	267.874126
2719.017428	241.587413
2720.394237	227.874126
2721.770811	208.482517
2723.147149	199.853147
2724.521675	212.888112
2725.897542	212.426573
2727.270022	208.538462
2728.645419	219.909091
2730.015854	212.587413
2731.387631	219.587413
2732.759174	223.636364
2734.128908	224.734266
2735.499982	207.300699
2736.869249	196.566434
2738.238282	187.167832
2739.605508	187.000000
2740.972502	191.321678
2742.339263	194.265734
2743.705791	190.006993
2745.070515	176.090909
2746.435006	140.286713
2747.799265	147.314685
2749.163293	154.496503
2750.527088	155.783217
2751.887510	155.370629
2753.250843	156.447552
2754.609233	157.496503
2755.970533	163.356643
2757.328462	166.300699
2758.689301	156.783217
2760.048339	142.405594
2761.404009	122.153846
2762.762588	114.335664
2764.117799	110.300699
2765.472781	95.132867
2766.825966	88.594406
2768.182058	103.265734
2769.534786	86.244755
2770.887285	82.748252
2772.239557	92.272727
2773.593166	96.118881
2774.943414	93.062937
2776.291869	111.762238
2777.643228	121.951049
2778.991228	136.356643
2780.340567	133.664336
2781.688113	134.636364
2783.035432	142.062937
2784.382525	142.545455
2785.727827	120.503497
2787.072903	121.174825
2788.417753	126.097902
2789.762377	119.013986
2791.103648	113.111888
2792.446258	124.846154
2793.788643	128.650350
2795.130802	141.643357
2796.469612	149.727273
2797.811322	162.398601
2799.149683	156.118881
2800.489382	132.454545
2801.827295	130.867133
2803.163424	120.566434
2804.499330	114.902098
2805.836572	111.804196
2807.172031	110.181818
2808.507267	107.650350
2809.840721	105.636364
2811.175511	102.048951
2812.506960	110.433566
2813.841305	119.069930
2815.170752	114.160839
2816.501536	111.692308
2817.832098	119.272727
2819.160881	101.832168
2820.491001	125.531469
2821.819341	148.041958
2823.147461	144.475524
2824.473804	119.335664
2825.801482	115.580420
2827.125828	114.398601
2828.451510	116.391608
2829.775416	115.671329
2831.099102	125.237762
2832.424124	128.524476
2833.745817	136.629371
2835.067290	142.202797
2836.388545	170.104895
2837.709581	163.104895
2839.028845	143.076923
2840.349444	125.664336
2841.668271	129.790210
2842.986880	139.706294
2844.303719	125.804196
2845.620340	126.174825
2846.936743	126.720280
2848.251378	122.335664
2849.567347	127.153846
2850.879997	125.937063
2852.193981	127.398601
2853.507749	121.839161
2854.821300	114.223776
2856.133084	121.986014
2857.443103	138.762238
2858.754456	148.489510
2860.062493	141.006993
2861.371866	142.293706
2862.681023	138.468531
2863.989965	138.846154
2865.297144	148.755245
2866.602559	143.125874
2867.909309	142.020979
2869.214297	145.762238
2870.519070	149.706294
2871.822083	158.090909
2873.127976	158.041958
2874.429015	148.839161
2875.731387	148.104895
2877.032000	137.601399
2878.333947	146.321678
2879.635681	158.230769
2880.934111	158.223776
2882.233874	145.587413
2883.531880	135.251748
2884.829674	129.951049
2886.125711	137.888112
2887.423082	125.853147
2888.718697	137.426573
2890.014102	140.055944
2891.309295	159.587413
2892.601190	147.454545
2893.895962	155.930070
2895.187438	154.860140
2896.480246	147.510490
2897.772844	135.167832
2899.062147	118.454545
2900.352783	105.013986
2901.641669	92.587413
2902.931886	84.804196
2904.218812	94.755245
2905.507070	95.552448
2906.793579	102.895105
2908.079879	91.657343
2909.365971	105.419580
2910.650315	115.636364
2911.937531	117.496503
2913.219920	137.916084
2914.503641	139.279720
2915.785615	131.587413
2917.067383	122.272727
2918.347405	140.118881
2919.630297	131.482517
2920.911444	124.790210
2922.189309	131.426573
2923.470043	132.510490
2924.747496	146.909091
2926.024744	139.412587
2927.300249	136.055944
2928.578622	142.447552
2929.852181	112.412587
2931.128606	106.944056
2932.403291	118.720280
2933.676236	126.902098
2934.950511	135.265734
2936.223047	152.069930
2937.495379	153.629371
2938.764438	145.601399
2940.036362	144.356643
2941.306548	148.755245
2942.576530	146.356643
2943.846309	136.111888
2945.114351	132.384615
2946.380658	138.384615
2947.646762	148.790210
2948.914197	145.195804
2950.179896	169.601399
2951.445393	151.986014
2952.710689	128.496503
2953.972719	123.461538
2955.236079	107.349650
2956.499238	113.853147
2957.760664	93.181818
2959.023420	101.160839
2960.284445	108.160839
2961.543739	105.517483
2962.802832	109.202797
2964.061725	100.349650
2965.320418	121.734266
2966.578911	125.895105
2967.835675	136.832168
2969.092240	133.608392
2970.347076	131.342657
2971.603242	123.664336
2972.856152	110.048951
2974.110392	121.307692
2975.364433	114.370629
2976.616748	101.349650
2977.868865	85.174825
2979.119257	89.860140
2980.372504	103.216783
2981.620974	111.545455
2982.872298	111.657343
2984.120374	128.664336
2985.368252	146.153846
2986.615933	131.370629
2987.863418	138.027972
2989.109181	140.762238
2990.354747	133.650350
2991.601642	119.062937
2992.845291	106.426573
2994.090269	110.041958
2995.332004	95.349650
2996.576590	106.958042
2997.819457	106.734266
2999.059082	121.748252
3000.301559	113.153846
3001.540795	115.566434
3002.781359	128.090909
3004.020206	111.475524
3005.258859	95.923077
3006.495796	86.251748
3007.734061	89.797203
3008.970610	83.314685
3010.206966	90.538462
3011.443128	112.979021
3012.677576	94.804196
3013.911831	106.853147
3015.145893	107.951049
3016.378243	125.692308
3017.608881	126.153846
3018.842365	106.258741
3020.074138	100.909091
3021.304199	104.524476
3022.534069	108.370629
3023.762229	114.972028
3024.991716	132.804196
3026.219493	150.195804
3027.447079	139.930070
3028.675991	152.783217
3029.900161	149.139860
3031.127174	150.790210
3032.350964	148.678322
3033.576079	125.986014
3034.799488	130.881119
3036.022708	115.510490
3037.244222	103.979021
3038.468577	109.944056
3039.688197	108.776224
3040.909143	117.636364
3042.129899	121.741259
3043.348952	114.769231
3044.569331	112.811189
3045.786493	110.048951
3047.004980	112.699301
3048.221766	105.510490
3049.438363	110.951049
3050.654773	92.475524
3051.867969	91.160839
3053.084003	97.874126
3054.296825	105.699301
3055.512484	123.580420
3056.723420	145.251748
3057.935682	144.335664
3059.147756	138.552448
3060.359644	134.979021
3061.569834	131.643357
3062.779839	123.580420
3063.989657	111.167832
3065.197779	95.503497
3066.405715	85.153846
3067.611957	81.692308
3068.819523	77.083916
3070.025394	94.195804
3071.231080	107.874126
3072.436582	110.104895
3073.640390	112.293706
3074.845522	115.685315
3076.048961	121.587413
3077.250708	128.328671
3078.452272	119.916084
3079.653652	121.461538
3080.854848	126.342657
3082.054354	122.216783
3083.253676	123.699301
3084.454322	137.398601
3085.653279	130.804196
3086.849040	124.839161
3088.047631	130.580420
3089.243028	122.475524
3090.439749	130.720280
3091.633277	132.972028
3092.829633	114.048951
3094.024302	114.000000
3095.215781	101.580420
3096.411591	90.895105
3097.602708	96.153846
3098.795148	92.958042
3099.984399	98.769231
3101.176477	103.188811
3102.366871	111.608392
3103.554078	117.356643
3104.742609	130.118881
3105.932462	146.034965
3107.119130	137.146853
3108.305619	128.083916
3109.491928	125.706294
3110.679560	123.356643
3111.864009	121.944056
3113.046778	121.678322
3114.232371	133.909091
3115.416283	126.069930
3116.598517	119.881119
3117.780573	111.727273
3118.962450	104.132867
3120.144149	114.223776
3121.324171	108.622378
3122.502516	103.230769
3123.683681	108.027972
3124.861671	104.573427
3126.039484	103.874126
3127.217120	99.601399
3128.393081	113.615385
3129.568866	97.069930
3130.745971	92.412587
3131.921403	85.104895
3133.095161	86.000000
3134.267246	86.209790
3135.440652	91.601399
3136.613883	89.321678
3137.785442	89.846154
3138.958321	93.083916
3140.128033	88.048951
3141.299066	86.160839
3142.468428	103.349650
3143.636121	96.608392
3144.806629	110.930070
3145.972478	124.727273
3147.142637	126.629371
3148.308138	106.587413
3149.473466	111.860140
3150.638620	103.692308
3151.803601	105.930070
3152.969901	103.734266
3154.131548	100.888112
3155.294516	107.048951
3156.457311	118.419580
3157.619932	120.097902
3158.780889	124.958042
3159.941674	120.895105
3161.102286	105.251748
3162.261234	88.993007
3163.420010	94.867133
3164.578615	102.020979
3165.737048	94.013986
3166.895309	103.818182
3168.051909	114.769231
3169.206846	119.825175
3170.363104	112.657343
3171.517700	93.510490
3172.672126	90.244755
3173.824891	83.202797
3174.977487	77.650350
3176.129913	88.118881
3177.282168	91.118881
3178.434254	90.902098
3179.583193	91.601399
3180.734939	108.244755
3181.885028	131.118881
3183.033459	124.769231
3184.181722	105.349650
3185.329816	104.622378
3186.477741	115.643357
3187.624010	111.944056
3188.770111	112.447552
3189.914558	123.895105
3191.058836	126.223776
3192.202947	132.622378
3193.348376	133.531469
3194.490666	119.538462
3195.632788	128.125874
3196.774744	110.566434
3197.916532	98.923077
3199.058153	98.426573
3200.196638	96.069930
3201.336442	89.895105
3202.477562	88.489510
3203.615548	89.118881
3204.751885	94.615385
3205.888056	87.398601
3207.025545	72.468531
3208.161385	62.615385
3209.298542	69.454545
3210.431086	82.377622
3211.567911	76.300699
3212.700125	76.167832
3213.833657	102.482517
3214.967023	111.307692
3216.097262	119.958042
3217.230300	120.601399
3218.360210	127.608392
3219.491438	128.160839
3220.619540	131.139860
3221.750440	132.762238
3222.879695	124.741259
3224.007307	119.342657
3225.131796	92.524476
3226.260561	91.986014
3227.386204	99.433566
3228.511684	97.545455
3229.635523	94.426573
3230.762157	81.685315
3231.884192	86.188811
3233.007544	92.482517
3234.130734	104.433566
3235.253762	106.489510
3236.375150	91.405594
3237.496377	92.594406
3238.615965	80.860140
3239.735392	77.615385
3240.853182	81.440559
3241.973763	75.664336
3243.091231	64.832168
3244.208538	62.671329
3245.325684	73.363636
3246.441195	97.804196
3247.558021	112.944056
3248.671736	127.090909
3249.788242	142.279720
3250.903112	152.846154
3252.014874	145.391608
3253.126477	127.209790
3254.239395	116.160839
3255.352153	103.629371
3256.461805	96.657343
3257.572772	92.314685
3258.683580	95.545455
3259.792756	102.293706
3260.900301	102.601399
3262.009161	108.573427
3263.117862	124.734266
3264.223461	120.524476
3265.330375	102.426573
3266.435659	80.713287
3267.542257	76.517483
3268.645755	86.258741
3269.750567	101.279720
3270.855222	100.083916
3271.956779	103.433566
3273.058179	98.503497
3274.160893	94.433566
3275.263450	98.160839
3276.362912	112.594406
3277.465156	107.356643
3278.564306	91.706294
3279.661830	82.258741
3280.759200	82.342657
3281.859351	79.881119
3282.956409	80.811189
3284.053313	64.650350
3285.150061	62.594406
3286.242250	60.867133
3287.338689	50.972028
3288.433505	57.734266
3289.528166	69.517483
3290.621206	74.251748
3291.714092	78.118881
3292.805357	91.083916
3293.897935	103.559441
3294.988893	109.363636
3296.078231	105.048951
3297.167416	98.433566
3298.257913	92.405594
3299.345326	82.510490
3300.432587	69.769231
3301.521160	71.125874
3302.609580	68.692308
3303.693453	66.748252
3304.781568	76.636364
3305.866602	82.657343
3306.950020	89.937063
3308.034750	88.524476
3309.117864	75.160839
3310.202290	65.055944
3311.283638	55.342657
3312.366298	56.741259
3313.447344	62.552448
3314.528239	80.629371
3315.607521	74.230769
3316.686652	86.622378
3317.767095	87.587413
3318.844463	77.279720
3319.923143	93.279720
3321.000211	86.965035
3322.077129	86.944056
3323.152437	81.454545
3324.227595	60.118881
3325.304064	52.643357
3326.377462	54.965035
3327.450712	63.615385
3328.525273	42.377622
3329.598224	45.986014
3330.669568	52.923077
3331.742222	47.321678
3332.811809	57.006993
3333.882707	61.083916
3334.951998	69.139860
3336.022600	69.713287
3337.091595	66.727273
3338.158985	63.405594
3339.224768	76.972028
3340.294778	77.167832
3341.361725	73.433566
3342.425610	82.300699
3343.492263	94.643357
3344.557312	78.559441
3345.620757	77.090909
3346.684055	77.902098
3347.747208	85.797203
3348.810214	89.440559
3349.873073	103.566434
3350.934331	87.937063
3351.992532	98.727273
3353.054954	93.895105
3354.114319	97.671329
3355.173540	92.965035
3356.234069	89.328671
3357.290089	83.482517
3358.348874	86.587413
3359.403151	82.335664
3360.460192	78.580420
3361.515634	77.013986
3362.572385	79.678322
3363.627539	72.349650
3364.681095	74.181818
3365.733054	69.629371
3366.787776	81.853147
3367.839448	77.300699
3368.890976	77.853147
3369.943814	83.391608
3370.993604	76.328671
3372.044703	75.811189
3373.092755	67.790210
3374.143568	63.657343
3375.191335	59.804196
3376.238960	72.615385
3377.286443	68.643357
3378.332332	72.062937
3379.379531	88.160839
3380.423686	82.069930
3381.470600	80.489510
3382.515923	71.377622
3383.558204	66.580420
3384.600344	74.321678
3385.643793	72.531469
3386.687100	69.412587
3387.728817	72.762238
3388.770394	77.202797
3389.811829	64.720280
3390.851676	74.412587
3391.889934	70.195804
3392.929500	60.790210
3393.968926	61.951049
3395.006764	60.230769
3396.043015	70.552448
3397.079126	73.685315
3398.116545	80.440559
3399.150931	75.657343
3400.186625	82.412587
3401.222179	85.342657
3402.254701	80.874126
3403.289977	80.216783
3404.322222	75.503497
3405.354329	72.328671
3406.384853	83.405594
3407.416683	81.111888
3408.448375	87.377622
3409.477039	79.762238
3410.505566	70.706294
3411.535399	70.510490
3412.565095	74.860140
3413.591765	81.657343
3414.619741	76.000000
3415.644693	63.223776
3416.672396	65.342657
3417.697074	63.062937
3418.723059	66.391608
3419.747465	53.755245
3420.771733	56.447552
3421.794424	45.251748
3422.816978	58.251748
3423.840838	71.804196
3424.861678	70.307692
3425.882382	78.906094
3426.904392	84.234016
3427.923384	84.086913
3428.942241	76.260240
3429.962404	58.549451
3430.979549	28.750000
