-118.277064	3.723443
-115.607463	0.820513
-112.940798	-0.359840
-110.274885	-0.170296
-107.611905	1.036464
-104.947494	2.907759
-102.286014	5.090909
-99.623105	7.696037
-96.965303	7.967366
-94.306070	8.815385
-91.647586	8.242424
-88.992027	6.517483
-86.335039	4.839627
-83.683148	4.395804
-81.029828	0.387879
-78.379427	0.776224
-75.727598	2.156177
-73.080859	3.164103
-70.432690	2.799068
-67.785265	5.696503
-65.140753	8.135664
-62.494812	9.807459
-59.853954	8.761772
-57.211665	7.206527
-54.572286	8.901166
-51.931478	8.287179
-49.291409	7.340326
-46.656414	9.487179
-44.019989	8.660606
-41.386468	10.516550
-38.751517	8.340793
-36.121633	10.129138
-33.488155	12.260140
-30.859740	12.075524
-28.232059	8.525874
-25.602950	2.636364
-22.978897	-18.153846
-20.351254	-79.377156
-17.728666	-176.001865
-15.106808	-171.386014
-12.485681	250.482517
-9.865285	956.813986
-7.247776	1532.160373
-4.628839	1928.938462
-2.012788	2144.169231
0.602536	2173.176224
3.217131	2019.693240
5.828845	1689.372494
8.441986	1192.516084
11.050095	583.684382
13.661784	-1.967832
16.268443	-317.762704
18.876530	-208.176690
21.483893	-14.527739
24.086231	7.611189
26.692147	8.994406
29.293042	9.547319
31.895364	8.167366
34.492668	7.357576
37.093548	5.440559
39.689414	4.498368
42.286707	6.553380
44.883281	5.879254
47.474846	5.963636
50.067839	5.931469
52.657972	6.339394
55.249531	6.522611
57.838231	7.918415
60.428359	6.724009
63.013487	5.878322
65.600043	6.717949
68.185884	5.685315
70.768872	5.882051
73.353287	7.183217
75.930572	7.324942
78.511424	5.741259
81.089427	4.012587
83.666720	4.630303
86.245440	2.561772
88.819177	0.823776
91.394341	2.270862
93.966662	2.680186
96.538276	3.103963
99.107049	2.587879
101.677249	1.861538
104.244610	3.819580
106.813398	4.926807
109.379349	4.307226
111.942464	3.921212
114.509137	7.301632
117.066587	7.949184
119.629723	10.117483
122.187900	14.394872
124.749631	17.745455
127.306405	27.510490
129.864605	41.680186
132.417853	59.564103
134.970402	84.100699
137.526503	107.452214
140.077655	133.103030
142.628110	159.184149
145.177867	183.684848
147.724805	201.508159
150.271048	214.275991
152.818716	219.363636
155.365688	224.028904
157.907724	225.819114
160.449068	225.940793
162.989718	224.017249
165.531793	221.264336
168.071058	219.557110
170.607513	219.301632
173.143278	221.379021
175.680468	221.882051
178.216967	220.010723
180.750660	219.660140
183.281549	218.993007
185.811750	219.461538
188.343376	216.670862
190.872202	217.426573
193.398228	214.955245
195.923568	211.915618
198.450333	212.185548
200.974302	212.237296
203.497585	214.408858
206.020184	215.268065
208.539990	213.209790
211.059113	215.914685
213.577553	216.389744
216.097418	214.625641
218.610280	213.928671
221.126674	216.704895
223.642387	216.397669
226.153209	215.582751
228.665456	215.841492
231.174920	218.075058
233.683706	219.224709
236.191814	221.255478
238.701346	222.575758
241.205997	225.573893
243.709972	226.287179
246.215371	225.924476
248.715895	227.610256
251.219942	228.250816
253.717019	227.124476
256.217618	226.493240
258.715446	227.876923
261.212601	228.135198
263.709084	226.894172
266.200703	227.540326
268.695841	230.240559
271.188214	232.497436
273.679916	235.608392
276.168855	237.488112
278.659217	238.775291
281.146818	237.853613
283.631659	238.371096
286.120014	238.336597
288.601431	240.761772
291.086361	240.418182
293.566445	239.612121
296.050042	240.880653
298.528797	243.297436
301.008974	245.609790
303.486400	246.882051
305.963162	248.094172
308.439260	252.833566
310.912610	259.931002
313.385299	269.268065
315.857326	277.511422
318.328691	284.668531
320.797313	288.278788
323.265275	290.629371
325.734660	290.315618
328.199222	288.450350
330.667287	281.152448
333.130533	272.453147
335.593122	266.288112
338.055053	264.593939
340.516328	261.828904
342.974869	261.941259
345.434832	262.071329
347.892063	258.973427
350.348639	257.739394
352.804560	258.731935
355.257753	257.326340
357.712368	255.966900
360.162181	254.000466
362.615490	254.243823
365.064000	256.153846
367.511860	257.139394
369.961141	256.330070
372.405629	256.107226
374.851539	256.868998
377.296800	256.476457
379.739342	255.673193
382.181236	255.902098
384.622482	255.635431
387.061013	251.990210
389.500966	252.288112
391.938205	254.309557
394.372732	253.744988
396.810747	251.856410
399.243985	250.703497
401.678645	250.294172
404.108532	251.652681
406.541904	254.824709
408.970506	255.784149
411.398466	261.698834
413.827847	262.940326
416.252464	258.739394
418.678501	261.370163
421.103899	260.692308
423.528656	257.053147
425.948654	254.502564
428.370074	255.387413
430.788797	255.054545
433.208941	256.644755
435.626390	259.131935
438.045259	261.368765
440.461435	264.876457
442.872864	261.518881
445.287769	258.234965
447.699984	258.569697
450.111565	254.943590
452.522513	256.751049
454.930773	256.036364
457.338402	256.862005
459.745398	256.198601
462.151762	256.331002
464.555445	254.944056
466.958497	255.343590
469.360919	252.031235
471.762711	248.034033
474.161825	245.749184
476.562359	246.580420
478.962264	247.541725
481.357447	251.934266
483.756095	251.924942
486.150024	254.578555
488.543327	253.926340
490.936004	251.925408
493.328056	248.386480
495.721527	243.038695
498.110285	234.763636
500.496377	226.186480
502.883889	217.982284
505.270777	209.238695
507.655002	203.496503
510.040646	196.705361
512.423627	192.145921
514.803948	190.263869
517.185688	187.391142
519.564770	188.238695
521.945269	187.201399
524.323111	185.458275
526.698298	184.219114
529.072867	181.388345
531.448855	179.993473
533.822189	178.023776
536.196942	180.557576
538.567008	178.966900
540.936459	181.380420
543.307329	180.581352
545.673517	180.600466
548.041124	180.722611
550.406085	178.995804
552.770434	177.355245
555.134169	175.724942
557.499322	173.145455
559.859803	172.905361
562.221701	172.389277
564.580960	172.732867
566.937580	174.285315
569.297646	171.835431
571.651020	171.014918
574.007839	168.734266
576.362023	168.922145
578.715598	168.334732
581.068565	167.529604
583.418901	166.435431
585.770654	166.249417
588.115729	165.454545
590.466269	164.867133
592.810136	163.420979
595.159464	165.526807
597.504143	164.111888
599.846198	167.331935
602.189670	167.224709
604.530519	168.766900
606.870765	167.422844
609.208391	166.278322
611.549452	166.317483
613.885876	166.405128
616.223716	163.575291
618.558938	162.202331
620.891545	157.719347
623.225569	156.365035
625.556978	153.841026
627.887789	154.048951
630.218002	153.811189
632.547618	152.691841
634.872610	151.393007
637.203044	151.531469
639.528856	152.919814
641.852062	154.686247
644.176684	154.724942
646.498700	156.644755
648.820122	157.496503
651.138941	160.143124
653.459176	161.384615
655.778818	163.614452
658.095859	163.933333
660.412309	163.773427
662.726160	163.079720
665.041426	162.004196
667.354096	161.627040
669.668181	159.330070
671.977667	158.332401
674.288567	157.184149
676.596875	156.793939
678.904595	157.191142
681.213730	154.453147
683.518272	154.812587
685.822228	154.681119
688.125597	155.348252
690.430381	157.089510
692.730579	157.859207
695.032192	160.410256
697.333219	160.370163
699.629665	160.357110
701.927525	159.126340
704.224803	159.905361
706.521496	159.657343
708.813614	156.055012
711.109143	155.242890
713.400099	152.504895
715.692469	153.178555
717.982263	152.862471
720.271478	151.595804
722.560113	151.944056
724.846175	150.912821
727.133651	150.116550
729.418557	153.268998
731.702884	153.455478
733.984644	154.884848
736.267817	154.259207
738.550413	152.082051
740.828453	152.405594
743.107907	153.999534
745.386786	154.368298
747.665090	155.640559
749.938843	156.566900
752.214011	157.879720
754.488605	159.648019
756.760640	162.566434
759.034088	162.470862
761.304978	163.583683
763.573312	162.061538
765.843059	159.873193
768.110251	157.473193
770.376873	157.357576
772.642926	158.020513
774.906427	158.684382
777.171340	160.361305
779.435685	162.815851
781.695499	164.279720
783.956727	165.628904
786.217387	167.456410
788.475500	169.046154
790.731070	168.277855
792.990029	167.596737
795.242490	163.582284
797.500318	162.712821
799.753627	158.387413
802.004395	157.606527
804.256576	156.815851
806.506219	155.251748
808.757273	153.596270
811.003816	153.160839
813.251772	155.277855
815.497192	156.686247
817.744025	154.613986
819.990295	156.755245
822.232062	155.067599
824.477211	154.698368
826.715888	153.420513
828.957948	153.945921
831.195509	151.103963
833.434481	149.241492
835.670928	147.835897
837.908785	146.685315
840.144117	148.239627
842.376925	149.291841
844.611145	151.055478
846.842843	153.476457
849.073986	152.867133
851.304574	153.507692
853.534608	150.916084
855.764087	148.937995
857.989086	147.473193
860.217458	146.684382
862.441352	146.712354
864.666656	145.351049
866.887485	146.201865
869.111687	147.029837
871.331415	149.971096
873.552553	152.964569
875.773141	154.097436
877.991220	155.659674
880.210708	154.806527
882.425730	158.172494
884.640204	161.758508
886.854131	161.902098
889.067510	163.807459
891.280343	163.648951
893.492628	164.057809
895.702412	166.156177
897.911650	166.750117
900.120342	168.095105
902.326536	164.876457
904.534139	163.248485
906.739245	159.513287
908.943807	159.419580
911.145874	160.751515
913.349350	157.606527
915.550332	159.865268
917.750772	161.515618
919.952621	161.632634
922.148079	164.778555
924.346895	164.552914
926.541274	164.305828
928.739010	162.588811
930.932310	162.320280
933.127018	159.477855
935.319241	159.532867
937.510926	160.343590
939.702073	159.038228
941.890737	160.524009
944.078864	158.571562
946.264511	157.648485
948.453511	157.737995
950.638086	158.823776
952.822127	161.132401
955.009518	161.595338
957.188606	165.253613
959.371044	164.050350
961.552947	166.672261
963.732377	167.712821
965.909334	171.059674
968.087699	175.219580
970.267470	177.425175
972.440893	181.652681
974.617663	183.605594
976.790025	189.788811
978.963795	194.088112
981.133161	196.977156
983.305871	200.439627
985.476115	196.966900
987.645831	197.548252
989.815018	192.720746
991.979808	191.910956
994.147940	190.413520
996.311676	188.808392
998.476820	186.925408
1000.639504	181.653613
1002.801663	186.307692
1004.961364	188.077389
1007.120542	191.045688
1009.281126	190.698368
1011.439255	193.227506
1013.596860	195.232168
1015.753942	198.985548
1017.910501	199.841958
1020.062680	204.855944
1022.216266	210.788811
1024.369330	212.452214
1026.519945	212.267599
1028.671966	218.101632
1030.819615	222.991142
1032.970594	226.836830
1035.117204	228.393939
1037.263294	231.312354
1039.408866	224.913287
1041.555842	227.786480
1043.696531	221.849883
1045.840548	226.641492
1047.982126	229.252214
1050.123186	222.977156
1052.265651	218.212121
1054.401837	215.164569
1056.541349	219.797669
1058.676505	224.978555
1060.814986	225.450816
1062.949114	225.928205
1065.082728	219.017249
1067.217746	220.581352
1069.348415	218.135198
1071.480490	219.846620
1073.610134	222.410256
1075.739267	219.732401
1077.867889	221.381818
1079.995999	225.675058
1082.121683	229.758042
1084.246857	234.934732
1086.373434	232.868065
1088.495675	226.092774
1090.619320	215.152914
1092.738630	204.832168
1094.863169	201.257809
1096.981464	197.334266
1099.101162	201.579953
1101.218442	205.355711
1103.335216	208.956643
1105.451483	218.164103
1107.565335	220.885781
1109.680590	222.275058
1111.791523	219.300233
1113.905768	211.412121
1116.015692	209.482517
1118.127019	206.693240
1120.237843	208.702564
1122.344350	207.157110
1124.454166	207.427972
1126.559668	209.644289
1128.666574	209.124009
1130.767264	210.198135
1132.873165	210.350117
1134.974758	206.393473
1137.077754	204.855944
1139.180249	202.641026
1141.276538	206.186946
1143.378033	205.082984
1145.475226	204.679720
1147.571920	204.142657
1149.668117	202.439161
1151.763815	207.830769
1153.859016	207.409790
1155.951820	208.326340
1158.046026	210.803263
1160.134041	211.427972
1162.227254	209.050816
1164.314279	208.957576
1166.404604	211.482517
1168.490640	211.121678
1170.579974	212.039161
1172.663127	212.090443
1174.747683	210.957110
1176.833639	215.595338
1178.915315	214.637762
1180.998391	213.840093
1183.079082	210.770629
1185.159282	209.810723
1187.238990	206.972960
1189.318207	208.782751
1191.395041	211.970629
1193.469495	211.520280
1195.547241	211.064336
1197.620716	209.412121
1199.695593	209.830303
1201.766202	211.419114
1203.838212	210.846620
1205.907846	210.445221
1207.978881	210.923077
1210.049428	208.001399
1212.115715	208.651282
1214.183401	210.880186
1216.248716	212.910023
1218.315431	211.986014
1220.377890	213.085781
1222.443635	213.065734
1224.505125	212.552914
1226.568015	212.579021
1228.628538	213.460606
1230.688578	216.609790
1232.748134	218.442890
1234.805326	217.989744
1236.862035	219.476457
1238.916382	223.277389
1240.974009	226.534266
1243.029274	227.988811
1245.080298	230.084382
1247.132723	231.954779
1249.184667	229.884848
1251.234253	229.440093
1253.283360	232.152914
1255.331988	233.925874
1257.380138	234.900699
1259.427810	236.323543
1261.471251	236.391142
1263.517967	238.412587
1265.562331	239.399068
1267.606217	242.540793
1269.647753	247.832168
1271.686939	250.609324
1273.729397	251.256410
1275.767634	254.937063
1277.807268	259.635431
1279.846428	258.152448
1281.881370	258.903963
1283.917710	258.557576
1285.951705	257.000466
1287.987099	253.851282
1290.018279	255.620047
1292.050858	256.289510
1294.082964	259.744988
1296.112730	262.610723
1298.143894	268.420979
1300.170850	275.550583
1302.199204	280.740793
1304.223354	281.886247
1306.250769	285.532867
1308.273981	287.862471
1310.298591	288.337063
1312.320866	290.838695
1314.344539	294.296970
1316.365879	290.586480
1318.386752	296.554312
1320.407157	302.023310
1322.423369	308.521678
1324.440978	314.604196
1326.456259	321.639627
1328.474799	325.503030
1330.489149	332.635431
1332.501174	339.481585
1334.516457	345.569697
1336.527554	347.309557
1338.540047	349.082517
1340.548358	346.258741
1342.559925	348.652681
1344.565453	347.870862
1346.574235	347.987413
1348.578841	347.524009
1350.586700	348.571562
1352.594097	349.643823
1354.595462	348.784615
1356.598225	344.950583
1358.600528	341.674592
1360.602370	333.463403
1362.603754	329.177622
1364.602823	321.648019
1366.601434	318.831235
1368.599587	311.056876
1370.597282	308.522611
1372.590813	304.811655
1374.585741	302.491841
1376.580212	301.085781
1378.574226	296.064802
1380.565933	290.183683
1382.557184	287.324942
1384.546130	282.832634
1386.536471	279.398135
1388.526357	277.298368
1390.513940	274.663869
1392.501069	271.901632
1394.485896	270.569231
1396.472118	269.308625
1398.456039	268.440093
1400.439508	270.967366
1402.422525	272.417716
1404.403244	272.815851
1406.385357	276.775291
1408.365173	276.613986
1410.344539	276.689977
1412.319766	276.563636
1414.298231	274.071795
1416.274403	273.242890
1418.250125	267.368765
1420.225398	266.489510
1422.198381	264.823310
1424.170915	264.711888
1426.143001	262.546853
1428.114639	260.082517
1430.082150	260.046154
1432.054734	258.089044
1434.019512	257.241026
1435.989363	254.433566
1437.955089	253.599068
1439.922209	252.434033
1441.887045	251.950117
1443.847761	254.274126
1445.813545	254.972960
1447.773374	255.580420
1449.734596	253.357576
1451.697211	254.251282
1453.655711	255.770629
1455.613769	258.967832
1457.571384	258.908625
1459.528558	258.148252
1461.483456	258.365035
1463.439746	261.339860
1465.393762	261.497436
1467.347338	261.599534
1469.298641	259.151981
1471.251336	258.842424
1473.201760	258.186480
1475.151745	260.121212
1477.101291	258.420979
1479.048567	255.988345
1480.993577	255.341259
1482.939979	255.813986
1484.885943	256.610256
1486.831470	257.289510
1488.774731	252.757110
1490.717556	254.833100
1492.658118	251.138462
1494.600072	253.930070
1496.539763	256.065268
1498.479019	256.146387
1500.417841	254.514685
1502.354403	254.538928
1504.292355	255.604196
1506.228050	258.799534
1508.163311	262.402797
1510.096315	259.157110
1512.028887	259.300233
1513.961027	262.120746
1515.892735	260.641026
1517.822190	264.193473
1519.753034	266.446620
1521.683448	270.384615
1523.609789	275.604196
1525.537520	279.188811
1527.463001	279.443357
1529.388053	283.646154
1531.312676	288.133800
1533.236870	289.084382
1535.158817	294.308625
1537.082153	298.436364
1539.003244	301.693706
1540.922090	306.400932
1542.842326	314.902564
1544.760318	327.233566
1546.677884	340.125408
1548.593209	351.342191
1550.509922	365.883450
1552.422581	385.870862
1554.338444	408.495105
1556.252068	437.945455
1558.163453	477.560373
1560.076227	525.176690
1561.984953	586.823776
1563.895067	658.980886
1565.804758	747.323077
1567.714026	834.872727
1569.621059	909.977156
1571.525860	970.176224
1573.432050	1001.730070
1575.336009	1002.173427
1577.239546	972.477855
1579.142662	916.499301
1581.043550	842.985082
1582.945826	754.203263
1584.845873	673.102098
1586.747309	596.133800
1588.644710	539.188345
1590.541694	494.583217
1592.438259	461.906760
1594.336211	441.420047
1596.228329	426.267133
1598.123641	414.442424
1600.018534	410.553846
1601.911207	404.035431
1603.803462	393.978555
1605.693498	384.717483
1607.583118	381.291375
1609.472323	375.612587
1611.361112	368.931935
1613.247685	366.880186
1615.135645	358.904895
1617.019588	349.468998
1618.904918	341.404662
1620.789835	325.703497
1622.672538	317.813986
1624.556628	305.688112
1626.436706	293.154779
1628.318171	287.006061
1630.197426	279.276923
1632.078067	272.672727
1633.952905	266.181352
1635.832723	262.448951
1637.708536	253.131935
1639.583940	242.060140
1641.460729	237.824709
1643.331721	234.727739
1645.205896	233.336597
1647.076071	231.867133
1648.949427	230.040093
1650.820580	228.766900
1652.689531	225.982284
1654.559868	220.796270
1656.426211	218.254545
1658.293941	212.271329
1660.159471	209.294639
1662.026386	200.774359
1663.889313	199.984149
1665.753625	195.462005
1667.615742	189.178089
1669.477453	189.101632
1671.340549	188.451282
1673.201451	191.356643
1675.060159	189.465268
1676.918465	188.267599
1678.778154	190.566434
1680.632077	191.462937
1682.489173	194.468531
1684.345865	188.246620
1686.198582	186.989277
1688.054470	186.470396
1689.906384	181.451282
1691.757897	179.626107
1693.609009	179.735664
1695.459720	178.830769
1697.310031	176.567366
1699.158158	180.399068
1701.007668	181.645221
1702.851430	177.317949
1704.700142	176.013054
1706.543107	171.943590
1708.389238	172.654545
1710.231408	174.103963
1712.076742	165.378089
1713.916336	166.520746
1715.757314	169.473193
1717.599676	172.218182
1719.438080	172.824709
1721.277868	177.655478
1723.115481	174.884382
1724.952698	170.848485
1726.787742	170.422378
1728.624169	169.628904
1730.458424	171.469464
1732.292285	176.634033
1734.125751	177.576690
1735.955271	180.677389
1737.787950	182.377156
1739.616685	184.298834
1741.448578	181.653613
1743.276528	185.851748
1745.104086	179.648485
1746.931253	179.203730
1748.758028	173.226573
1750.584411	170.547786
1752.406858	165.822378
1754.232459	167.425175
1756.054126	162.358508
1757.877175	159.117016
1759.698063	155.977622
1761.518561	152.853613
1763.340441	152.073193
1765.156621	160.110490
1766.975953	157.807459
1768.791358	161.003730
1770.609914	163.188811
1772.424544	164.882984
1774.238787	165.115152
1776.052644	167.378555
1777.866114	166.469464
1779.677430	168.522611
1781.490128	164.285315
1783.302439	156.986014
1785.110833	154.778089
1786.920608	158.028438
1788.726467	152.072261
1790.535473	149.510023
1792.340565	149.914685
1794.147037	148.620047
1795.953126	151.283916
1797.755305	144.562704
1799.560627	143.500699
1801.362041	142.334732
1803.164835	140.070396
1804.963724	142.324942
1806.763992	146.666667
1808.563880	151.468531
1810.361625	154.273660
1812.158990	157.843823
1813.955974	161.135198
1815.752578	167.986480
1817.547043	169.405594
1819.342888	163.545455
1821.133077	159.268531
1822.928163	155.643823
1824.717596	157.889044
1826.510167	157.468065
1828.300602	153.777156
1830.088902	152.565035
1831.880338	157.404196
1833.666129	156.118881
1835.453298	153.655478
1837.238337	157.406993
1839.026508	153.744988
1840.810794	153.573893
1842.592951	152.355245
1844.376487	152.132401
1846.157894	156.418648
1847.940679	155.948252
1849.719585	154.941725
1851.499869	155.767366
1853.278028	160.464802
1855.057564	158.889510
1856.834976	160.296503
1858.610264	161.360373
1860.386931	157.549650
1862.161475	159.416783
1863.937396	160.628904
1865.707698	158.804662
1867.481127	159.751049
1869.252436	158.261072
1871.023374	155.896970
1872.795689	154.284848
1874.562392	154.492774
1876.332219	152.219114
1878.098183	151.111422
1879.867271	146.793007
1881.632497	145.313753
1883.397355	147.047552
1885.163589	148.268531
1886.925965	147.341259
1888.687974	147.613986
1890.449616	148.983217
1892.210890	149.673660
1893.971798	150.232168
1895.732338	151.726340
1897.490770	150.569231
1899.248835	152.106294
1901.004793	153.323543
1902.762127	154.131935
1904.519095	154.082984
1906.273958	152.486247
1908.026715	150.629837
1909.779109	148.246620
1911.532879	144.613986
1913.284545	142.273660
1915.034108	142.220513
1916.785048	143.795338
1918.535624	145.260606
1920.282362	146.897902
1922.030475	147.831702
1923.776489	144.967366
1925.523879	143.324476
1927.269170	141.394406
1929.012364	141.055944
1930.756934	140.270862
1932.499407	140.973427
1934.241520	140.925874
1935.983274	142.148252
1937.724667	146.500699
1939.463967	146.127273
1941.202908	145.545921
1942.941490	145.788811
1944.677980	144.183683
1946.414113	144.040559
1948.151620	145.038228
1949.885306	148.446154
1951.620366	152.449417
1953.353337	152.583217
1955.085952	153.490909
1956.818210	156.057809
1958.550112	156.490909
1960.279928	154.553846
1962.007660	154.555245
1963.736766	153.054079
1965.465516	151.294172
1967.192183	149.706294
1968.918496	149.259674
1970.646182	145.206061
1972.368333	146.937529
1974.093584	144.268531
1975.815028	144.805594
1977.539572	147.487179
1979.262037	147.818648
1980.980698	152.744988
1982.702458	154.499767
1984.420416	157.891841
1986.139748	159.835431
1987.855279	156.270396
1989.575632	154.437296
1991.292186	148.864802
1993.004943	152.736597
1994.720796	148.899301
1996.434577	148.444289
1998.148008	149.630769
1999.859367	147.565501
2001.572100	149.982284
2003.281041	149.227972
2004.993076	148.121678
2006.699601	147.712354
2008.409219	144.818182
2010.116769	143.971562
2011.823972	145.385548
2013.529109	150.710023
2015.233899	152.257809
2016.940061	155.758042
2018.642441	157.303497
2020.346193	160.480186
2022.047882	162.109557
2023.749225	164.315618
2025.450223	160.942657
2027.149161	160.387879
2028.849470	158.198601
2030.546003	152.723543
2032.243908	150.033100
2033.939755	149.677389
2035.638687	149.217716
2037.332133	147.042890
2039.026950	145.384149
2040.721424	147.732401
2042.412130	148.740793
2044.105920	150.641026
2045.795943	148.832168
2047.487337	145.184149
2049.176678	143.906294
2050.867389	139.571096
2052.554338	140.662005
2054.240946	145.431702
2055.928925	145.782284
2057.613144	142.533800
2059.298733	142.375758
2060.983983	143.099767
2062.667185	141.482517
2064.351757	143.068998
2066.030865	141.347786
2067.714759	137.680186
2069.393193	138.704429
2071.074704	141.435897
2072.752463	142.937995
2074.429886	145.187879
2076.108678	144.015385
2077.785427	147.044289
2079.460135	147.862937
2081.136212	148.565035
2082.810249	146.899301
2084.483950	149.671329
2086.157316	147.454545
2087.828644	148.270862
2089.499637	150.677855
2091.170296	153.448951
2092.840621	149.212587
2094.510611	148.675524
2096.178566	145.816783
2097.846188	148.502564
2099.511776	145.335664
2101.178732	146.682051
2102.843655	142.860606
2104.508245	143.821911
2106.170804	142.739394
2107.834732	143.698368
2109.496628	146.023310
2111.158193	144.070396
2112.819428	140.956177
2114.478633	142.783217
2116.137509	142.389744
2117.796054	144.731469
2119.454270	146.307226
2121.108763	148.936597
2122.766320	149.532867
2124.423547	149.052681
2126.077054	148.140326
2127.731928	150.432634
2129.383083	151.133800
2131.037301	148.742657
2132.687801	151.638695
2134.339669	154.591608
2135.986128	154.558508
2137.637341	152.992075
2139.284842	150.972494
2140.933709	149.230303
2142.580557	149.295571
2144.227080	144.817249
2145.873277	144.452214
2147.515765	146.772494
2149.161312	149.514219
2150.803152	150.957576
2152.448049	154.503963
2154.089241	153.731469
2155.730109	153.286247
2157.370654	153.331002
2159.009186	150.752914
2160.649084	151.579953
2162.285282	153.459207
2163.922846	151.824709
2165.560088	151.085315
2167.195320	153.782751
2168.830230	153.892308
2170.464819	154.647552
2172.099087	154.328671
2173.729661	152.942191
2175.363286	151.974359
2176.993220	153.862471
2178.624520	150.967366
2180.253814	151.015851
2181.882789	150.145921
2183.511444	147.130070
2185.139780	146.819114
2186.766113	143.802331
2188.392128	139.903030
2190.016142	140.427972
2191.641521	138.641026
2193.264899	141.525408
2194.889642	141.365501
2196.510703	144.386946
2198.131449	143.538928
2199.753558	148.819114
2201.373670	150.552448
2202.991786	155.013520
2204.609586	156.426573
2206.227070	154.630769
2207.844239	154.592541
2209.461093	152.581818
2211.077632	150.882984
2212.692177	150.673193
2214.304731	146.318881
2215.918648	142.803730
2217.530573	139.837762
2219.143863	140.340793
2220.755161	138.422378
2222.364471	140.706294
2223.975143	139.833100
2225.583827	144.516084
2227.192199	144.006993
2228.798583	144.361772
2230.406331	143.998601
2232.012092	144.364103
2233.617543	141.448485
2235.221008	137.193473
2236.825836	135.753380
2238.428680	135.228438
2240.029541	137.213054
2241.631765	139.181352
2243.232007	144.890909
2244.833611	146.035897
2246.431562	142.822844
2248.030876	142.337063
2249.628210	142.938928
2251.225236	144.271329
2252.823623	141.644755
2254.418362	140.268998
2256.011125	143.160839
2257.605249	146.074126
2259.200736	147.246154
2260.792577	149.972494
2262.384112	153.742657
2263.977008	150.196737
2265.564595	144.945455
2267.156879	143.060140
2268.743855	144.641958
2270.333860	143.213520
2271.918560	141.707226
2273.507954	143.324942
2275.092045	144.649883
2276.677498	144.545921
2278.260982	145.616783
2279.847491	149.124942
2281.430367	150.324942
2283.012939	151.087413
2284.595209	150.118881
2286.173848	154.089277
2287.755512	151.866200
2289.333547	149.446853
2290.914605	150.112821
2292.492036	146.899534
2294.067504	140.405594
2295.645994	138.768065
2297.220859	138.407925
2298.795425	133.207226
2300.369689	129.845688
2301.943653	129.901399
2303.517317	130.845221
2305.090680	130.292308
2306.660425	128.032634
2308.229871	130.401399
2309.802336	131.907226
2311.369526	129.481119
2312.939733	132.164103
2314.506327	134.602797
2316.074279	135.354779
2317.640277	134.400932
2319.205977	138.937995
2320.771379	144.634033
2322.334828	146.130070
2323.899636	144.307692
2325.460835	144.553380
2327.025049	147.621445
2328.584002	146.700699
2330.145968	146.698834
2331.705984	143.434033
2333.265704	136.477855
2334.823475	136.859674
2336.380952	139.218182
2337.938133	142.855012
2339.493368	141.491841
2341.048308	136.327273
2342.602955	136.717016
2344.157308	139.204662
2345.711367	139.958508
2347.265133	140.088112
2348.816954	139.459207
2350.366832	133.425175
2351.919718	134.973427
2353.467362	136.973893
2355.018013	140.337529
2356.565074	141.950117
2358.113492	141.645688
2359.661618	142.877855
2361.206157	145.633100
2362.752053	142.909557
2364.296010	141.348252
2365.841325	139.141259
2367.383055	137.424709
2368.926143	137.054079
2370.467294	142.231702
2372.008156	142.781818
2373.548729	150.788811
2375.089013	150.135664
2376.629008	147.813520
2378.165424	146.937063
2379.704842	145.800932
2381.240683	141.620979
2382.777880	142.315152
2384.311503	140.513753
2385.848125	146.488112
2387.382817	148.529138
2388.915578	152.852681
2390.448054	157.853147
2391.978601	159.056876
2393.512146	154.839627
2395.040480	152.193007
2396.570170	156.474126
2398.099575	155.789744
2399.628695	154.623310
2401.157529	148.867599
2402.681159	145.994872
2404.209424	143.925874
2405.732486	144.587879
2407.260183	146.396737
2408.781039	148.087646
2410.306529	146.268998
2411.828459	146.954779
2413.351743	149.464802
2414.873107	148.837762
2416.392551	148.974359
2417.913350	148.364103
2419.432230	139.059207
2420.950828	141.297436
2422.467509	145.753380
2423.985545	153.367832
2425.503299	159.490909
2427.017501	166.005594
2428.531423	169.840093
2430.045066	168.730070
2431.560062	167.163636
2433.071511	166.805128
2434.584313	166.620979
2436.095203	158.974359
2437.605813	156.423310
2439.114512	154.905361
2440.626198	150.109091
2442.134340	147.911888
2443.642203	150.010256
2445.149789	150.733333
2446.653835	152.332867
2448.160865	151.414452
2449.665987	152.449417
2451.170832	161.423310
2452.673770	161.486713
2454.176431	162.751981
2455.678816	169.332401
2457.179296	164.396270
2458.681129	161.319814
2460.181058	162.182284
2461.680711	158.117016
2463.180089	155.224242
2464.677564	152.747786
2466.173137	146.909091
2467.671690	141.556177
2469.166715	143.857343
2470.663092	140.937529
2472.155943	141.696970
2473.650146	143.453613
2475.144077	140.369697
2476.634483	143.006061
2478.127867	143.163170
2479.619353	140.491841
2481.108942	141.570163
2482.598259	140.575758
2484.085680	143.111888
2485.576077	146.599068
2487.062955	150.470396
2488.551186	152.540326
2490.035899	152.216783
2491.520342	152.893240
2493.006137	149.275991
2494.490039	150.805128
2495.975293	147.177156
2497.455413	144.751981
2498.938505	145.815851
2500.419708	142.686247
2501.900640	145.928205
2503.379684	144.846154
2504.858460	139.092774
2506.336967	139.719347
2507.815205	138.872727
2509.293176	139.724942
2510.767641	136.060140
2512.245075	136.253613
2513.719006	132.645221
2515.194288	132.850350
2516.669302	137.087179
2518.140815	134.021911
2519.613679	136.554779
2521.084660	135.996270
2522.556991	135.969231
2524.024208	143.302098
2525.494392	149.755711
2526.962694	150.283450
2528.430732	150.917016
2529.898505	150.388811
2531.366013	149.805128
2532.833257	146.015385
2534.297008	141.805594
2535.762109	139.246620
2537.225333	137.887179
2538.689906	139.253147
2540.150991	140.660606
2541.613425	145.548718
2543.075596	150.415385
2544.534280	150.491375
2545.997537	151.763170
2547.455697	150.424709
2548.915206	145.025641
2550.369622	139.747786
2551.828608	138.277855
2553.285721	143.074126
2554.740964	144.006993
2556.195946	144.759441
2557.649058	149.374359
2559.103519	153.927273
2560.556111	156.566900
2562.008443	151.439627
2563.458907	149.128205
2564.912327	149.855478
2566.360665	143.052214
2567.811959	143.531935
2569.261386	142.769697
2570.707342	146.148718
2572.156252	144.703497
2573.601691	142.675058
2575.048479	148.213054
2576.493403	149.348718
2577.938070	145.801399
2579.384084	145.079720
2580.826631	148.055944
2582.270526	155.071795
2583.710956	155.124009
2585.152734	161.659674
2586.592652	163.293240
2588.033917	167.642424
2589.471720	164.648019
2590.912473	164.544988
2592.348163	167.914685
2593.786803	161.967366
2595.223586	158.363636
2596.658512	158.344988
2598.096387	155.268531
2599.529204	157.158974
2600.963368	153.751515
2602.395677	153.868531
2603.829334	150.613054
2605.261136	150.837762
2606.692686	145.688578
2608.123982	146.233100
2609.553427	148.030769
2610.982619	147.041958
2612.409960	151.812121
2613.838648	153.765501
2615.267083	158.805128
2616.692072	164.946387
2618.118406	166.416317
2619.542892	169.219580
2620.968724	173.131935
2622.391112	175.443823
2623.814846	173.475991
2625.236734	169.946853
2626.658371	166.642890
2628.078164	164.894639
2629.499301	167.465268
2630.920189	168.485781
2632.337639	173.737529
2633.758028	175.410256
2635.174980	180.378089
2636.591684	187.835897
2638.008139	195.285781
2639.424346	202.165501
2640.840304	203.910956
2642.254422	201.995804
2643.668293	201.376690
2645.080324	204.268998
2646.493700	211.075991
2647.903646	212.692308
2649.316528	214.600466
2650.725981	216.867599
2652.135188	221.620513
2653.542559	225.600000
2654.952864	229.951515
2656.361333	233.341725
2657.767967	235.452681
2659.174356	236.988811
2660.578911	240.402331
2661.984810	244.421911
2663.388876	249.696037
2664.792698	253.984149
2666.196275	260.310956
2667.598021	266.759441
2669.001110	270.006993
2670.400781	273.580420
2671.801796	277.397203
2673.199395	277.618182
2674.599923	278.251748
2675.997037	279.588811
2677.395494	283.342191
2678.792123	285.169231
2680.188511	287.319814
2681.584656	293.393473
2682.978975	298.629837
2684.374637	298.195804
2685.766889	296.673660
2687.160485	297.206527
2688.552256	300.018648
2689.945369	299.342191
2691.336659	301.790676
2692.726126	301.289044
2694.115354	297.624709
2695.504341	297.766434
2696.894671	301.958974
2698.280016	305.845688
2699.668286	304.425641
2701.054735	304.015385
2702.440945	304.028904
2703.826916	304.287179
2705.209489	310.055944
2706.593404	308.534732
2707.977080	308.972494
2709.360519	304.536131
2710.740562	296.779021
2712.121947	295.953380
2713.501516	293.748718
2714.882427	286.765035
2716.261523	284.074592
2717.638805	282.190676
2719.017428	273.526340
2720.394237	265.583217
2721.770811	260.034965
2723.147149	252.788345
2724.521675	248.654545
2725.897542	249.210256
2727.270022	244.765035
2728.645419	238.433566
2730.015854	232.105361
2731.387631	223.559441
2732.759174	220.703497
2734.128908	212.009790
2735.499982	200.139394
2736.869249	191.036364
2738.238282	182.513753
2739.605508	178.904429
2740.972502	175.493706
2742.339263	177.278322
2743.705791	179.828904
2745.070515	174.496970
2746.435006	173.537529
2747.799265	171.786480
2749.163293	167.115618
2750.527088	160.405594
2751.887510	155.090909
2753.250843	149.912821
2754.609233	149.414452
2755.970533	145.747786
2757.328462	144.879254
2758.689301	145.723077
2760.048339	148.335664
2761.404009	148.058741
2762.762588	150.310956
2764.117799	153.218182
2765.472781	148.567832
2766.825966	146.757110
2768.182058	141.174359
2769.534786	137.865268
2770.887285	137.149184
2772.239557	133.947786
2773.593166	129.628438
2774.943414	130.487646
2776.291869	129.900233
2777.643228	134.650350
2778.991228	136.346387
2780.340567	144.354312
2781.688113	144.455944
2783.035432	147.162704
2784.382525	148.369231
2785.727827	150.446154
2787.072903	147.962238
2788.417753	145.174825
2789.762377	134.958042
2791.103648	135.174825
2792.446258	134.019114
2793.788643	134.648485
2795.130802	127.484382
2796.469612	129.499767
2797.811322	127.327739
2799.149683	130.577622
2800.489382	133.966900
2801.827295	135.110956
2803.163424	135.603730
2804.499330	136.430303
2805.836572	136.364569
2807.172031	141.762238
2808.507267	144.049883
2809.840721	140.552914
2811.175511	133.621911
2812.506960	135.296503
2813.841305	131.823776
2815.170752	131.993007
2816.501536	131.826107
2817.832098	132.495105
2819.160881	134.449417
2820.491001	134.553380
2821.819341	134.135664
2823.147461	135.714685
2824.473804	138.325408
2825.801482	136.209790
2827.125828	133.831702
2828.451510	135.386014
2829.775416	131.783683
2831.099102	129.726340
2832.424124	126.114219
2833.745817	122.236830
2835.067290	119.907226
2836.388545	118.516550
2837.709581	116.919347
2839.028845	119.260606
2840.349444	122.084382
2841.668271	118.858741
2842.986880	122.772960
2844.303719	128.332867
2845.620340	132.953846
2846.936743	132.977156
2848.251378	134.914219
2849.567347	135.779953
2850.879997	138.480653
2852.193981	136.859674
2853.507749	129.630303
2854.821300	126.978555
2856.133084	122.764103
2857.443103	120.163636
2858.754456	120.053147
2860.062493	120.583683
2861.371866	121.832168
2862.681023	121.090909
2863.989965	122.744056
2865.297144	127.691841
2866.602559	129.400466
2867.909309	124.847086
2869.214297	119.353380
2870.519070	123.069464
2871.822083	119.739860
2873.127976	120.340793
2874.429015	121.039627
2875.731387	120.094172
2877.032000	123.633100
2878.333947	126.250816
2879.635681	127.722611
2880.934111	133.049417
2882.233874	134.251282
2883.531880	130.950117
2884.829674	129.684382
2886.125711	130.358974
2887.423082	127.598601
2888.718697	127.732867
2890.014102	128.561772
2891.309295	125.330536
2892.601190	126.425175
2893.895962	125.937063
2895.187438	123.393007
2896.480246	123.389744
2897.772844	121.476923
2899.062147	118.737529
2900.352783	119.401865
2901.641669	119.797669
2902.931886	125.646620
2904.218812	127.698834
2905.507070	130.847552
2906.793579	129.218648
2908.079879	129.507226
2909.365971	131.595338
2910.650315	128.951515
2911.937531	128.448951
2913.219920	125.332401
2914.503641	125.006527
2915.785615	124.337995
2917.067383	124.766434
2918.347405	131.020513
2919.630297	129.590210
2920.911444	131.831702
2922.189309	131.305361
2923.470043	133.465734
2924.747496	134.068531
2926.024744	132.085315
2927.300249	129.515152
2928.578622	128.649883
2929.852181	126.123077
2931.128606	125.925408
2932.403291	124.390210
2933.676236	128.012121
2934.950511	125.200932
2936.223047	127.018648
2937.495379	125.845221
2938.764438	124.513287
2940.036362	122.111888
2941.306548	121.088112
2942.576530	118.067133
2943.846309	120.719814
2945.114351	120.505361
2946.380658	124.465268
2947.646762	122.889510
2948.914197	125.620047
2950.179896	123.579021
2951.445393	124.709091
2952.710689	124.320746
2953.972719	124.251282
2955.236079	127.348252
2956.499238	130.009790
2957.760664	125.725408
2959.023420	127.632634
2960.284445	128.552448
2961.543739	131.855478
2962.802832	128.969697
2964.061725	125.822844
2965.320418	123.076923
2966.578911	120.621445
2967.835675	119.254545
2969.092240	120.846620
2970.347076	122.382751
2971.603242	119.012587
2972.856152	113.222378
2974.110392	112.552914
2975.364433	114.170629
2976.616748	119.202331
2977.868865	114.286713
2979.119257	110.594406
2980.372504	111.819580
2981.620974	108.413054
2982.872298	110.870396
2984.120374	113.671329
2985.368252	115.349184
2986.615933	115.724009
2987.863418	118.076457
2989.109181	119.649883
2990.354747	115.096503
2991.601642	118.627040
2992.845291	116.017716
2994.090269	111.506294
2995.332004	110.483450
2996.576590	108.894172
2997.819457	111.030303
2999.059082	111.921212
3000.301559	115.065734
3001.540795	115.826107
3002.781359	117.786480
3004.020206	116.764103
3005.258859	110.381818
3006.495796	113.340326
3007.734061	111.877855
3008.970610	105.797203
3010.206966	104.428904
3011.443128	103.468531
3012.677576	104.284382
3013.911831	105.822378
3015.145893	110.662471
3016.378243	111.525874
3017.608881	116.593939
3018.842365	118.902098
3020.074138	116.316550
3021.304199	116.481585
3022.534069	118.632168
3023.762229	117.759441
3024.991716	118.853613
3026.219493	116.616317
3027.447079	120.020513
3028.675991	121.618182
3029.900161	119.555711
3031.127174	116.246620
3032.350964	116.004662
3033.576079	115.027972
3034.799488	113.124009
3036.022708	110.608858
3037.244222	110.247552
3038.468577	110.722611
3039.688197	109.634033
3040.909143	105.868065
3042.129899	108.253147
3043.348952	109.784149
3044.569331	106.658741
3045.786493	107.917016
3047.004980	112.393473
3048.221766	116.543124
3049.438363	116.918881
3050.654773	114.558974
3051.867969	111.754779
3053.084003	110.855944
3054.296825	106.703963
3055.512484	104.396270
3056.723420	106.166434
3057.935682	105.904429
3059.147756	103.620979
3060.359644	106.329138
3061.569834	109.891841
3062.779839	111.464802
3063.989657	113.406993
3065.197779	114.449883
3066.405715	113.351515
3067.611957	113.223310
3068.819523	109.786946
3070.025394	106.559441
3071.231080	104.232168
3072.436582	100.367832
3073.640390	99.263869
3074.845522	99.298834
3076.048961	99.323543
3077.250708	104.438695
3078.452272	107.145455
3079.653652	108.879720
3080.854848	109.366434
3082.054354	106.537063
3083.253676	102.533800
3084.454322	100.406061
3085.653279	100.306294
3086.849040	98.870396
3088.047631	99.611655
3089.243028	97.753380
3090.439749	100.358042
3091.633277	106.094639
3092.829633	107.267599
3094.024302	110.218182
3095.215781	109.569231
3096.411591	107.935198
3097.602708	107.200932
3098.795148	107.799534
3099.984399	105.796270
3101.176477	99.705361
3102.366871	98.689044
3103.554078	97.877855
3104.742609	95.859674
3105.932462	96.226573
3107.119130	93.252214
3108.305619	91.539860
3109.491928	87.779021
3110.679560	87.510490
3111.864009	85.826107
3113.046778	88.142657
3114.232371	85.893706
3115.416283	85.627972
3116.598517	89.317949
3117.780573	89.867599
3118.962450	89.279254
3120.144149	92.401865
3121.324171	91.810256
3122.502516	93.527273
3123.683681	92.047552
3124.861671	95.296970
3126.039484	97.508625
3127.217120	101.765035
3128.393081	103.462005
3129.568866	105.244289
3130.745971	105.682517
3131.921403	104.178089
3133.095161	102.303963
3134.267246	100.347786
3135.440652	95.875991
3136.613883	94.010256
3137.785442	89.530070
3138.958321	93.846154
3140.128033	95.682051
3141.299066	96.785548
3142.468428	98.955245
3143.636121	98.115618
3144.806629	99.449883
3145.972478	100.051748
3147.142637	96.159907
3148.308138	96.346853
3149.473466	92.768298
3150.638620	92.347319
3151.803601	93.587879
3152.969901	94.934266
3154.131548	96.147319
3155.294516	96.003263
3156.457311	94.591608
3157.619932	92.960373
3158.780889	91.734732
3159.941674	90.627040
3161.102286	89.270862
3162.261234	88.868065
3163.420010	90.013986
3164.578615	92.121212
3165.737048	96.292774
3166.895309	95.351515
3168.051909	94.952448
3169.206846	94.560373
3170.363104	94.299767
3171.517700	95.219580
3172.672126	94.352914
3173.824891	90.464336
3174.977487	93.273193
3176.129913	89.862005
3177.282168	94.557576
3178.434254	93.800466
3179.583193	93.104429
3180.734939	92.227040
3181.885028	93.317016
3183.033459	93.302564
3184.181722	91.886247
3185.329816	95.363170
3186.477741	92.836364
3187.624010	91.805594
3188.770111	96.314685
3189.914558	93.751049
3191.058836	98.159441
3192.202947	98.700699
3193.348376	97.970629
3194.490666	103.312821
3195.632788	104.711422
3196.774744	99.358042
3197.916532	97.541725
3199.058153	96.722145
3200.196638	89.968765
3201.336442	90.049883
3202.477562	88.651748
3203.615548	85.989277
3204.751885	84.439627
3205.888056	84.235431
3207.025545	81.618182
3208.161385	83.801865
3209.298542	85.873660
3210.431086	88.122611
3211.567911	91.058275
3212.700125	92.812587
3213.833657	93.919347
3214.967023	95.982284
3216.097262	97.027972
3217.230300	96.096037
3218.360210	96.163636
3219.491438	99.777156
3220.619540	101.579953
3221.750440	104.063403
3222.879695	107.593007
3224.007307	108.380886
3225.131796	106.482984
3226.260561	103.624242
3227.386204	99.210723
3228.511684	94.530536
3229.635523	92.450350
3230.762157	91.778555
3231.884192	89.473193
3233.007544	90.010256
3234.130734	88.717016
3235.253762	88.088578
3236.375150	89.151981
3237.496377	88.792541
3238.615965	85.694172
3239.735392	86.810256
3240.853182	88.163170
3241.973763	87.996737
3243.091231	91.014918
3244.208538	91.320746
3245.325684	91.843823
3246.441195	91.352448
3247.558021	88.397669
3248.671736	89.887179
3249.788242	88.264802
3250.903112	86.390210
3252.014874	80.665734
3253.126477	81.008858
3254.239395	80.872727
3255.352153	78.559441
3256.461805	79.245688
3257.572772	79.758508
3258.683580	86.461072
3259.792756	87.579487
3260.900301	91.988345
3262.009161	95.460140
3263.117862	94.029837
3264.223461	93.372028
3265.330375	87.702564
3266.435659	86.465734
3267.542257	83.552914
3268.645755	80.443357
3269.750567	80.165035
3270.855222	81.829371
3271.956779	83.346387
3273.058179	84.323077
3274.160893	86.273660
3275.263450	84.285315
3276.362912	84.015851
3277.465156	82.777622
3278.564306	80.327739
3279.661830	81.874126
3280.759200	78.904429
3281.859351	80.805594
3282.956409	81.303030
3284.053313	83.820979
3285.150061	83.265734
3286.242250	84.896503
3287.338689	86.053147
3288.433505	86.349650
3289.528166	86.248019
3290.621206	85.721678
3291.714092	84.937063
3292.805357	87.792541
3293.897935	84.657809
3294.988893	84.158042
3296.078231	81.001865
3297.167416	78.751049
3298.257913	79.091375
3299.345326	79.769697
3300.432587	82.572028
3301.521160	82.268065
3302.609580	82.083450
3303.693453	81.512354
3304.781568	79.582284
3305.866602	80.692308
3306.950020	78.004196
3308.034750	77.948718
3309.117864	74.687646
3310.202290	73.779953
3311.283638	77.224242
3312.366298	77.331002
3313.447344	79.768298
3314.528239	76.597203
3315.607521	77.778089
3316.686652	80.366900
3317.767095	75.938462
3318.844463	75.786946
3319.923143	74.500699
3321.000211	73.903030
3322.077129	72.313287
3323.152437	73.786946
3324.227595	75.036830
3325.304064	75.041492
3326.377462	75.611655
3327.450712	73.695571
3328.525273	76.654079
3329.598224	77.724942
3330.669568	75.186480
3331.742222	75.874126
3332.811809	77.470396
3333.882707	74.588811
3334.951998	77.100233
3336.022600	78.910956
3337.091595	81.228438
3338.158985	79.298368
3339.224768	79.410256
3340.294778	78.108159
3341.361725	78.798601
3342.425610	78.676457
3343.492263	80.481585
3344.557312	78.157576
3345.620757	76.761305
3346.684055	73.365501
3347.747208	72.917483
3348.810214	70.529604
3349.873073	73.379953
3350.934331	71.482984
3351.992532	71.761772
3353.054954	71.435431
3354.114319	72.918415
3355.173540	76.284848
3356.234069	76.762704
3357.290089	76.488578
3358.348874	75.730536
3359.403151	73.655944
3360.460192	74.218182
3361.515634	76.891841
3362.572385	81.402797
3363.627539	81.174359
3364.681095	79.366900
3365.733054	76.765501
3366.787776	74.701632
3367.839448	74.478788
3368.890976	71.939394
3369.943814	71.341725
3370.993604	70.529604
3372.044703	71.127739
3373.092755	74.511422
3374.143568	72.633566
3375.191335	71.510023
3376.238960	68.262471
3377.286443	66.633566
3378.332332	67.259674
3379.379531	70.977622
3380.423686	74.944522
3381.470600	79.704895
3382.515923	83.326807
3383.558204	85.093706
3384.600344	83.277855
3385.643793	78.391142
3386.687100	73.588345
3387.728817	71.252681
3388.770394	64.735198
3389.811829	65.710956
3390.851676	70.268998
3391.889934	75.161772
3392.929500	77.965035
3393.968926	81.451282
3395.006764	82.378089
3396.043015	81.927739
3397.079126	79.282517
3398.116545	73.863869
3399.150931	75.432168
3400.186625	76.504429
3401.222179	73.295571
3402.254701	73.855478
3403.289977	74.014452
3404.322222	73.509091
3405.354329	73.304895
3406.384853	77.011655
3407.416683	79.444289
3408.448375	80.939394
3409.477039	80.582284
3410.505566	77.585082
3411.535399	80.595804
3412.565095	82.503030
3413.591765	84.262005
3414.619741	82.267133
3415.644693	77.385082
3416.672396	74.588345
3417.697074	70.349184
3418.723059	71.724009
3419.747465	72.455012
3420.771733	71.845688
3421.794424	71.335664
3422.816978	72.031235
3423.840838	72.641958
3424.861678	73.105828
3425.882382	71.882850
3426.904392	71.130569
3427.923384	71.426374
3428.942241	73.347652
3429.962404	77.471795
3430.979549	84.376190
