-118.277064	6.335714
-115.607463	2.701099
-112.940798	1.745455
-110.274885	2.772627
-107.611905	5.086464
-104.947494	7.990809
-102.286014	10.789510
-99.623105	10.252448
-96.965303	10.560839
-94.306070	8.695804
-91.647586	5.493007
-88.992027	1.132168
-86.335039	0.111189
-83.683148	0.504895
-81.029828	2.316084
-78.379427	2.388112
-75.727598	3.523776
-73.080859	6.316084
-70.432690	7.837762
-67.785265	7.160140
-65.140753	7.861538
-62.494812	5.005594
-59.853954	3.002797
-57.211665	0.086014
-54.572286	-1.177622
-51.931478	-1.311888
-49.291409	-2.363636
-46.656414	-1.269930
-44.019989	-0.138462
-41.386468	0.828671
-38.751517	3.581818
-36.121633	2.739161
-33.488155	1.268531
-30.859740	0.661538
-28.232059	-1.843357
-25.602950	-3.413986
-22.978897	-18.804895
-20.351254	-66.944755
-17.728666	-128.037063
-15.106808	-84.112587
-12.485681	229.463636
-9.865285	690.281818
-7.247776	1061.275524
-4.628839	1309.498601
-2.012788	1437.879021
0.602536	1441.233566
3.217131	1322.598601
5.828845	1088.725175
8.441986	741.604895
11.050095	329.235664
13.661784	-38.756643
16.268443	-205.486713
18.876530	-121.604196
21.483893	-7.749650
24.086231	5.021678
26.692147	8.939161
29.293042	9.460839
31.895364	7.504196
34.492668	6.077622
37.093548	3.758042
39.689414	2.125175
42.286707	4.986713
44.883281	3.345455
47.474846	2.148951
50.067839	1.642657
52.657972	2.765734
55.249531	3.889510
57.838231	7.339161
60.428359	7.705594
63.013487	8.228671
65.600043	8.175524
68.185884	8.688112
70.768872	9.378322
73.353287	10.616783
75.930572	7.502797
78.511424	4.679021
81.089427	2.294406
83.666720	3.439161
86.245440	2.886014
88.819177	2.632867
91.394341	1.728671
93.966662	0.793007
96.538276	0.955245
99.107049	1.762937
101.677249	0.455944
104.244610	-0.129371
106.813398	-4.499301
109.379349	-5.138462
111.942464	-6.290210
114.509137	-4.003497
117.066587	-1.651748
119.629723	4.097902
122.187900	8.468531
124.749631	18.923077
127.306405	30.549650
129.864605	46.054545
132.417853	61.087413
134.970402	79.708392
137.526503	98.662238
140.077655	119.381818
142.628110	138.531469
145.177867	155.593706
147.724805	172.402797
150.271048	183.244755
152.818716	187.741958
155.365688	195.060140
157.907724	194.290909
160.449068	193.433566
162.989718	190.912587
165.531793	189.062238
168.071058	185.883916
170.607513	182.441958
173.143278	182.593007
175.680468	180.388811
178.216967	181.237063
180.750660	180.884615
183.281549	179.945455
185.811750	182.694406
188.343376	180.246853
190.872202	183.506294
193.398228	186.157343
195.923568	186.686713
198.450333	186.302797
200.974302	183.972727
203.497585	185.310490
206.020184	186.623077
208.539990	187.359441
211.059113	186.701399
213.577553	184.318881
216.097418	183.773427
218.610280	185.046853
221.126674	191.222378
223.642387	192.029371
226.153209	193.977622
228.665456	192.972727
231.174920	190.827273
233.683706	191.722378
236.191814	194.011189
238.701346	191.914685
241.205997	187.690210
243.709972	186.597203
246.215371	188.904196
248.715895	191.149650
251.219942	191.065734
253.717019	190.779720
256.217618	193.911189
258.715446	193.110490
261.212601	191.396503
263.709084	191.465035
266.200703	197.156643
268.695841	198.416084
271.188214	199.569930
273.679916	206.552448
276.168855	211.842657
278.659217	210.804196
281.146818	210.353846
283.631659	211.320979
286.120014	209.348252
288.601431	204.708392
291.086361	201.053147
293.566445	199.444056
296.050042	202.217483
298.528797	202.366434
301.008974	205.579021
303.486400	209.431469
305.963162	211.397902
308.439260	214.900699
310.912610	223.486713
313.385299	231.257343
315.857326	234.506993
318.328691	237.229371
320.797313	239.755944
323.265275	241.793007
325.734660	238.925175
328.199222	236.657343
330.667287	231.329371
333.130533	224.665035
335.593122	221.734965
338.055053	221.636364
340.516328	220.782517
342.974869	219.309790
345.434832	214.946853
347.892063	214.079021
350.348639	214.618881
352.804560	215.874126
355.257753	212.923077
357.712368	213.991608
360.162181	213.853147
362.615490	216.065734
365.064000	218.135664
367.511860	217.765734
369.961141	214.844755
372.405629	211.581818
374.851539	208.097902
377.296800	206.537762
379.739342	204.934266
382.181236	204.741958
384.622482	202.286713
387.061013	202.707692
389.500966	205.730070
391.938205	207.323776
394.372732	208.656643
396.810747	210.236364
399.243985	211.066434
401.678645	212.454545
404.108532	215.561538
406.541904	215.965035
408.970506	215.753846
411.398466	217.155944
413.827847	215.181119
416.252464	216.187413
418.678501	216.098601
421.103899	216.893007
423.528656	218.066434
425.948654	218.043357
428.370074	217.342657
430.788797	216.902797
433.208941	216.800699
435.626390	214.737762
438.045259	214.047552
440.461435	215.471329
442.872864	212.683916
445.287769	213.435664
447.699984	216.469930
450.111565	218.109091
452.522513	218.687413
454.930773	219.028671
457.338402	217.123077
459.745398	214.016084
462.151762	211.614685
464.555445	209.709091
466.958497	208.586014
469.360919	206.485315
471.762711	205.800699
474.161825	210.342657
476.562359	212.832168
478.962264	211.403497
481.357447	212.324476
483.756095	213.488112
486.150024	210.476923
488.543327	208.042657
490.936004	205.019580
493.328056	202.509790
495.721527	200.209790
498.110285	196.093007
500.496377	192.630070
502.883889	188.321678
505.270777	183.188112
507.655002	178.460839
510.040646	175.995105
512.423627	175.781818
514.803948	172.588112
517.185688	173.127273
519.564770	171.976224
521.945269	170.430070
524.323111	170.513287
526.698298	167.248951
529.072867	164.908392
531.448855	165.153846
533.822189	164.479021
536.196942	162.409790
538.567008	163.667133
540.936459	165.846853
543.307329	164.305594
545.673517	165.711189
548.041124	161.791608
550.406085	157.160140
552.770434	157.469231
555.134169	156.055944
557.499322	157.491608
559.859803	159.388811
562.221701	159.093706
564.580960	158.771329
566.937580	158.953147
569.297646	158.755944
571.651020	157.704196
574.007839	157.598601
576.362023	154.035664
578.715598	151.488112
581.068565	151.713986
583.418901	149.668531
585.770654	151.311888
588.115729	152.505594
590.466269	151.662238
592.810136	152.993007
595.159464	153.303497
597.504143	154.383916
599.846198	155.139860
602.189670	158.393007
604.530519	158.162937
606.870765	156.404196
609.208391	156.869231
611.549452	157.172727
613.885876	156.569930
616.223716	153.330070
618.558938	148.998601
620.891545	146.906993
623.225569	146.130769
625.556978	144.802098
627.887789	145.213287
630.218002	150.368531
632.547618	149.226573
634.872610	148.214685
637.203044	150.989510
639.528856	151.391608
641.852062	150.812587
644.176684	148.276923
646.498700	149.781818
648.820122	149.204196
651.138941	151.593706
653.459176	151.269930
655.778818	152.491608
658.095859	152.367832
660.412309	147.548252
662.726160	145.373427
665.041426	145.244755
667.354096	145.891608
669.668181	146.829371
671.977667	145.402797
674.288567	146.966434
676.596875	147.948951
678.904595	150.797902
681.213730	149.234965
683.518272	147.012587
685.822228	146.267133
688.125597	146.561538
690.430381	144.946853
692.730579	143.570629
695.032192	143.470629
697.333219	140.421678
699.629665	138.413986
701.927525	138.015385
704.224803	139.078322
706.521496	140.744056
708.813614	139.920979
711.109143	141.058042
713.400099	144.141958
715.692469	144.767133
717.982263	142.167133
720.271478	139.768531
722.560113	139.925874
724.846175	139.734266
727.133651	141.379720
729.418557	141.855944
731.702884	142.180420
733.984644	143.710490
736.267817	145.171329
738.550413	145.563636
740.828453	144.503497
743.107907	144.799301
745.386786	144.485315
747.665090	145.366434
749.938843	146.514685
752.214011	147.739860
754.488605	147.023077
756.760640	146.300000
759.034088	143.740559
761.304978	142.690909
763.573312	144.290210
765.843059	142.202098
768.110251	142.595804
770.376873	144.108392
772.642926	146.807692
774.906427	151.532867
777.171340	152.820979
779.435685	154.153147
781.695499	153.551049
783.956727	154.546853
786.217387	151.733566
788.475500	151.511189
790.731070	153.064336
792.990029	150.839860
795.242490	151.692308
797.500318	151.560140
799.753627	151.413287
802.004395	150.790909
804.256576	150.653846
806.506219	148.362238
808.757273	145.874825
811.003816	143.061538
813.251772	139.065734
815.497192	139.056643
817.744025	139.406993
819.990295	141.214685
822.232062	142.931469
824.477211	145.241259
826.715888	146.132168
828.957948	146.263636
831.195509	147.939860
833.434481	145.772727
835.670928	144.530070
837.908785	140.622378
840.144117	140.195804
842.376925	143.024476
844.611145	142.567133
846.842843	143.710490
849.073986	142.489510
851.304574	141.255944
853.534608	139.054545
855.764087	139.458741
857.989086	138.696503
860.217458	140.461538
862.441352	140.986014
864.666656	141.306993
866.887485	143.514685
869.111687	146.025175
871.331415	145.333566
873.552553	144.460140
875.773141	142.613986
877.991220	142.069930
880.210708	142.516783
882.425730	145.683217
884.640204	145.479021
886.854131	147.656643
889.067510	147.697203
891.280343	147.104895
893.492628	144.588112
895.702412	142.578322
897.911650	140.848252
900.120342	138.608392
902.326536	140.847552
904.534139	144.423077
906.739245	145.959441
908.943807	148.541958
911.145874	148.613986
913.349350	147.255944
915.550332	147.420979
917.750772	143.519580
919.952621	138.546853
922.148079	136.395105
924.346895	135.776224
926.541274	138.430769
928.739010	146.221678
930.932310	151.720280
933.127018	152.981119
935.319241	158.679021
937.510926	161.123077
939.702073	162.732867
941.890737	162.594406
944.078864	162.230070
946.264511	163.646853
948.453511	161.569231
950.638086	159.442657
952.822127	161.750350
955.009518	165.507692
957.188606	166.454545
959.371044	163.968531
961.552947	170.933566
963.732377	174.045455
965.909334	174.960839
968.087699	173.020979
970.267470	173.552448
972.440893	172.214685
974.617663	172.694406
976.790025	169.204196
978.963795	167.427273
981.133161	169.867832
983.305871	168.982517
985.476115	169.958042
987.645831	172.570629
989.815018	170.771329
991.979808	170.551049
994.147940	172.486014
996.311676	174.298601
998.476820	174.233566
1000.639504	179.344755
1002.801663	175.665734
1004.961364	180.587413
1007.120542	186.839161
1009.281126	192.202797
1011.439255	193.253846
1013.596860	188.800000
1015.753942	186.144755
1017.910501	185.876923
1020.062680	188.435664
1022.216266	186.137063
1024.369330	187.784615
1026.519945	191.795105
1028.671966	192.977622
1030.819615	193.727273
1032.970594	197.997902
1035.117204	201.827972
1037.263294	197.303497
1039.408866	189.286014
1041.555842	187.715385
1043.696531	185.522378
1045.840548	182.079720
1047.982126	180.765734
1050.123186	185.439860
1052.265651	186.730769
1054.401837	187.739161
1056.541349	189.214685
1058.676505	192.120979
1060.814986	195.686014
1062.949114	195.816084
1065.082728	200.341259
1067.217746	204.332168
1069.348415	203.102098
1071.480490	199.023776
1073.610134	201.392308
1075.739267	200.271329
1077.867889	200.448252
1079.995999	200.146853
1082.121683	200.164336
1084.246857	197.524476
1086.373434	205.319580
1088.495675	207.020280
1090.619320	210.967832
1092.738630	211.547552
1094.863169	208.125175
1096.981464	206.269930
1099.101162	201.560839
1101.218442	196.900699
1103.335216	193.354545
1105.451483	189.327273
1107.565335	188.933566
1109.680590	187.565035
1111.791523	190.798601
1113.905768	189.194406
1116.015692	191.713287
1118.127019	194.769231
1120.237843	195.813287
1122.344350	196.788811
1124.454166	193.577622
1126.559668	195.758741
1128.666574	195.285315
1130.767264	193.778322
1132.873165	193.152448
1134.974758	189.362238
1137.077754	186.526573
1139.180249	184.865734
1141.276538	182.276224
1143.378033	179.276923
1145.475226	182.827972
1147.571920	184.516783
1149.668117	187.335664
1151.763815	191.328671
1153.859016	195.016783
1155.951820	197.427273
1158.046026	202.284615
1160.134041	205.093007
1162.227254	204.607692
1164.314279	204.583217
1166.404604	201.440559
1168.490640	200.699301
1170.579974	200.653846
1172.663127	201.139860
1174.747683	201.951748
1176.833639	199.266434
1178.915315	194.046154
1180.998391	192.330070
1183.079082	189.852448
1185.159282	188.050350
1187.238990	188.295105
1189.318207	191.547552
1191.395041	197.245455
1193.469495	203.288112
1195.547241	205.251049
1197.620716	211.391608
1199.695593	216.204196
1201.766202	213.915385
1203.838212	209.574825
1205.907846	208.090210
1207.978881	203.772727
1210.049428	204.413287
1212.115715	205.565035
1214.183401	207.634266
1216.248716	212.869930
1218.315431	213.448951
1220.377890	215.018182
1222.443635	220.706294
1224.505125	221.322378
1226.568015	220.179720
1228.628538	224.455245
1230.688578	221.794406
1232.748134	220.239860
1234.805326	220.566434
1236.862035	220.900699
1238.916382	223.883916
1240.974009	230.112587
1243.029274	231.736364
1245.080298	237.694406
1247.132723	243.574825
1249.184667	242.948951
1251.234253	246.038462
1253.283360	250.165734
1255.331988	244.300000
1257.380138	243.482517
1259.427810	243.332867
1261.471251	240.534266
1263.517967	239.444755
1265.562331	242.237762
1267.606217	244.009790
1269.647753	247.288112
1271.686939	249.279021
1273.729397	253.895105
1275.767634	259.151748
1277.807268	264.209091
1279.846428	266.291608
1281.881370	268.842657
1283.917710	267.525175
1285.951705	266.079720
1287.987099	264.680420
1290.018279	266.648951
1292.050858	268.999301
1294.082964	272.474825
1296.112730	273.351049
1298.143894	281.786014
1300.170850	290.163636
1302.199204	295.608392
1304.223354	297.943357
1306.250769	296.213986
1308.273981	297.419580
1310.298591	302.319580
1312.320866	303.296503
1314.344539	307.256643
1316.365879	305.716783
1318.386752	306.725175
1320.407157	307.679021
1322.423369	313.420280
1324.440978	318.313986
1326.456259	313.003497
1328.474799	307.798601
1330.489149	306.618182
1332.501174	311.924476
1334.516457	316.716084
1336.527554	320.520979
1338.540047	323.572727
1340.548358	320.344056
1342.559925	320.742657
1344.565453	323.002098
1346.574235	325.906993
1348.578841	324.189510
1350.586700	324.244056
1352.594097	324.071329
1354.595462	326.790909
1356.598225	329.693706
1358.600528	327.337063
1360.602370	326.823776
1362.603754	320.552448
1364.602823	310.601399
1366.601434	304.954545
1368.599587	302.825175
1370.597282	302.265035
1372.590813	300.858042
1374.585741	304.665734
1376.580212	302.495804
1378.574226	302.706993
1380.565933	301.593706
1382.557184	293.570629
1384.546130	290.846154
1386.536471	283.888112
1388.526357	276.668531
1390.513940	275.025175
1392.501069	273.698601
1394.485896	275.357343
1396.472118	276.557343
1398.456039	277.164336
1400.439508	277.518182
1402.422525	280.550350
1404.403244	279.041259
1406.385357	273.287413
1408.365173	274.384615
1410.344539	273.257343
1412.319766	271.762238
1414.298231	275.065734
1416.274403	276.467133
1418.250125	276.911189
1420.225398	273.907692
1422.198381	270.532168
1424.170915	268.948951
1426.143001	269.292308
1428.114639	264.513986
1430.082150	265.079720
1432.054734	267.384615
1434.019512	268.421678
1435.989363	270.781119
1437.955089	275.103497
1439.922209	274.316783
1441.887045	273.630070
1443.847761	272.213986
1445.813545	268.846853
1447.773374	268.532867
1449.734596	267.141958
1451.697211	267.683217
1453.655711	271.993007
1455.613769	271.318182
1457.571384	271.262238
1459.528558	270.941259
1461.483456	270.662937
1463.439746	266.630769
1465.393762	264.650350
1467.347338	263.325874
1469.298641	258.709790
1471.251336	260.286713
1473.201760	257.302098
1475.151745	260.994406
1477.101291	267.456643
1479.048567	269.223077
1480.993577	273.827273
1482.939979	277.437762
1484.885943	278.988112
1486.831470	278.211189
1488.774731	274.944755
1490.717556	274.300000
1492.658118	271.027972
1494.600072	268.655944
1496.539763	265.817483
1498.479019	268.379021
1500.417841	270.129371
1502.354403	264.669930
1504.292355	268.566434
1506.228050	270.014685
1508.163311	269.134965
1510.096315	267.159441
1512.028887	264.001399
1513.961027	264.906294
1515.892735	267.593706
1517.822190	270.269231
1519.753034	277.934266
1521.683448	282.003497
1523.609789	284.137063
1525.537520	284.091608
1527.463001	291.132168
1529.388053	290.969930
1531.312676	290.034965
1533.236870	294.201399
1535.158817	295.950350
1537.082153	302.781119
1539.003244	312.246853
1540.922090	321.079720
1542.842326	329.267133
1544.760318	335.894406
1546.677884	346.534965
1548.593209	356.043357
1550.509922	366.030769
1552.422581	374.742657
1554.338444	392.472727
1556.252068	414.873427
1558.163453	441.485315
1560.076227	479.641259
1561.984953	524.112587
1563.895067	571.661538
1565.804758	625.335664
1567.714026	678.967133
1569.621059	728.713986
1571.525860	763.381119
1573.432050	782.829371
1575.336009	782.693007
1577.239546	764.911189
1579.142662	727.133566
1581.043550	682.804196
1582.945826	629.326573
1584.845873	576.275524
1586.747309	524.851748
1588.644710	484.525874
1590.541694	451.713287
1592.438259	426.882517
1594.336211	409.421678
1596.228329	398.553147
1598.123641	392.231469
1600.018534	384.796503
1601.911207	377.206294
1603.803462	373.911189
1605.693498	365.697902
1607.583118	361.640559
1609.472323	356.791608
1611.361112	353.000000
1613.247685	348.693007
1615.135645	342.458741
1617.019588	335.812587
1618.904918	331.495804
1620.789835	324.417483
1622.672538	312.566434
1624.556628	303.409790
1626.436706	297.758042
1628.318171	288.588811
1630.197426	282.746853
1632.078067	275.748252
1633.952905	268.087413
1635.832723	259.031469
1637.708536	254.051748
1639.583940	246.681818
1641.460729	241.263636
1643.331721	234.051748
1645.205896	228.933566
1647.076071	223.079021
1648.949427	222.893706
1650.820580	218.081818
1652.689531	213.323776
1654.559868	209.209091
1656.426211	206.224476
1658.293941	206.107692
1660.159471	208.196503
1662.026386	206.301399
1663.889313	205.974126
1665.753625	206.575524
1667.615742	202.393007
1669.477453	197.836364
1671.340549	197.004895
1673.201451	192.502098
1675.060159	189.306294
1676.918465	188.672028
1678.778154	186.185315
1680.632077	185.984615
1682.489173	185.448252
1684.345865	184.504895
1686.198582	182.375524
1688.054470	182.093706
1689.906384	177.547552
1691.757897	170.846154
1693.609009	167.666434
1695.459720	166.269231
1697.310031	162.181119
1699.158158	157.986713
1701.007668	157.255245
1702.851430	157.843357
1704.700142	161.758042
1706.543107	163.269930
1708.389238	162.555245
1710.231408	164.774126
1712.076742	164.592308
1713.916336	156.558042
1715.757314	155.502797
1717.599676	157.367832
1719.438080	158.794406
1721.277868	164.573427
1723.115481	165.585315
1724.952698	160.856643
1726.787742	163.109091
1728.624169	163.512587
1730.458424	161.434965
1732.292285	157.940559
1734.125751	157.078322
1735.955271	142.744056
1737.787950	139.451748
1739.616685	142.962238
1741.448578	145.890210
1743.276528	147.846853
1745.104086	145.309091
1746.931253	138.403497
1748.758028	141.445455
1750.584411	143.290210
1752.406858	149.001399
1754.232459	150.244755
1756.054126	150.957343
1757.877175	147.940559
1759.698063	152.630070
1761.518561	155.147552
1763.340441	156.006993
1765.156621	156.045455
1766.975953	158.311189
1768.791358	152.058741
1770.609914	156.025175
1772.424544	157.390909
1774.238787	155.711888
1776.052644	153.537063
1777.866114	150.198601
1779.677430	146.732867
1781.490128	145.492308
1783.302439	141.491608
1785.110833	140.768531
1786.920608	139.651748
1788.726467	141.449650
1790.535473	142.595105
1792.340565	146.665734
1794.147037	147.893007
1795.953126	151.437063
1797.755305	155.137762
1799.560627	149.503497
1801.362041	144.579021
1803.164835	150.773427
1804.963724	150.572028
1806.763992	153.090210
1808.563880	149.292308
1810.361625	150.400000
1812.158990	150.627972
1813.955974	151.086014
1815.752578	155.015385
1817.547043	153.349650
1819.342888	149.960839
1821.133077	143.588112
1822.928163	142.901399
1824.717596	145.528671
1826.510167	144.285315
1828.300602	146.509790
1830.088902	141.260140
1831.880338	145.999301
1833.666129	146.255944
1835.453298	145.827273
1837.238337	145.771329
1839.026508	141.786014
1840.810794	142.616084
1842.592951	141.406993
1844.376487	139.910490
1846.157894	141.121678
1847.940679	143.425175
1849.719585	145.558741
1851.499869	147.525175
1853.278028	149.883916
1855.057564	148.857343
1856.834976	146.617483
1858.610264	142.424476
1860.386931	140.602797
1862.161475	141.623077
1863.937396	138.693007
1865.707698	137.975524
1867.481127	143.277622
1869.252436	145.089510
1871.023374	152.685315
1872.795689	158.906993
1874.562392	155.503497
1876.332219	155.300699
1878.098183	154.564336
1879.867271	149.039161
1881.632497	150.358042
1883.397355	150.005594
1885.163589	144.469930
1886.925965	143.285315
1888.687974	144.827972
1890.449616	143.890210
1892.210890	145.073427
1893.971798	145.315385
1895.732338	138.639860
1897.490770	139.940559
1899.248835	139.193706
1901.004793	137.671329
1902.762127	139.628671
1904.519095	138.993706
1906.273958	138.358741
1908.026715	135.621678
1909.779109	131.120280
1911.532879	126.772028
1913.284545	124.465035
1915.034108	125.518881
1916.785048	121.974126
1918.535624	125.321678
1920.282362	128.683217
1922.030475	133.701399
1923.776489	134.879021
1925.523879	140.827972
1927.269170	140.088811
1929.012364	136.100000
1930.756934	129.551049
1932.499407	128.444056
1934.241520	126.932168
1935.983274	124.113986
1937.724667	121.628671
1939.463967	119.763636
1941.202908	122.830070
1942.941490	124.623077
1944.677980	123.869930
1946.414113	128.722378
1948.151620	126.745455
1949.885306	129.893706
1951.620366	128.171329
1953.353337	132.290210
1955.085952	132.176224
1956.818210	134.528671
1958.550112	136.408392
1960.279928	135.956643
1962.007660	139.513287
1963.736766	139.638462
1965.465516	139.590909
1967.192183	141.248951
1968.918496	144.399301
1970.646182	147.572028
1972.368333	145.541958
1974.093584	147.160839
1975.815028	144.416084
1977.539572	146.791608
1979.262037	148.732867
1980.980698	148.575524
1982.702458	148.579021
1984.420416	143.437063
1986.139748	139.912587
1987.855279	139.030070
1989.575632	141.900699
1991.292186	147.000000
1993.004943	147.510490
1994.720796	146.518881
1996.434577	145.337762
1998.148008	145.237762
1999.859367	146.651748
2001.572100	147.463636
2003.281041	148.865734
2004.993076	144.297902
2006.699601	144.083217
2008.409219	143.806294
2010.116769	143.938462
2011.823972	143.125175
2013.529109	138.843357
2015.233899	136.069231
2016.940061	133.906993
2018.642441	132.383217
2020.346193	133.406294
2022.047882	132.206294
2023.749225	135.687413
2025.450223	135.978322
2027.149161	135.924476
2028.849470	135.418881
2030.546003	134.334266
2032.243908	133.620979
2033.939755	136.033566
2035.638687	136.787413
2037.332133	137.313986
2039.026950	139.525874
2040.721424	140.231469
2042.412130	140.342657
2044.105920	143.748951
2045.795943	145.176923
2047.487337	145.223077
2049.176678	151.032168
2050.867389	151.170629
2052.554338	152.052448
2054.240946	149.634266
2055.928925	142.186014
2057.613144	136.125175
2059.298733	135.857343
2060.983983	134.913287
2062.667185	133.427972
2064.351757	135.734266
2066.030865	136.110490
2067.714759	138.202797
2069.393193	139.793007
2071.074704	139.441958
2072.752463	140.405594
2074.429886	139.230769
2076.108678	134.365035
2077.785427	136.041958
2079.460135	136.795105
2081.136212	138.678322
2082.810249	138.987413
2084.483950	142.356643
2086.157316	141.267832
2087.828644	141.439161
2089.499637	138.641958
2091.170296	140.626573
2092.840621	140.069930
2094.510611	140.069231
2096.178566	137.397902
2097.846188	139.700000
2099.511776	136.613287
2101.178732	137.013287
2102.843655	133.958042
2104.508245	134.002098
2106.170804	133.844755
2107.834732	132.472028
2109.496628	131.731469
2111.158193	133.828671
2112.819428	134.897902
2114.478633	137.663636
2116.137509	135.511189
2117.796054	137.090210
2119.454270	137.206993
2121.108763	138.755245
2122.766320	140.178322
2124.423547	141.449650
2126.077054	142.383217
2127.731928	141.648951
2129.383083	141.439161
2131.037301	142.499301
2132.687801	138.930769
2134.339669	137.236364
2135.986128	133.004196
2137.637341	133.656643
2139.284842	131.058042
2140.933709	133.133566
2142.580557	132.406294
2144.227080	132.872727
2145.873277	132.025874
2147.515765	131.134266
2149.161312	130.562937
2150.803152	129.067133
2152.448049	125.046154
2154.089241	128.918881
2155.730109	133.193706
2157.370654	135.815385
2159.009186	131.822378
2160.649084	134.226573
2162.285282	133.102098
2163.922846	133.001399
2165.560088	129.939161
2167.195320	130.597902
2168.830230	128.602098
2170.464819	129.691608
2172.099087	133.206993
2173.729661	138.379720
2175.363286	144.711189
2176.993220	144.696503
2178.624520	143.976224
2180.253814	145.910490
2181.882789	145.904895
2183.511444	141.346853
2185.139780	141.618881
2186.766113	139.986014
2188.392128	134.725874
2190.016142	135.890909
2191.641521	132.958741
2193.264899	128.783916
2194.889642	128.492308
2196.510703	127.346853
2198.131449	132.155245
2199.753558	134.424476
2201.373670	137.451049
2202.991786	139.437762
2204.609586	142.189510
2206.227070	139.621678
2207.844239	136.860839
2209.461093	135.430070
2211.077632	132.420979
2212.692177	128.225874
2214.304731	122.635664
2215.918648	120.700699
2217.530573	123.977622
2219.143863	120.402098
2220.755161	121.252448
2222.364471	122.534965
2223.975143	120.411189
2225.583827	123.572028
2227.192199	124.581119
2228.798583	123.432168
2230.406331	128.559441
2232.012092	126.725874
2233.617543	126.190909
2235.221008	129.836364
2236.825836	134.148951
2238.428680	131.098601
2240.029541	131.062937
2241.631765	129.844056
2243.232007	131.483217
2244.833611	137.190909
2246.431562	138.306993
2248.030876	136.817483
2249.628210	137.239161
2251.225236	135.802098
2252.823623	136.960140
2254.418362	138.477622
2256.011125	140.421678
2257.605249	138.616783
2259.200736	134.267832
2260.792577	132.060140
2262.384112	137.900699
2263.977008	140.139161
2265.564595	141.233566
2267.156879	139.376224
2268.743855	138.786713
2270.333860	141.221678
2271.918560	138.406294
2273.507954	137.575524
2275.092045	138.707692
2276.677498	135.606294
2278.260982	130.625175
2279.847491	129.454545
2281.430367	128.952448
2283.012939	129.959441
2284.595209	134.509790
2286.173848	134.243357
2287.755512	135.079720
2289.333547	134.631469
2290.914605	128.609790
2292.492036	127.167133
2294.067504	127.104895
2295.645994	125.537762
2297.220859	125.942657
2298.795425	128.331469
2300.369689	132.004196
2301.943653	136.355245
2303.517317	137.839161
2305.090680	136.128671
2306.660425	134.934965
2308.229871	128.937762
2309.802336	123.038462
2311.369526	120.743357
2312.939733	119.127972
2314.506327	118.084615
2316.074279	118.555944
2317.640277	120.499301
2319.205977	118.582517
2320.771379	115.883916
2322.334828	118.567133
2323.899636	123.576224
2325.460835	126.439860
2327.025049	126.978322
2328.584002	130.374825
2330.145968	130.165734
2331.705984	129.876923
2333.265704	127.556643
2334.823475	122.048951
2336.380952	121.688112
2337.938133	116.291608
2339.493368	115.418881
2341.048308	120.226573
2342.602955	124.672727
2344.157308	126.032867
2345.711367	128.494406
2347.265133	130.765035
2348.816954	133.211888
2350.366832	136.351049
2351.919718	137.830769
2353.467362	132.711888
2355.018013	134.930070
2356.565074	127.500000
2358.113492	122.993007
2359.661618	123.308392
2361.206157	120.803497
2362.752053	118.634965
2364.296010	119.593706
2365.841325	122.139161
2367.383055	128.869231
2368.926143	132.762937
2370.467294	133.466434
2372.008156	126.978322
2373.548729	127.953846
2375.089013	124.478322
2376.629008	122.516084
2378.165424	125.953846
2379.704842	123.781818
2381.240683	123.036364
2382.777880	123.032867
2384.311503	124.013287
2385.848125	122.477622
2387.382817	121.624476
2388.915578	118.858042
2390.448054	116.652448
2391.978601	120.525175
2393.512146	121.409091
2395.040480	127.560140
2396.570170	134.110490
2398.099575	133.480420
2399.628695	134.441958
2401.157529	139.285315
2402.681159	137.895105
2404.209424	134.080420
2405.732486	137.706294
2407.260183	136.254545
2408.781039	134.757343
2410.306529	133.830769
2411.828459	135.868531
2413.351743	142.409091
2414.873107	147.716084
2416.392551	149.660140
2417.913350	152.560140
2419.432230	152.050350
2420.950828	147.356643
2422.467509	144.093007
2423.985545	146.760839
2425.503299	144.348951
2427.017501	138.878322
2428.531423	139.630070
2430.045066	139.641259
2431.560062	140.604895
2433.071511	144.030070
2434.584313	144.086014
2436.095203	143.511189
2437.605813	139.318881
2439.114512	141.271329
2440.626198	139.337762
2442.134340	138.941259
2443.642203	139.575524
2445.149789	136.549650
2446.653835	138.207692
2448.160865	136.107692
2449.665987	136.094406
2451.170832	134.611189
2452.673770	131.908392
2454.176431	128.089510
2455.678816	128.425874
2457.179296	129.408392
2458.681129	130.344056
2460.181058	129.395105
2461.680711	133.986014
2463.180089	136.377622
2464.677564	140.745455
2466.173137	137.318881
2467.671690	135.153147
2469.166715	130.493706
2470.663092	124.965035
2472.155943	120.754545
2473.650146	118.062238
2475.144077	118.518881
2476.634483	116.813986
2478.127867	116.723776
2479.619353	128.927273
2481.108942	135.886014
2482.598259	138.630769
2484.085680	131.557343
2485.576077	136.426573
2487.062955	137.176923
2488.551186	136.286713
2490.035899	134.190909
2491.520342	127.388112
2493.006137	123.945455
2494.490039	116.596503
2495.975293	121.132867
2497.455413	126.051748
2498.938505	126.244755
2500.419708	126.211189
2501.900640	122.914685
2503.379684	128.755944
2504.858460	128.120280
2506.336967	126.812587
2507.815205	127.241958
2509.293176	125.310490
2510.767641	124.034965
2512.245075	126.458042
2513.719006	127.908392
2515.194288	126.837762
2516.669302	129.995105
2518.140815	128.114685
2519.613679	129.168531
2521.084660	129.769231
2522.556991	130.151748
2524.024208	135.683217
2525.494392	136.702098
2526.962694	132.712587
2528.430732	130.353147
2529.898505	129.725175
2531.366013	123.167133
2532.833257	123.249650
2534.297008	121.755245
2535.762109	116.292308
2537.225333	118.767832
2538.689906	117.748951
2540.150991	122.400699
2541.613425	127.695804
2543.075596	124.132867
2544.534280	123.531469
2545.997537	120.918182
2547.455697	121.498601
2548.915206	120.862937
2550.369622	126.930070
2551.828608	126.785315
2553.285721	125.472727
2554.740964	123.448252
2556.195946	125.967133
2557.649058	129.441958
2559.103519	134.936364
2560.556111	134.827972
2562.008443	136.725874
2563.458907	132.622378
2564.912327	135.474825
2566.360665	136.592308
2567.811959	138.020979
2569.261386	138.132168
2570.707342	135.076923
2572.156252	128.441259
2573.601691	128.734266
2575.048479	125.831469
2576.493403	127.279720
2577.938070	122.806993
2579.384084	121.641958
2580.826631	119.509091
2582.270526	120.713287
2583.710956	128.765035
2585.152734	131.158741
2586.592652	135.354545
2588.033917	138.094406
2589.471720	138.074126
2590.912473	141.105594
2592.348163	136.578322
2593.786803	137.393706
2595.223586	136.144755
2596.658512	134.448951
2598.096387	135.940559
2599.529204	141.411888
2600.963368	142.632168
2602.395677	140.560839
2603.829334	144.136364
2605.261136	146.041958
2606.692686	146.339161
2608.123982	147.759441
2609.553427	143.081119
2610.982619	145.060140
2612.409960	147.165035
2613.838648	144.432867
2615.267083	148.444755
2616.692072	149.083916
2618.118406	146.978322
2619.542892	151.100699
2620.968724	155.037063
2622.391112	158.150350
2623.814846	158.979021
2625.236734	161.646154
2626.658371	162.398601
2628.078164	162.669930
2629.499301	160.416783
2630.920189	157.150350
2632.337639	154.272727
2633.758028	151.169231
2635.174980	152.756643
2636.591684	153.403497
2638.008139	150.364336
2639.424346	153.264336
2640.840304	155.739860
2642.254422	161.660140
2643.668293	162.604196
2645.080324	168.226573
2646.493700	169.993007
2647.903646	174.111189
2649.316528	177.499301
2650.725981	184.786713
2652.135188	186.280420
2653.542559	187.660839
2654.952864	183.446154
2656.361333	183.286713
2657.767967	184.279021
2659.174356	183.434266
2660.578911	181.127273
2661.984810	188.013986
2663.388876	187.504895
2664.792698	194.106993
2666.196275	201.318182
2667.598021	210.334266
2669.001110	214.093007
2670.400781	221.993706
2671.801796	222.079021
2673.199395	224.374825
2674.599923	225.714685
2675.997037	226.876224
2677.395494	228.085315
2678.792123	232.187413
2680.188511	228.630769
2681.584656	230.629371
2682.978975	229.244755
2684.374637	233.085315
2685.766889	231.599301
2687.160485	233.244755
2688.552256	227.257343
2689.945369	225.053147
2691.336659	222.517483
2692.726126	226.783217
2694.115354	226.820280
2695.504341	231.320280
2696.894671	234.253846
2698.280016	240.978322
2699.668286	241.069930
2701.054735	247.221678
2702.440945	245.807692
2703.826916	244.998601
2705.209489	241.174126
2706.593404	240.783916
2707.977080	234.732867
2709.360519	235.983916
2710.740562	230.087413
2712.121947	229.118182
2713.501516	229.205594
2714.882427	226.508392
2716.261523	221.410490
2717.638805	220.858042
2719.017428	218.616783
2720.394237	213.658741
2721.770811	209.942657
2723.147149	205.558741
2724.521675	195.611888
2725.897542	191.293007
2727.270022	183.628671
2728.645419	182.460839
2730.015854	179.808392
2731.387631	171.858042
2732.759174	166.640559
2734.128908	163.672028
2735.499982	166.325874
2736.869249	162.995105
2738.238282	158.537063
2739.605508	156.546154
2740.972502	153.974825
2742.339263	149.598601
2743.705791	144.211888
2745.070515	142.820280
2746.435006	140.020979
2747.799265	131.869930
2749.163293	131.586713
2750.527088	132.454545
2751.887510	136.802098
2753.250843	139.751049
2754.609233	138.469231
2755.970533	139.862937
2757.328462	140.560839
2758.689301	137.102797
2760.048339	132.164336
2761.404009	135.055245
2762.762588	134.158741
2764.117799	130.632168
2765.472781	133.032867
2766.825966	133.490909
2768.182058	133.442657
2769.534786	132.667133
2770.887285	128.789510
2772.239557	128.674825
2773.593166	128.170629
2774.943414	127.386014
2776.291869	129.011189
2777.643228	128.138462
2778.991228	121.902098
2780.340567	121.248252
2781.688113	122.052448
2783.035432	122.425175
2784.382525	119.374126
2785.727827	116.095105
2787.072903	117.450350
2788.417753	121.445455
2789.762377	122.940559
2791.103648	121.966434
2792.446258	125.276923
2793.788643	118.888112
2795.130802	116.078322
2796.469612	120.275524
2797.811322	120.260839
2799.149683	120.234965
2800.489382	117.968531
2801.827295	116.845455
2803.163424	120.148252
2804.499330	120.208392
2805.836572	119.327972
2807.172031	122.396503
2808.507267	124.239161
2809.840721	123.910490
2811.175511	125.750350
2812.506960	129.965734
2813.841305	127.668531
2815.170752	126.190210
2816.501536	124.583217
2817.832098	126.253846
2819.160881	124.237063
2820.491001	117.319580
2821.819341	112.706993
2823.147461	111.503497
2824.473804	109.482517
2825.801482	109.182517
2827.125828	108.395105
2828.451510	107.761538
2829.775416	110.048252
2831.099102	110.094406
2832.424124	115.290909
2833.745817	118.367832
2835.067290	116.675524
2836.388545	113.818182
2837.709581	109.820979
2839.028845	109.447552
2840.349444	112.539860
2841.668271	110.653147
2842.986880	109.160839
2844.303719	107.606993
2845.620340	108.073427
2846.936743	108.117483
2848.251378	109.389510
2849.567347	107.756643
2850.879997	102.987413
2852.193981	101.307692
2853.507749	100.066434
2854.821300	105.617483
2856.133084	107.024476
2857.443103	110.027972
2858.754456	112.537063
2860.062493	116.164336
2861.371866	111.990909
2862.681023	116.281119
2863.989965	113.101399
2865.297144	112.223077
2866.602559	106.967832
2867.909309	109.779720
2869.214297	112.665734
2870.519070	120.003497
2871.822083	118.482517
2873.127976	119.079021
2874.429015	118.551748
2875.731387	114.086014
2877.032000	106.860839
2878.333947	106.311888
2879.635681	100.174825
2880.934111	98.749650
2882.233874	97.513986
2883.531880	100.132867
2884.829674	103.855245
2886.125711	107.429371
2887.423082	104.741958
2888.718697	102.463636
2890.014102	104.093007
2891.309295	100.979720
2892.601190	105.626573
2893.895962	106.389510
2895.187438	109.618182
2896.480246	111.396503
2897.772844	116.197902
2899.062147	119.495105
2900.352783	121.495804
2901.641669	119.937063
2902.931886	115.243357
2904.218812	109.118881
2905.507070	107.360839
2906.793579	101.798601
2908.079879	104.217483
2909.365971	103.338462
2910.650315	106.823077
2911.937531	106.762937
2913.219920	109.999301
2914.503641	111.928671
2915.785615	113.172727
2917.067383	114.700000
2918.347405	111.736364
2919.630297	110.911189
2920.911444	112.495804
2922.189309	112.739161
2923.470043	114.515385
2924.747496	113.777622
2926.024744	116.732867
2927.300249	113.950350
2928.578622	112.774825
2929.852181	112.939860
2931.128606	110.695105
2932.403291	111.394406
2933.676236	107.497902
2934.950511	109.357343
2936.223047	110.567133
2937.495379	110.716783
2938.764438	110.849650
2940.036362	112.497203
2941.306548	114.967133
2942.576530	108.111888
2943.846309	109.846154
2945.114351	107.809091
2946.380658	102.245455
2947.646762	102.230070
2948.914197	98.190210
2950.179896	101.411888
2951.445393	101.406993
2952.710689	105.223776
2953.972719	111.553147
2955.236079	115.214685
2956.499238	115.888112
2957.760664	112.680420
2959.023420	117.358741
2960.284445	117.606294
2961.543739	112.779021
2962.802832	112.584615
2964.061725	110.306993
2965.320418	109.324476
2966.578911	108.296503
2967.835675	110.713986
2969.092240	106.896503
2970.347076	109.707692
2971.603242	110.676224
2972.856152	111.762937
2974.110392	112.659441
2975.364433	111.974825
2976.616748	104.072028
2977.868865	104.778322
2979.119257	102.393706
2980.372504	98.562937
2981.620974	95.457343
2982.872298	95.406993
2984.120374	91.173427
2985.368252	98.357343
2986.615933	98.408392
2987.863418	105.226573
2989.109181	109.606294
2990.354747	110.632168
2991.601642	109.437762
2992.845291	113.046853
2994.090269	109.558042
2995.332004	104.153147
2996.576590	101.702098
2997.819457	100.411888
2999.059082	99.290909
3000.301559	100.215385
3001.540795	95.704196
3002.781359	100.360839
3004.020206	103.528671
3005.258859	101.494406
3006.495796	99.333566
3007.734061	98.161538
3008.970610	95.172727
3010.206966	96.676923
3011.443128	103.360140
3012.677576	107.334266
3013.911831	111.331469
3015.145893	112.077622
3016.378243	106.632168
3017.608881	105.554545
3018.842365	105.013986
3020.074138	99.804895
3021.304199	95.879720
3022.534069	93.422378
3023.762229	95.757343
3024.991716	100.146853
3026.219493	104.551748
3027.447079	106.446853
3028.675991	104.234965
3029.900161	103.627273
3031.127174	97.781818
3032.350964	93.813287
3033.576079	95.642657
3034.799488	96.338462
3036.022708	96.240559
3037.244222	96.707692
3038.468577	98.509091
3039.688197	99.751049
3040.909143	103.788811
3042.129899	104.410490
3043.348952	105.162238
3044.569331	101.739860
3045.786493	98.397902
3047.004980	98.461538
3048.221766	97.186713
3049.438363	96.466434
3050.654773	93.654545
3051.867969	92.537762
3053.084003	89.672028
3054.296825	93.662238
3055.512484	96.958042
3056.723420	97.648252
3057.935682	102.266434
3059.147756	99.089510
3060.359644	99.155245
3061.569834	99.802098
3062.779839	95.975175
3063.989657	95.667133
3065.197779	93.156294
3066.405715	91.672028
3067.611957	88.508741
3068.819523	88.173427
3070.025394	83.282168
3071.231080	84.534965
3072.436582	85.181469
3073.640390	85.747552
3074.845522	88.087063
3076.048961	90.196503
3077.250708	90.879371
3078.452272	94.541958
3079.653652	95.562238
3080.854848	96.675524
3082.054354	93.788112
3083.253676	96.964336
3084.454322	97.311888
3085.653279	101.603497
3086.849040	101.122378
3088.047631	100.644056
3089.243028	100.982517
3090.439749	97.834266
3091.633277	94.252448
3092.829633	94.360140
3094.024302	91.927273
3095.215781	88.533566
3096.411591	89.127972
3097.602708	92.595804
3098.795148	91.595804
3099.984399	91.033566
3101.176477	90.634965
3102.366871	91.186014
3103.554078	94.734965
3104.742609	97.402098
3105.932462	95.298601
3107.119130	95.838462
3108.305619	92.460140
3109.491928	94.478322
3110.679560	94.125874
3111.864009	89.494406
3113.046778	84.976224
3114.232371	80.650350
3115.416283	78.000000
3116.598517	74.090210
3117.780573	72.373427
3118.962450	71.990909
3120.144149	66.593706
3121.324171	71.139161
3122.502516	71.857343
3123.683681	82.045455
3124.861671	85.891608
3126.039484	88.980420
3127.217120	90.264336
3128.393081	91.913986
3129.568866	91.730769
3130.745971	87.363636
3131.921403	85.122378
3133.095161	81.158741
3134.267246	79.202098
3135.440652	81.869930
3136.613883	79.842657
3137.785442	84.593007
3138.958321	82.853147
3140.128033	80.849650
3141.299066	82.158741
3142.468428	81.511888
3143.636121	81.556643
3144.806629	81.732867
3145.972478	79.060140
3147.142637	79.668531
3148.308138	81.452448
3149.473466	79.669231
3150.638620	79.292308
3151.803601	79.115385
3152.969901	76.641259
3154.131548	79.691608
3155.294516	81.502797
3156.457311	78.364336
3157.619932	80.316084
3158.780889	81.023077
3159.941674	75.308392
3161.102286	74.362238
3162.261234	71.194406
3163.420010	67.620979
3164.578615	68.854545
3165.737048	68.746154
3166.895309	72.919580
3168.051909	75.739161
3169.206846	80.129371
3170.363104	84.826573
3171.517700	88.748252
3172.672126	86.021678
3173.824891	81.778322
3174.977487	78.581818
3176.129913	73.218182
3177.282168	70.320979
3178.434254	68.358042
3179.583193	68.004196
3180.734939	68.500699
3181.885028	70.144755
3183.033459	79.028671
3184.181722	82.655245
3185.329816	81.394406
3186.477741	80.519580
3187.624010	81.111189
3188.770111	82.948252
3189.914558	77.802797
3191.058836	76.079720
3192.202947	70.449650
3193.348376	71.946853
3194.490666	70.826573
3195.632788	69.506294
3196.774744	72.866434
3197.916532	75.351748
3199.058153	76.199301
3200.196638	77.294406
3201.336442	81.680420
3202.477562	84.954545
3203.615548	80.097902
3204.751885	80.790909
3205.888056	78.681818
3207.025545	80.134266
3208.161385	80.845455
3209.298542	78.579021
3210.431086	77.877622
3211.567911	78.960140
3212.700125	76.914685
3213.833657	74.981119
3214.967023	77.195105
3216.097262	77.104895
3217.230300	73.979720
3218.360210	76.818881
3219.491438	78.991608
3220.619540	79.834965
3221.750440	81.479021
3222.879695	79.486713
3224.007307	78.968531
3225.131796	76.495804
3226.260561	76.665734
3227.386204	75.590909
3228.511684	75.955944
3229.635523	75.740559
3230.762157	75.341259
3231.884192	80.252448
3233.007544	82.009790
3234.130734	81.373427
3235.253762	81.168531
3236.375150	85.418881
3237.496377	86.793007
3238.615965	85.023077
3239.735392	86.836364
3240.853182	85.790909
3241.973763	84.318881
3243.091231	83.659441
3244.208538	81.641958
3245.325684	80.342657
3246.441195	74.613986
3247.558021	76.093007
3248.671736	73.527972
3249.788242	73.762937
3250.903112	69.318881
3252.014874	68.337762
3253.126477	64.773427
3254.239395	62.853147
3255.352153	60.695804
3256.461805	61.662238
3257.572772	60.119580
3258.683580	61.768531
3259.792756	65.359441
3260.900301	70.812587
3262.009161	68.227972
3263.117862	68.793706
3264.223461	68.644056
3265.330375	72.510490
3266.435659	71.595105
3267.542257	69.272727
3268.645755	67.090210
3269.750567	66.783916
3270.855222	69.258042
3271.956779	68.464336
3273.058179	68.665035
3274.160893	67.335664
3275.263450	64.246853
3276.362912	64.390909
3277.465156	66.088811
3278.564306	66.767133
3279.661830	67.248951
3280.759200	67.788811
3281.859351	67.730769
3282.956409	73.179720
3284.053313	75.837063
3285.150061	77.412587
3286.242250	81.751748
3287.338689	83.243357
3288.433505	82.305594
3289.528166	83.315385
3290.621206	77.034965
3291.714092	73.181818
3292.805357	71.658042
3293.897935	69.958741
3294.988893	65.416084
3296.078231	66.404196
3297.167416	64.317483
3298.257913	64.309091
3299.345326	64.788112
3300.432587	64.753147
3301.521160	63.997902
3302.609580	63.402098
3303.693453	62.263636
3304.781568	66.296503
3305.866602	68.786014
3306.950020	70.805594
3308.034750	73.997902
3309.117864	75.784615
3310.202290	76.629371
3311.283638	73.460140
3312.366298	72.300000
3313.447344	69.776923
3314.528239	67.248951
3315.607521	67.254545
3316.686652	67.881119
3317.767095	65.083916
3318.844463	63.799301
3319.923143	64.335664
3321.000211	63.898601
3322.077129	60.980420
3323.152437	62.097203
3324.227595	58.495105
3325.304064	60.851049
3326.377462	62.273427
3327.450712	65.956643
3328.525273	68.748252
3329.598224	70.614685
3330.669568	69.904895
3331.742222	69.582517
3332.811809	70.348951
3333.882707	64.874126
3334.951998	63.865734
3336.022600	62.947552
3337.091595	62.195804
3338.158985	63.241958
3339.224768	63.556643
3340.294778	64.216084
3341.361725	65.879021
3342.425610	69.698601
3343.492263	68.389510
3344.557312	65.293007
3345.620757	64.076923
3346.684055	62.030070
3347.747208	62.934266
3348.810214	61.788112
3349.873073	63.816084
3350.934331	58.674126
3351.992532	61.587413
3353.054954	59.200000
3354.114319	58.613287
3355.173540	59.340559
3356.234069	56.420280
3357.290089	54.019580
3358.348874	56.436364
3359.403151	57.718881
3360.460192	64.820280
3361.515634	66.121678
3362.572385	68.370629
3363.627539	66.295804
3364.681095	67.155245
3365.733054	63.351748
3366.787776	60.778322
3367.839448	56.696503
3368.890976	49.724476
3369.943814	47.362238
3370.993604	50.191608
3372.044703	50.567133
3373.092755	59.206294
3374.143568	59.769231
3375.191335	63.258741
3376.238960	66.137762
3377.286443	62.072727
3378.332332	63.575524
3379.379531	63.226573
3380.423686	63.616084
3381.470600	61.118881
3382.515923	61.995105
3383.558204	63.260140
3384.600344	62.453147
3385.643793	63.445455
3386.687100	61.422378
3387.728817	60.144755
3388.770394	60.055245
3389.811829	55.997902
3390.851676	58.616783
3391.889934	55.594406
3392.929500	57.989510
3393.968926	59.500000
3395.006764	59.571329
3396.043015	62.626573
3397.079126	62.647552
3398.116545	62.679720
3399.150931	63.458741
3400.186625	61.670629
3401.222179	64.322378
3402.254701	63.532867
3403.289977	61.027273
3404.322222	58.088112
3405.354329	60.027273
3406.384853	63.510490
3407.416683	62.359441
3408.448375	61.330769
3409.477039	58.878322
3410.505566	61.816783
3411.535399	60.425175
3412.565095	59.090909
3413.591765	60.838462
3414.619741	58.434965
3415.644693	56.096503
3416.672396	56.546853
3417.697074	60.084615
3418.723059	61.151049
3419.747465	60.842657
3420.771733	60.570629
3421.794424	67.145455
3422.816978	73.213986
3423.840838	73.421678
3424.861678	76.045455
3425.882382	74.824875
3426.904392	72.233866
3427.923384	68.415085
3428.942241	63.511189
3429.962404	57.664835
3430.979549	51.018681
