-118.277064	1.503571
-115.607463	-0.343956
-112.940798	-0.578771
-110.274885	0.432867
-107.611905	2.324700
-104.947494	4.730470
-102.286014	7.283916
-99.623105	8.455944
-96.965303	11.458741
-94.306070	9.954545
-91.647586	8.809091
-88.992027	9.088811
-86.335039	10.301399
-83.683148	8.372028
-81.029828	8.952448
-78.379427	8.658741
-75.727598	4.811888
-73.080859	4.493007
-70.432690	5.677622
-67.785265	2.375524
-65.140753	2.950350
-62.494812	1.695105
-59.853954	0.544755
-57.211665	1.280420
-54.572286	3.041259
-51.931478	2.081119
-49.291409	7.458042
-46.656414	6.349650
-44.019989	7.012587
-41.386468	5.567832
-38.751517	6.238462
-36.121633	5.768531
-33.488155	6.949650
-30.859740	7.947552
-28.232059	8.958741
-25.602950	4.397902
-22.978897	-12.085315
-20.351254	-62.146154
-17.728666	-142.181818
-15.106808	-136.074825
-12.485681	259.601399
-9.865285	829.268531
-7.247776	1291.568531
-4.628839	1603.155944
-2.012788	1768.518182
0.602536	1782.047552
3.217131	1645.296503
5.828845	1363.218881
8.441986	949.097203
11.050095	442.030070
13.661784	-33.725175
16.268443	-273.209091
18.876530	-144.600000
21.483893	-9.347552
24.086231	8.210490
26.692147	5.078322
29.293042	8.172727
31.895364	8.137762
34.492668	10.639161
37.093548	9.745455
39.689414	10.881119
42.286707	9.790909
44.883281	9.006993
47.474846	6.072727
50.067839	6.420280
52.657972	6.736364
55.249531	5.535664
57.838231	-0.346154
60.428359	2.251748
63.013487	2.914685
65.600043	0.914685
68.185884	1.297203
70.768872	5.403497
73.353287	5.462937
75.930572	3.404196
78.511424	1.149650
81.089427	1.593706
83.666720	1.832168
86.245440	-0.996503
88.819177	-3.250350
91.394341	-0.095804
93.966662	-2.760140
96.538276	-2.437762
99.107049	1.315385
101.677249	5.188112
104.244610	5.246154
106.813398	6.302797
109.379349	7.263636
111.942464	11.446853
114.509137	10.881119
117.066587	10.177622
119.629723	13.875524
122.187900	19.559441
124.749631	25.548951
127.306405	41.215385
129.864605	61.401399
132.417853	88.039161
134.970402	120.153147
137.526503	161.516084
140.077655	203.636364
142.628110	242.874126
145.177867	275.651049
147.724805	300.820979
150.271048	317.366434
152.818716	326.757343
155.365688	329.827972
157.907724	329.027273
160.449068	326.169231
162.989718	321.425874
165.531793	318.955245
168.071058	318.594406
170.607513	318.740559
173.143278	317.267133
175.680468	318.143357
178.216967	313.870629
180.750660	309.232867
183.281549	309.701399
185.811750	309.114685
188.343376	311.026573
190.872202	312.993706
193.398228	314.962937
195.923568	315.667133
198.450333	314.029371
200.974302	315.725175
203.497585	314.139161
206.020184	312.707692
208.539990	312.165734
211.059113	312.267133
213.577553	312.433566
216.097418	309.614685
218.610280	309.086713
221.126674	310.093007
223.642387	309.866434
226.153209	307.739860
228.665456	306.318182
231.174920	307.672028
233.683706	306.160140
236.191814	310.691608
238.701346	313.098601
241.205997	316.210490
243.709972	319.864336
246.215371	323.373427
248.715895	326.572028
251.219942	332.230769
253.717019	335.952448
256.217618	334.314685
258.715446	335.373427
261.212601	333.847552
263.709084	332.610490
266.200703	335.484615
268.695841	334.711189
271.188214	335.930070
273.679916	337.783916
276.168855	341.319580
278.659217	341.301399
281.146818	344.595804
283.631659	345.269231
286.120014	343.686713
288.601431	344.627972
291.086361	344.766434
293.566445	347.637063
296.050042	350.485315
298.528797	351.917483
301.008974	348.585315
303.486400	349.717483
305.963162	351.015385
308.439260	356.330769
310.912610	364.697902
313.385299	374.900000
315.857326	388.204196
318.328691	396.029371
320.797313	404.141958
323.265275	407.177622
325.734660	404.744755
328.199222	398.406294
330.667287	388.225175
333.130533	382.495105
335.593122	371.058042
338.055053	370.081818
340.516328	369.340559
342.974869	372.108392
345.434832	374.445455
347.892063	372.935664
350.348639	373.956643
352.804560	371.741958
355.257753	369.109091
357.712368	366.053846
360.162181	365.374825
362.615490	365.511189
365.064000	360.318881
367.511860	360.244755
369.961141	361.491608
372.405629	362.727972
374.851539	364.048951
377.296800	363.258042
379.739342	364.020280
382.181236	364.547552
384.622482	363.723077
387.061013	365.394406
389.500966	364.351049
391.938205	366.226573
394.372732	367.603497
396.810747	367.679021
399.243985	366.046154
401.678645	363.292308
404.108532	363.455245
406.541904	364.115385
408.970506	360.377622
411.398466	360.539860
413.827847	356.502797
416.252464	358.276923
418.678501	353.210490
421.103899	352.804895
423.528656	353.469930
425.948654	354.061538
428.370074	351.669930
430.788797	354.344755
433.208941	357.530070
435.626390	358.820979
438.045259	357.067832
440.461435	359.223776
442.872864	357.919580
445.287769	356.551748
447.699984	353.151748
450.111565	351.813986
452.522513	353.005594
454.930773	350.365035
457.338402	353.323077
459.745398	355.047552
462.151762	356.577622
464.555445	354.787413
466.958497	353.611189
469.360919	351.059441
471.762711	347.779720
474.161825	344.934965
476.562359	346.170629
478.962264	344.813986
481.357447	346.367133
483.756095	346.397203
486.150024	352.257343
488.543327	351.484615
490.936004	353.223776
493.328056	346.076224
495.721527	339.172727
498.110285	331.880420
500.496377	324.421678
502.883889	317.100699
505.270777	311.684615
507.655002	305.492308
510.040646	303.904895
512.423627	299.666434
514.803948	296.805594
517.185688	296.039860
519.564770	295.886713
521.945269	293.946853
524.323111	292.265035
526.698298	290.893706
529.072867	289.272028
531.448855	284.495105
533.822189	283.054545
536.196942	279.220280
538.567008	276.092308
540.936459	271.341958
543.307329	269.753846
545.673517	268.892308
548.041124	270.506294
550.406085	269.990210
552.770434	268.205594
555.134169	269.721678
557.499322	271.619580
559.859803	273.493706
562.221701	272.622378
564.580960	272.076224
566.937580	267.903497
569.297646	265.892308
571.651020	264.016084
574.007839	262.225874
576.362023	261.963636
578.715598	259.620280
581.068565	260.785315
583.418901	264.134266
585.770654	264.476923
588.115729	267.571329
590.466269	264.662937
592.810136	264.932867
595.159464	262.940559
597.504143	264.052448
599.846198	263.653846
602.189670	263.448252
604.530519	263.067133
606.870765	262.053846
609.208391	260.169231
611.549452	260.273427
613.885876	258.665734
616.223716	260.309091
618.558938	258.948252
620.891545	258.975524
623.225569	257.275524
625.556978	258.832168
627.887789	258.683916
630.218002	257.140559
632.547618	254.724476
634.872610	253.410490
637.203044	248.992308
639.528856	249.673427
641.852062	246.313287
644.176684	246.965734
646.498700	251.791608
648.820122	254.155245
651.138941	255.185315
653.459176	258.775524
655.778818	262.079021
658.095859	264.417483
660.412309	265.308392
662.726160	265.465734
665.041426	262.225874
667.354096	262.849650
669.668181	258.800699
671.977667	264.283916
674.288567	266.265734
676.596875	265.364336
678.904595	263.318182
681.213730	262.276923
683.518272	262.337063
685.822228	262.633566
688.125597	263.132867
690.430381	261.760839
692.730579	258.743357
695.032192	258.923776
697.333219	257.379720
699.629665	257.758741
701.927525	253.468531
704.224803	255.756643
706.521496	251.641259
708.813614	250.108392
711.109143	249.046154
713.400099	250.165035
715.692469	251.202797
717.982263	254.480420
720.271478	252.407692
722.560113	255.132867
724.846175	256.555944
727.133651	256.206294
729.418557	256.846853
731.702884	257.232867
733.984644	253.234266
736.267817	254.507692
738.550413	254.830769
740.828453	253.807692
743.107907	257.265035
745.386786	260.104895
747.665090	260.562937
749.938843	262.586713
752.214011	265.501399
754.488605	265.251748
756.760640	262.654545
759.034088	259.460140
761.304978	259.372028
763.573312	262.011189
765.843059	262.171329
768.110251	260.934266
770.376873	262.490210
772.642926	261.579720
774.906427	263.412587
777.171340	263.027273
779.435685	267.695804
781.695499	269.144755
783.956727	270.026573
786.217387	272.739860
788.475500	276.839860
790.731070	279.644056
792.990029	282.691608
795.242490	280.231469
797.500318	276.966434
799.753627	269.958741
802.004395	264.178322
804.256576	263.600000
806.506219	264.718182
808.757273	261.124476
811.003816	259.897902
813.251772	258.199301
815.497192	258.477622
817.744025	255.185315
819.990295	254.013287
822.232062	251.734965
824.477211	251.381818
826.715888	249.838462
828.957948	248.906294
831.195509	251.890909
833.434481	253.964336
835.670928	254.591608
837.908785	254.956643
840.144117	256.181818
842.376925	255.702797
844.611145	251.919580
846.842843	249.151748
849.073986	251.098601
851.304574	250.704895
853.534608	248.488811
855.764087	244.013986
857.989086	241.655944
860.217458	241.976224
862.441352	243.393706
864.666656	244.515385
866.887485	251.752448
869.111687	251.546853
871.331415	254.818881
873.552553	256.134965
875.773141	257.722378
877.991220	258.386713
880.210708	260.494406
882.425730	261.393007
884.640204	261.674825
886.854131	259.537063
889.067510	264.093706
891.280343	263.737762
893.492628	262.383217
895.702412	256.828671
897.911650	259.094406
900.120342	254.009091
902.326536	255.074825
904.534139	257.428671
906.739245	261.241259
908.943807	265.319580
911.145874	268.532867
913.349350	268.379720
915.550332	273.946154
917.750772	272.399301
919.952621	272.403497
922.148079	273.583916
924.346895	272.363636
926.541274	264.846154
928.739010	267.091608
930.932310	264.023077
933.127018	264.113986
935.319241	265.761538
937.510926	266.115385
939.702073	263.457343
941.890737	269.088811
944.078864	272.516783
946.264511	279.102797
948.453511	282.073427
950.638086	281.116783
952.822127	280.318881
955.009518	283.493007
957.188606	284.033566
959.371044	288.910490
961.552947	294.709091
963.732377	294.588112
965.909334	295.560140
968.087699	300.595105
970.267470	301.697902
972.440893	305.580420
974.617663	305.168531
976.790025	304.186713
978.963795	305.578322
981.133161	302.500699
983.305871	301.295105
985.476115	298.957343
987.645831	302.824476
989.815018	303.804895
991.979808	308.668531
994.147940	308.841958
996.311676	314.643357
998.476820	321.881818
1000.639504	328.925175
1002.801663	336.231469
1004.961364	339.653846
1007.120542	337.813287
1009.281126	337.663636
1011.439255	330.890909
1013.596860	327.371329
1015.753942	324.201399
1017.910501	321.683217
1020.062680	312.186014
1022.216266	310.044755
1024.369330	314.598601
1026.519945	323.607692
1028.671966	325.365035
1030.819615	326.221678
1032.970594	331.658042
1035.117204	334.227273
1037.263294	339.110490
1039.408866	342.565734
1041.555842	344.896503
1043.696531	349.113986
1045.840548	345.446154
1047.982126	350.466434
1050.123186	356.069930
1052.265651	356.772028
1054.401837	357.406294
1056.541349	353.786014
1058.676505	354.500699
1060.814986	352.420979
1062.949114	357.278322
1065.082728	352.439860
1067.217746	345.352448
1069.348415	346.857343
1071.480490	345.833566
1073.610134	348.053846
1075.739267	348.378322
1077.867889	345.041259
1079.995999	349.241259
1082.121683	347.204895
1084.246857	351.255944
1086.373434	348.674126
1088.495675	344.623776
1090.619320	337.649650
1092.738630	338.997203
1094.863169	337.641259
1096.981464	339.239161
1099.101162	339.082517
1101.218442	338.416084
1103.335216	335.632168
1105.451483	339.781119
1107.565335	341.856643
1109.680590	344.112587
1111.791523	339.126573
1113.905768	339.274825
1116.015692	337.914685
1118.127019	344.551049
1120.237843	343.211888
1122.344350	347.027972
1124.454166	349.028671
1126.559668	357.122378
1128.666574	359.994406
1130.767264	365.469930
1132.873165	368.480420
1134.974758	368.328671
1137.077754	359.334965
1139.180249	362.621678
1141.276538	356.202098
1143.378033	355.211189
1145.475226	349.840559
1147.571920	351.390909
1149.668117	353.885315
1151.763815	357.910490
1153.859016	356.920280
1155.951820	360.928671
1158.046026	359.812587
1160.134041	358.821678
1162.227254	357.740559
1164.314279	363.262937
1166.404604	362.569231
1168.490640	365.536364
1170.579974	369.313986
1172.663127	377.820280
1174.747683	380.071329
1176.833639	380.030769
1178.915315	382.342657
1180.998391	380.217483
1183.079082	379.084615
1185.159282	380.588112
1187.238990	381.133566
1189.318207	375.765035
1191.395041	372.039860
1193.469495	373.411888
1195.547241	373.490909
1197.620716	376.544755
1199.695593	374.955944
1201.766202	376.810490
1203.838212	380.485315
1205.907846	382.777622
1207.978881	382.971329
1210.049428	381.835664
1212.115715	383.336364
1214.183401	379.716783
1216.248716	379.020280
1218.315431	388.379021
1220.377890	390.627273
1222.443635	398.496503
1224.505125	402.493007
1226.568015	410.369231
1228.628538	415.279021
1230.688578	420.074126
1232.748134	415.020979
1234.805326	419.619580
1236.862035	421.664336
1238.916382	425.642657
1240.974009	430.048951
1243.029274	439.954545
1245.080298	444.956643
1247.132723	451.027972
1249.184667	448.144755
1251.234253	447.478322
1253.283360	446.239161
1255.331988	447.909091
1257.380138	443.424476
1259.427810	450.284615
1261.471251	450.062937
1263.517967	456.723077
1265.562331	464.348252
1267.606217	473.952448
1269.647753	479.811888
1271.686939	482.246154
1273.729397	479.445455
1275.767634	482.669930
1277.807268	478.485315
1279.846428	478.328671
1281.881370	477.018182
1283.917710	481.090909
1285.951705	483.213986
1287.987099	488.763636
1290.018279	498.048252
1292.050858	503.937762
1294.082964	506.471329
1296.112730	515.095804
1298.143894	522.570629
1300.170850	527.696503
1302.199204	526.908392
1304.223354	533.292308
1306.250769	536.507692
1308.273981	539.993007
1310.298591	540.774126
1312.320866	543.469231
1314.344539	549.569930
1316.365879	547.795105
1318.386752	549.101399
1320.407157	556.331469
1322.423369	562.282517
1324.440978	563.525874
1326.456259	567.328671
1328.474799	569.856643
1330.489149	571.995804
1332.501174	574.178322
1334.516457	575.319580
1336.527554	579.223776
1338.540047	581.742657
1340.548358	574.070629
1342.559925	572.074825
1344.565453	570.723776
1346.574235	568.216783
1348.578841	564.895804
1350.586700	564.471329
1352.594097	569.011189
1354.595462	571.547552
1356.598225	572.872727
1358.600528	573.571329
1360.602370	576.873427
1362.603754	574.033566
1364.602823	567.518881
1366.601434	563.880420
1368.599587	561.744056
1370.597282	557.615385
1372.590813	554.444755
1374.585741	554.334266
1376.580212	554.544056
1378.574226	546.655944
1380.565933	542.094406
1382.557184	536.603497
1384.546130	534.385315
1386.536471	527.431469
1388.526357	521.248951
1390.513940	518.746154
1392.501069	518.953147
1394.485896	514.539161
1396.472118	512.686014
1398.456039	515.053147
1400.439508	510.856643
1402.422525	510.939161
1404.403244	512.641259
1406.385357	511.724476
1408.365173	514.302098
1410.344539	512.777622
1412.319766	519.886014
1414.298231	524.398601
1416.274403	525.816783
1418.250125	520.653147
1420.225398	517.630070
1422.198381	517.552448
1424.170915	512.083916
1426.143001	511.224476
1428.114639	507.296503
1430.082150	499.626573
1432.054734	498.966434
1434.019512	495.865734
1435.989363	498.479021
1437.955089	495.799301
1439.922209	496.762937
1441.887045	495.813287
1443.847761	495.962937
1445.813545	499.819580
1447.773374	502.083916
1449.734596	503.746154
1451.697211	504.206993
1453.655711	507.649650
1455.613769	510.015385
1457.571384	507.401399
1459.528558	507.255245
1461.483456	510.597902
1463.439746	515.118881
1465.393762	517.293706
1467.347338	515.555944
1469.298641	520.201399
1471.251336	523.290210
1473.201760	521.086713
1475.151745	522.669930
1477.101291	521.776224
1479.048567	516.492308
1480.993577	510.231469
1482.939979	504.739860
1484.885943	497.307692
1486.831470	496.313986
1488.774731	495.000699
1490.717556	493.662937
1492.658118	495.525874
1494.600072	495.700000
1496.539763	495.301399
1498.479019	499.812587
1500.417841	498.069930
1502.354403	498.880420
1504.292355	497.827273
1506.228050	499.825874
1508.163311	497.746154
1510.096315	500.562937
1512.028887	503.167832
1513.961027	505.408392
1515.892735	509.116783
1517.822190	514.509790
1519.753034	518.067832
1521.683448	524.996503
1523.609789	528.217483
1525.537520	529.284615
1527.463001	532.264336
1529.388053	540.297203
1531.312676	541.293007
1533.236870	547.148951
1535.158817	556.004895
1537.082153	561.568531
1539.003244	573.010490
1540.922090	586.300000
1542.842326	595.948951
1544.760318	614.799301
1546.677884	631.302797
1548.593209	648.104895
1550.509922	673.324476
1552.422581	707.416084
1554.338444	737.793706
1556.252068	772.956643
1558.163453	816.137063
1560.076227	859.405594
1561.984953	918.648252
1563.895067	985.849650
1565.804758	1047.016783
1567.714026	1109.072028
1569.621059	1167.273427
1571.525860	1203.032867
1573.432050	1217.920280
1575.336009	1218.648951
1577.239546	1187.744056
1579.142662	1139.922378
1581.043550	1080.390210
1582.945826	1008.295804
1584.845873	944.481119
1586.747309	881.102797
1588.644710	827.675524
1590.541694	786.068531
1592.438259	754.506993
1594.336211	723.087413
1596.228329	700.483217
1598.123641	694.291608
1600.018534	682.211888
1601.911207	677.353846
1603.803462	670.044056
1605.693498	665.597203
1607.583118	655.525874
1609.472323	645.982517
1611.361112	639.911888
1613.247685	625.372028
1615.135645	612.448252
1617.019588	602.244755
1618.904918	586.719580
1620.789835	575.639161
1622.672538	555.232168
1624.556628	542.580420
1626.436706	524.493007
1628.318171	508.958042
1630.197426	485.800699
1632.078067	472.235664
1633.952905	460.335664
1635.832723	448.819580
1637.708536	440.623077
1639.583940	433.127972
1641.460729	419.481119
1643.331721	414.450350
1645.205896	399.338462
1647.076071	398.448951
1648.949427	390.966434
1650.820580	388.235664
1652.689531	380.937063
1654.559868	381.253846
1656.426211	377.353846
1658.293941	374.204895
1660.159471	368.101399
1662.026386	360.425175
1663.889313	350.577622
1665.753625	346.566434
1667.615742	340.642657
1669.477453	340.934965
1671.340549	342.462238
1673.201451	337.021678
1675.060159	328.565035
1676.918465	329.037762
1678.778154	328.432168
1680.632077	325.841958
1682.489173	316.412587
1684.345865	309.746853
1686.198582	299.779720
1688.054470	291.743357
1689.906384	291.464336
1691.757897	285.825175
1693.609009	282.899301
1695.459720	272.406993
1697.310031	272.986713
1699.158158	279.476923
1701.007668	281.362238
1702.851430	282.270629
1704.700142	284.597902
1706.543107	292.577622
1708.389238	291.493007
1710.231408	289.173427
1712.076742	290.564336
1713.916336	285.362937
1715.757314	284.655245
1717.599676	282.006993
1719.438080	281.905594
1721.277868	282.164336
1723.115481	278.973427
1724.952698	285.259441
1726.787742	284.325175
1728.624169	284.261538
1730.458424	276.026573
1732.292285	272.772028
1734.125751	275.810490
1735.955271	277.353147
1737.787950	280.463636
1739.616685	282.016084
1741.448578	285.625175
1743.276528	289.123776
1745.104086	290.141958
1746.931253	290.224476
1748.758028	280.321678
1750.584411	278.886713
1752.406858	274.582517
1754.232459	275.190909
1756.054126	273.161538
1757.877175	266.731469
1759.698063	268.377622
1761.518561	269.204895
1763.340441	272.107692
1765.156621	272.901399
1766.975953	270.697902
1768.791358	264.898601
1770.609914	263.411888
1772.424544	264.432168
1774.238787	269.936364
1776.052644	270.483916
1777.866114	264.623077
1779.677430	260.334965
1781.490128	260.595105
1783.302439	261.418881
1785.110833	267.744056
1786.920608	270.696503
1788.726467	269.368531
1790.535473	270.390210
1792.340565	268.864336
1794.147037	264.862937
1795.953126	273.669231
1797.755305	266.890909
1799.560627	260.908392
1801.362041	252.164336
1803.164835	249.200000
1804.963724	248.341259
1806.763992	252.565734
1808.563880	251.569231
1810.361625	245.151049
1812.158990	245.953147
1813.955974	237.132867
1815.752578	237.490909
1817.547043	238.929371
1819.342888	233.547552
1821.133077	238.410490
1822.928163	235.720979
1824.717596	241.097203
1826.510167	243.292308
1828.300602	249.546853
1830.088902	251.666434
1831.880338	255.335664
1833.666129	259.834965
1835.453298	255.031469
1837.238337	254.434266
1839.026508	249.582517
1840.810794	246.251049
1842.592951	243.173427
1844.376487	241.137063
1846.157894	242.085315
1847.940679	242.434266
1849.719585	244.832168
1851.499869	252.595105
1853.278028	258.704895
1855.057564	257.276224
1856.834976	253.809790
1858.610264	252.602797
1860.386931	251.609091
1862.161475	248.792308
1863.937396	246.977622
1865.707698	243.650350
1867.481127	238.743357
1869.252436	237.186713
1871.023374	233.885315
1872.795689	235.716783
1874.562392	235.542657
1876.332219	236.379021
1878.098183	236.262238
1879.867271	238.262238
1881.632497	242.811888
1883.397355	245.825175
1885.163589	248.204895
1886.925965	248.274126
1888.687974	250.518881
1890.449616	251.124476
1892.210890	245.388112
1893.971798	247.328671
1895.732338	241.192308
1897.490770	236.630070
1899.248835	229.187413
1901.004793	223.005594
1902.762127	222.580420
1904.519095	218.486713
1906.273958	217.418182
1908.026715	220.539860
1909.779109	222.023776
1911.532879	222.007692
1913.284545	223.104196
1915.034108	225.280420
1916.785048	220.489510
1918.535624	215.138462
1920.282362	211.888811
1922.030475	209.026573
1923.776489	212.802797
1925.523879	215.576224
1927.269170	222.934266
1929.012364	227.826573
1930.756934	232.305594
1932.499407	235.218881
1934.241520	237.946154
1935.983274	237.770280
1937.724667	236.076923
1939.463967	231.271678
1941.202908	227.196503
1942.941490	223.845804
1944.677980	224.159441
1946.414113	225.796853
1948.151620	225.532867
1949.885306	225.166783
1951.620366	224.739161
1953.353337	224.362587
1955.085952	226.246853
1956.818210	229.394755
1958.550112	232.090909
1960.279928	231.333566
1962.007660	229.363636
1963.736766	232.615385
1965.465516	234.397203
1967.192183	233.944755
1968.918496	232.548951
1970.646182	230.830769
1972.368333	229.530769
1974.093584	230.049650
1975.815028	229.137762
1977.539572	229.448951
1979.262037	229.606993
1980.980698	228.563636
1982.702458	227.728671
1984.420416	229.308392
1986.139748	230.174126
1987.855279	231.070629
1989.575632	234.131469
1991.292186	234.884615
1993.004943	238.403497
1994.720796	242.411189
1996.434577	240.972028
1998.148008	242.055245
1999.859367	242.303497
2001.572100	242.740559
2003.281041	240.350350
2004.993076	235.853147
2006.699601	233.059441
2008.409219	228.031469
2010.116769	227.510490
2011.823972	226.651049
2013.529109	227.123776
2015.233899	225.857343
2016.940061	223.639860
2018.642441	224.130070
2020.346193	226.984615
2022.047882	233.857343
2023.749225	237.137762
2025.450223	236.734266
2027.149161	237.695804
2028.849470	240.400699
2030.546003	243.746853
2032.243908	240.821678
2033.939755	240.192308
2035.638687	235.253846
2037.332133	232.353846
2039.026950	229.146853
2040.721424	232.025175
2042.412130	233.216084
2044.105920	233.026573
2045.795943	235.491608
2047.487337	235.367832
2049.176678	242.258042
2050.867389	243.742657
2052.554338	242.383916
2054.240946	240.721678
2055.928925	239.476923
2057.613144	237.074126
2059.298733	234.304895
2060.983983	231.217483
2062.667185	228.534965
2064.351757	225.775524
2066.030865	222.360140
2067.714759	219.583217
2069.393193	225.221678
2071.074704	226.416783
2072.752463	225.433566
2074.429886	226.136364
2076.108678	228.787413
2077.785427	226.449650
2079.460135	228.439161
2081.136212	224.232168
2082.810249	224.349650
2084.483950	218.955944
2086.157316	213.613986
2087.828644	215.048252
2089.499637	216.058741
2091.170296	219.981119
2092.840621	223.389510
2094.510611	227.783916
2096.178566	231.122378
2097.846188	235.737762
2099.511776	242.594406
2101.178732	240.052448
2102.843655	239.995105
2104.508245	236.146154
2106.170804	232.651049
2107.834732	230.351748
2109.496628	224.831469
2111.158193	223.565035
2112.819428	220.656643
2114.478633	219.031469
2116.137509	220.064336
2117.796054	223.229371
2119.454270	224.293706
2121.108763	223.842657
2122.766320	225.076224
2124.423547	226.259441
2126.077054	227.588811
2127.731928	226.841259
2129.383083	227.769930
2131.037301	229.318182
2132.687801	230.747552
2134.339669	233.655944
2135.986128	232.834965
2137.637341	233.314685
2139.284842	233.058042
2140.933709	233.813287
2142.580557	227.993706
2144.227080	227.916084
2145.873277	226.965734
2147.515765	224.720979
2149.161312	227.353147
2150.803152	228.482517
2152.448049	232.403497
2154.089241	235.600699
2155.730109	235.611189
2157.370654	240.557343
2159.009186	244.861538
2160.649084	245.716783
2162.285282	239.734266
2163.922846	240.913287
2165.560088	236.627273
2167.195320	233.073427
2168.830230	229.498601
2170.464819	224.906993
2172.099087	223.763636
2173.729661	218.804895
2175.363286	213.144056
2176.993220	216.106993
2178.624520	216.643357
2180.253814	218.755944
2181.882789	219.255245
2183.511444	222.000000
2185.139780	222.366434
2186.766113	226.369930
2188.392128	228.418881
2190.016142	227.274126
2191.641521	227.747552
2193.264899	225.714685
2194.889642	222.490909
2196.510703	220.934965
2198.131449	216.697902
2199.753558	213.976224
2201.373670	208.172727
2202.991786	205.327972
2204.609586	209.639161
2206.227070	214.037762
2207.844239	220.387413
2209.461093	226.023776
2211.077632	235.299301
2212.692177	240.555944
2214.304731	238.160839
2215.918648	237.137762
2217.530573	235.045455
2219.143863	227.833566
2220.755161	222.468531
2222.364471	218.330070
2223.975143	217.718881
2225.583827	215.839161
2227.192199	215.550350
2228.798583	211.452448
2230.406331	213.628671
2232.012092	214.525874
2233.617543	216.423077
2235.221008	217.731469
2236.825836	220.905594
2238.428680	219.509790
2240.029541	223.362937
2241.631765	220.042657
2243.232007	222.569231
2244.833611	224.173427
2246.431562	217.313986
2248.030876	211.611888
2249.628210	214.800699
2251.225236	214.287413
2252.823623	212.097203
2254.418362	208.974825
2256.011125	213.594406
2257.605249	214.618881
2259.200736	215.481818
2260.792577	218.665734
2262.384112	228.346853
2263.977008	229.620280
2265.564595	227.890909
2267.156879	230.269231
2268.743855	231.059441
2270.333860	228.985315
2271.918560	227.388811
2273.507954	230.805594
2275.092045	231.969231
2276.677498	228.735664
2278.260982	224.534266
2279.847491	219.844056
2281.430367	219.397902
2283.012939	214.066434
2284.595209	210.703497
2286.173848	208.331469
2287.755512	210.571329
2289.333547	207.327972
2290.914605	209.139860
2292.492036	214.474126
2294.067504	217.159441
2295.645994	216.384615
2297.220859	215.969231
2298.795425	214.039161
2300.369689	219.614685
2301.943653	216.111189
2303.517317	214.669231
2305.090680	215.590909
2306.660425	211.411189
2308.229871	204.252448
2309.802336	208.546853
2311.369526	210.813986
2312.939733	221.652448
2314.506327	223.119580
2316.074279	223.367832
2317.640277	224.024476
2319.205977	222.209790
2320.771379	221.150350
2322.334828	222.179720
2323.899636	219.855245
2325.460835	216.634266
2327.025049	221.487413
2328.584002	228.658741
2330.145968	231.394406
2331.705984	235.077622
2333.265704	232.211189
2334.823475	221.573427
2336.380952	217.550350
2337.938133	213.634965
2339.493368	211.197203
2341.048308	208.071329
2342.602955	202.855944
2344.157308	201.369231
2345.711367	195.948252
2347.265133	197.134965
2348.816954	198.491608
2350.366832	198.244056
2351.919718	204.036364
2353.467362	201.731469
2355.018013	207.576923
2356.565074	210.502797
2358.113492	207.690210
2359.661618	212.077622
2361.206157	212.434965
2362.752053	207.742657
2364.296010	205.274825
2365.841325	212.732168
2367.383055	214.850350
2368.926143	217.821678
2370.467294	215.755245
2372.008156	222.039860
2373.548729	221.504895
2375.089013	227.762238
2376.629008	216.861538
2378.165424	223.867832
2379.704842	218.641958
2381.240683	213.448951
2382.777880	212.969930
2384.311503	212.601399
2385.848125	213.568531
2387.382817	214.471329
2388.915578	214.172028
2390.448054	217.479720
2391.978601	216.894406
2393.512146	220.202098
2395.040480	213.004895
2396.570170	220.437762
2398.099575	213.858741
2399.628695	214.377622
2401.157529	214.079720
2402.681159	213.651049
2404.209424	221.498601
2405.732486	224.695105
2407.260183	224.665035
2408.781039	224.586713
2410.306529	233.231469
2411.828459	231.829371
2413.351743	230.324476
2414.873107	235.079021
2416.392551	232.468531
2417.913350	232.210490
2419.432230	229.098601
2420.950828	223.751049
2422.467509	227.174825
2423.985545	230.289510
2425.503299	226.150350
2427.017501	229.658741
2428.531423	228.673427
2430.045066	225.530070
2431.560062	223.237063
2433.071511	221.411189
2434.584313	215.970629
2436.095203	219.299301
2437.605813	215.769930
2439.114512	221.687413
2440.626198	229.096503
2442.134340	233.179720
2443.642203	228.451049
2445.149789	229.193007
2446.653835	235.511189
2448.160865	239.030070
2449.665987	236.555245
2451.170832	229.813986
2452.673770	226.413986
2454.176431	230.058042
2455.678816	221.880420
2457.179296	227.304895
2458.681129	224.757343
2460.181058	221.796503
2461.680711	216.877622
2463.180089	219.524476
2464.677564	228.585315
2466.173137	230.251748
2467.671690	231.601399
2469.166715	232.061538
2470.663092	231.513986
2472.155943	228.074126
2473.650146	222.475524
2475.144077	222.007692
2476.634483	214.509091
2478.127867	214.716783
2479.619353	214.366434
2481.108942	220.118182
2482.598259	222.671329
2484.085680	221.081119
2485.576077	223.157343
2487.062955	224.903497
2488.551186	226.034266
2490.035899	224.486014
2491.520342	221.359441
2493.006137	218.663636
2494.490039	217.325175
2495.975293	220.190210
2497.455413	218.779021
2498.938505	217.826573
2500.419708	215.913287
2501.900640	215.744056
2503.379684	215.593706
2504.858460	221.947552
2506.336967	224.427972
2507.815205	225.747552
2509.293176	222.486713
2510.767641	223.388811
2512.245075	221.144755
2513.719006	213.170629
2515.194288	209.581119
2516.669302	211.518182
2518.140815	215.612587
2519.613679	214.755944
2521.084660	213.042657
2522.556991	221.737762
2524.024208	216.349650
2525.494392	216.490210
2526.962694	215.342657
2528.430732	211.656643
2529.898505	211.574126
2531.366013	207.236364
2532.833257	205.572028
2534.297008	208.725175
2535.762109	208.804895
2537.225333	204.549650
2538.689906	203.998601
2540.150991	203.424476
2541.613425	202.284615
2543.075596	207.203497
2544.534280	212.102098
2545.997537	217.216084
2547.455697	224.743357
2548.915206	223.765734
2550.369622	224.138462
2551.828608	227.030070
2553.285721	226.981818
2554.740964	224.013986
2556.195946	221.656643
2557.649058	222.539161
2559.103519	225.466434
2560.556111	228.068531
2562.008443	223.332867
2563.458907	219.937762
2564.912327	218.360140
2566.360665	212.109790
2567.811959	209.846853
2569.261386	210.346154
2570.707342	205.266434
2572.156252	206.199301
2573.601691	212.023077
2575.048479	221.307692
2576.493403	229.493007
2577.938070	234.658042
2579.384084	229.937063
2580.826631	227.125874
2582.270526	225.649650
2583.710956	224.009091
2585.152734	224.862238
2586.592652	224.024476
2588.033917	218.735664
2589.471720	218.825175
2590.912473	221.334965
2592.348163	226.895105
2593.786803	229.631469
2595.223586	237.776923
2596.658512	236.004895
2598.096387	232.478322
2599.529204	236.900699
2600.963368	235.838462
2602.395677	232.651748
2603.829334	230.350350
2605.261136	227.917483
2606.692686	227.495105
2608.123982	227.179021
2609.553427	231.330769
2610.982619	234.253147
2612.409960	247.314685
2613.838648	248.215385
2615.267083	247.893706
2616.692072	247.824476
2618.118406	243.989510
2619.542892	243.646853
2620.968724	244.678322
2622.391112	244.050350
2623.814846	242.044056
2625.236734	240.216084
2626.658371	242.930769
2628.078164	245.881818
2629.499301	247.745455
2630.920189	252.674825
2632.337639	254.583916
2633.758028	254.948252
2635.174980	264.450350
2636.591684	262.838462
2638.008139	266.995105
2639.424346	265.863636
2640.840304	261.193007
2642.254422	259.113287
2643.668293	259.940559
2645.080324	257.834266
2646.493700	256.533566
2647.903646	268.312587
2649.316528	271.441958
2650.725981	279.241259
2652.135188	288.142657
2653.542559	289.327972
2654.952864	297.669231
2656.361333	297.751748
2657.767967	300.815385
2659.174356	303.081119
2660.578911	305.517483
2661.984810	304.895105
2663.388876	311.925175
2664.792698	321.265734
2666.196275	328.383217
2667.598021	335.704895
2669.001110	338.927273
2670.400781	344.688811
2671.801796	347.211189
2673.199395	348.148951
2674.599923	350.880420
2675.997037	349.410490
2677.395494	349.262937
2678.792123	351.524476
2680.188511	358.173427
2681.584656	359.373427
2682.978975	362.190210
2684.374637	363.083217
2685.766889	367.088811
2687.160485	366.442657
2688.552256	366.781818
2689.945369	365.803497
2691.336659	362.374825
2692.726126	363.313287
2694.115354	363.251748
2695.504341	364.222378
2696.894671	362.630070
2698.280016	359.828671
2699.668286	358.460839
2701.054735	355.188112
2702.440945	354.923776
2703.826916	351.118182
2705.209489	352.544755
2706.593404	346.979720
2707.977080	345.317483
2709.360519	349.672028
2710.740562	346.709091
2712.121947	341.818182
2713.501516	339.158741
2714.882427	339.263636
2716.261523	333.394406
2717.638805	328.579720
2719.017428	330.523077
2720.394237	324.037762
2721.770811	317.945455
2723.147149	307.972028
2724.521675	307.103497
2725.897542	304.759441
2727.270022	296.469930
2728.645419	291.797902
2730.015854	289.960839
2731.387631	284.960839
2732.759174	278.032867
2734.128908	276.653147
2735.499982	275.035664
2736.869249	268.925874
2738.238282	267.034965
2739.605508	263.846154
2740.972502	264.486713
2742.339263	260.437762
2743.705791	257.093007
2745.070515	251.761538
2746.435006	246.245455
2747.799265	239.604196
2749.163293	234.370629
2750.527088	228.555245
2751.887510	224.657343
2753.250843	221.492308
2754.609233	220.462238
2755.970533	222.822378
2757.328462	225.102797
2758.689301	220.982517
2760.048339	222.748951
2761.404009	219.510490
2762.762588	222.449650
2764.117799	219.405594
2765.472781	215.497902
2766.825966	212.242657
2768.182058	208.059441
2769.534786	201.562937
2770.887285	200.196503
2772.239557	201.237762
2773.593166	205.591608
2774.943414	203.853846
2776.291869	210.360839
2777.643228	213.737762
2778.991228	218.923077
2780.340567	217.974126
2781.688113	216.306993
2783.035432	214.460140
2784.382525	206.600000
2785.727827	197.927273
2787.072903	191.776224
2788.417753	190.109091
2789.762377	194.223776
2791.103648	191.652448
2792.446258	199.596503
2793.788643	201.950350
2795.130802	206.939161
2796.469612	205.653147
2797.811322	204.874126
2799.149683	208.406294
2800.489382	204.646853
2801.827295	199.739161
2803.163424	202.446154
2804.499330	205.300699
2805.836572	206.016084
2807.172031	202.293007
2808.507267	208.188811
2809.840721	210.581119
2811.175511	211.844056
2812.506960	211.089510
2813.841305	212.048951
2815.170752	213.922378
2816.501536	210.417483
2817.832098	208.227972
2819.160881	206.291608
2820.491001	205.473427
2821.819341	198.530070
2823.147461	192.221678
2824.473804	193.803497
2825.801482	200.329371
2827.125828	197.100699
2828.451510	200.359441
2829.775416	202.486713
2831.099102	201.948951
2832.424124	206.650350
2833.745817	204.621678
2835.067290	200.558741
2836.388545	201.372727
2837.709581	196.251049
2839.028845	193.303497
2840.349444	193.990909
2841.668271	195.339860
2842.986880	195.218182
2844.303719	195.395804
2845.620340	192.749650
2846.936743	191.732867
2848.251378	194.421678
2849.567347	188.927273
2850.879997	187.607692
2852.193981	180.868531
2853.507749	182.990909
2854.821300	183.038462
2856.133084	184.149650
2857.443103	184.224476
2858.754456	188.693706
2860.062493	186.684615
2861.371866	185.726573
2862.681023	187.265035
2863.989965	192.237063
2865.297144	195.302797
2866.602559	199.343357
2867.909309	200.044056
2869.214297	205.723776
2870.519070	211.734965
2871.822083	214.554545
2873.127976	211.764336
2874.429015	207.600699
2875.731387	198.820979
2877.032000	192.988811
2878.333947	184.640559
2879.635681	183.342657
2880.934111	179.613287
2882.233874	176.623776
2883.531880	177.307692
2884.829674	181.072028
2886.125711	188.688112
2887.423082	191.783217
2888.718697	185.795105
2890.014102	183.551748
2891.309295	181.541958
2892.601190	181.168531
2893.895962	179.653147
2895.187438	181.374126
2896.480246	181.857343
2897.772844	181.245455
2899.062147	182.755245
2900.352783	185.653846
2901.641669	185.504895
2902.931886	185.760140
2904.218812	180.188112
2905.507070	181.208392
2906.793579	184.851049
2908.079879	183.902797
2909.365971	187.761538
2910.650315	188.637063
2911.937531	189.958042
2913.219920	188.382517
2914.503641	185.794406
2915.785615	185.604895
2917.067383	185.509091
2918.347405	187.369231
2919.630297	180.237063
2920.911444	178.786713
2922.189309	180.417483
2923.470043	180.792308
2924.747496	180.277622
2926.024744	184.009790
2927.300249	190.095804
2928.578622	190.560839
2929.852181	191.529371
2931.128606	199.465734
2932.403291	199.234965
2933.676236	197.866434
2934.950511	186.970629
2936.223047	188.154545
2937.495379	186.700000
2938.764438	187.193706
2940.036362	185.298601
2941.306548	190.581119
2942.576530	192.067832
2943.846309	188.402797
2945.114351	186.346154
2946.380658	186.705594
2947.646762	179.696503
2948.914197	174.809790
2950.179896	172.348951
2951.445393	179.407692
2952.710689	180.467133
2953.972719	183.524476
2955.236079	183.662937
2956.499238	184.211189
2957.760664	182.277622
2959.023420	184.219580
2960.284445	177.125874
2961.543739	172.442657
2962.802832	168.885315
2964.061725	172.356643
2965.320418	180.565035
2966.578911	184.611189
2967.835675	183.507692
2969.092240	183.786713
2970.347076	177.419580
2971.603242	174.514685
2972.856152	172.391608
2974.110392	171.951748
2975.364433	164.602797
2976.616748	167.304895
2977.868865	169.190210
2979.119257	174.453147
2980.372504	174.569231
2981.620974	178.653147
2982.872298	177.915385
2984.120374	178.311189
2985.368252	171.988112
2986.615933	168.971329
2987.863418	170.682517
2989.109181	172.120979
2990.354747	172.688112
2991.601642	175.720979
2992.845291	167.364336
2994.090269	165.911189
2995.332004	163.100699
2996.576590	167.229371
2997.819457	164.451748
2999.059082	165.508392
3000.301559	164.540559
3001.540795	165.723077
3002.781359	169.041958
3004.020206	172.757343
3005.258859	171.595105
3006.495796	173.886014
3007.734061	166.079720
3008.970610	168.304196
3010.206966	164.438462
3011.443128	164.306294
3012.677576	164.038462
3013.911831	162.042657
3015.145893	157.750350
3016.378243	153.581119
3017.608881	156.452448
3018.842365	158.995804
3020.074138	157.987413
3021.304199	165.086713
3022.534069	165.873427
3023.762229	168.544056
3024.991716	167.463636
3026.219493	167.490909
3027.447079	165.848252
3028.675991	163.009091
3029.900161	162.197902
3031.127174	164.102797
3032.350964	166.453846
3033.576079	165.195804
3034.799488	166.346154
3036.022708	172.411888
3037.244222	170.344056
3038.468577	173.055245
3039.688197	174.005594
3040.909143	169.627273
3042.129899	167.969930
3043.348952	168.472028
3044.569331	166.439161
3045.786493	165.372028
3047.004980	162.915385
3048.221766	163.904895
3049.438363	160.628671
3050.654773	158.755944
3051.867969	157.189510
3053.084003	161.044755
3054.296825	156.913986
3055.512484	151.409091
3056.723420	153.136364
3057.935682	150.616084
3059.147756	150.503497
3060.359644	153.096503
3061.569834	155.815385
3062.779839	155.853497
3063.989657	153.116084
3065.197779	154.466084
3066.405715	157.555944
3067.611957	157.029021
3068.819523	154.448951
3070.025394	154.108741
3071.231080	152.807692
3072.436582	150.550699
3073.640390	151.479720
3074.845522	152.362587
3076.048961	151.266434
3077.250708	152.435315
3078.452272	156.435664
3079.653652	160.660140
3080.854848	162.800000
3082.054354	162.983916
3083.253676	161.548951
3084.454322	162.592308
3085.653279	159.975524
3086.849040	164.857343
3088.047631	163.913986
3089.243028	164.504895
3090.439749	158.208392
3091.633277	158.819580
3092.829633	160.910490
3094.024302	158.136364
3095.215781	154.372727
3096.411591	151.844755
3097.602708	147.330769
3098.795148	147.244056
3099.984399	147.506294
3101.176477	153.279021
3102.366871	151.298601
3103.554078	146.246154
3104.742609	137.310490
3105.932462	137.538462
3107.119130	135.196503
3108.305619	132.169930
3109.491928	133.948951
3110.679560	133.826573
3111.864009	136.507692
3113.046778	143.250350
3114.232371	143.137063
3115.416283	144.941259
3116.598517	144.762238
3117.780573	142.358042
3118.962450	144.565035
3120.144149	147.443357
3121.324171	146.344755
3122.502516	146.430070
3123.683681	144.597203
3124.861671	145.676224
3126.039484	151.033566
3127.217120	152.327972
3128.393081	143.661538
3129.568866	140.683217
3130.745971	136.330769
3131.921403	134.061538
3133.095161	136.330769
3134.267246	133.574825
3135.440652	131.410490
3136.613883	129.358042
3137.785442	128.214685
3138.958321	135.479720
3140.128033	142.949650
3141.299066	143.439860
3142.468428	145.730070
3143.636121	148.748951
3144.806629	145.528671
3145.972478	149.109790
3147.142637	150.529371
3148.308138	148.634965
3149.473466	148.148252
3150.638620	146.947552
3151.803601	145.258042
3152.969901	146.013986
3154.131548	144.197902
3155.294516	144.848951
3156.457311	148.177622
3157.619932	147.267832
3158.780889	146.318881
3159.941674	149.362238
3161.102286	147.113986
3162.261234	143.293706
3163.420010	142.474825
3164.578615	142.672727
3165.737048	140.886713
3166.895309	139.628671
3168.051909	139.390210
3169.206846	142.927273
3170.363104	141.606294
3171.517700	138.239161
3172.672126	136.093706
3173.824891	131.990909
3174.977487	127.694406
3176.129913	124.297203
3177.282168	123.543357
3178.434254	127.214685
3179.583193	130.179021
3180.734939	131.878322
3181.885028	133.833566
3183.033459	137.301399
3184.181722	136.408392
3185.329816	134.169930
3186.477741	134.798601
3187.624010	136.411888
3188.770111	136.320979
3189.914558	136.934266
3191.058836	133.376224
3192.202947	133.986713
3193.348376	132.583217
3194.490666	130.645455
3195.632788	128.502098
3196.774744	131.486014
3197.916532	130.145455
3199.058153	128.726573
3200.196638	131.183916
3201.336442	130.723077
3202.477562	133.177622
3203.615548	132.231469
3204.751885	128.547552
3205.888056	125.572028
3207.025545	126.232867
3208.161385	130.615385
3209.298542	134.419580
3210.431086	139.511888
3211.567911	142.389510
3212.700125	142.686713
3213.833657	141.600000
3214.967023	141.395105
3216.097262	142.074825
3217.230300	137.479021
3218.360210	135.770629
3219.491438	131.204196
3220.619540	131.631469
3221.750440	133.092308
3222.879695	134.663636
3224.007307	135.872727
3225.131796	137.251748
3226.260561	140.372727
3227.386204	137.025874
3228.511684	136.232867
3229.635523	134.941958
3230.762157	133.196503
3231.884192	132.386014
3233.007544	130.788811
3234.130734	128.822378
3235.253762	125.034965
3236.375150	123.835664
3237.496377	124.709790
3238.615965	128.362238
3239.735392	130.880420
3240.853182	129.920979
3241.973763	131.587413
3243.091231	132.765734
3244.208538	135.296503
3245.325684	133.669930
3246.441195	132.750350
3247.558021	128.252448
3248.671736	121.819580
3249.788242	119.593007
3250.903112	118.486014
3252.014874	118.683217
3253.126477	116.440559
3254.239395	115.581818
3255.352153	119.188112
3256.461805	122.644056
3257.572772	128.893706
3258.683580	131.548951
3259.792756	131.941958
3260.900301	131.968531
3262.009161	131.044755
3263.117862	128.141259
3264.223461	122.986713
3265.330375	120.661538
3266.435659	119.683217
3267.542257	116.577622
3268.645755	117.851748
3269.750567	118.932867
3270.855222	120.816084
3271.956779	121.983916
3273.058179	120.404895
3274.160893	126.637063
3275.263450	127.593706
3276.362912	128.157343
3277.465156	125.623077
3278.564306	124.578322
3279.661830	122.656643
3280.759200	119.041259
3281.859351	116.913986
3282.956409	111.299301
3284.053313	108.445455
3285.150061	106.501399
3286.242250	107.639161
3287.338689	108.274825
3288.433505	108.880420
3289.528166	115.858741
3290.621206	116.195804
3291.714092	114.948951
3292.805357	117.279021
3293.897935	116.758741
3294.988893	113.868531
3296.078231	110.767133
3297.167416	112.444755
3298.257913	116.029371
3299.345326	110.551748
3300.432587	102.166434
3301.521160	103.375524
3302.609580	103.704895
3303.693453	98.500000
3304.781568	99.995804
3305.866602	104.898601
3306.950020	109.519580
3308.034750	111.733566
3309.117864	116.669930
3310.202290	123.070629
3311.283638	126.781818
3312.366298	123.851049
3313.447344	122.026573
3314.528239	121.696503
3315.607521	118.483916
3316.686652	113.767832
3317.767095	117.779720
3318.844463	117.963636
3319.923143	118.809790
3321.000211	116.990210
3322.077129	115.928671
3323.152437	114.669231
3324.227595	112.942657
3325.304064	111.864336
3326.377462	113.493007
3327.450712	113.379021
3328.525273	110.326573
3329.598224	110.344056
3330.669568	111.549650
3331.742222	110.735664
3332.811809	110.962937
3333.882707	114.453846
3334.951998	115.453846
3336.022600	112.840559
3337.091595	112.746154
3338.158985	114.748951
3339.224768	120.555944
3340.294778	120.621678
3341.361725	120.151748
3342.425610	120.164336
3343.492263	118.895105
3344.557312	119.288112
3345.620757	118.669930
3346.684055	121.020979
3347.747208	118.606993
3348.810214	115.093007
3349.873073	117.846154
3350.934331	116.402098
3351.992532	110.641259
3353.054954	110.781818
3354.114319	109.355245
3355.173540	103.172028
3356.234069	101.913986
3357.290089	103.316084
3358.348874	103.002098
3359.403151	105.388811
3360.460192	105.265734
3361.515634	106.123776
3362.572385	110.104196
3363.627539	105.796503
3364.681095	104.468531
3365.733054	110.086014
3366.787776	112.950350
3367.839448	113.745455
3368.890976	111.490210
3369.943814	111.893007
3370.993604	110.689510
3372.044703	110.156643
3373.092755	108.676923
3374.143568	109.867133
3375.191335	111.795804
3376.238960	109.996503
3377.286443	107.234266
3378.332332	109.050350
3379.379531	111.937762
3380.423686	111.213287
3381.470600	106.922378
3382.515923	106.169231
3383.558204	104.005594
3384.600344	95.109790
3385.643793	95.155944
3386.687100	96.441958
3387.728817	95.396503
3388.770394	96.618881
3389.811829	96.770629
3390.851676	100.618881
3391.889934	104.619580
3392.929500	110.414685
3393.968926	110.910490
3395.006764	110.285315
3396.043015	109.590909
3397.079126	104.027273
3398.116545	106.239161
3399.150931	102.202797
3400.186625	99.023077
3401.222179	99.446853
3402.254701	100.626573
3403.289977	99.148951
3404.322222	101.813287
3405.354329	107.121678
3406.384853	106.975524
3407.416683	106.757343
3408.448375	107.922378
3409.477039	106.409091
3410.505566	104.264336
3411.535399	104.969930
3412.565095	103.388811
3413.591765	106.737762
3414.619741	110.660839
3415.644693	107.177622
3416.672396	105.681818
3417.697074	110.361538
3418.723059	108.503497
3419.747465	104.595804
3420.771733	102.653147
3421.794424	104.436364
3422.816978	106.090909
3423.840838	107.986014
3424.861678	107.857343
3425.882382	108.734266
3426.904392	108.865435
3427.923384	107.931968
3428.942241	105.614985
3429.962404	101.595604
3430.979549	95.554945
