-118.277064	1.189560
-115.607463	1.201099
-112.940798	1.276224
-110.274885	1.362837
-107.611905	1.408841
-104.947494	1.362138
-102.286014	1.170629
-99.623105	0.907692
-96.965303	-2.659441
-94.306070	-0.524476
-91.647586	-3.199301
-88.992027	-3.304895
-86.335039	-3.473427
-83.683148	-0.981818
-81.029828	-2.919580
-78.379427	-0.349650
-75.727598	-3.065035
-73.080859	-0.489510
-70.432690	1.251748
-67.785265	-0.490909
-65.140753	-2.747552
-62.494812	-1.720979
-59.853954	-5.678322
-57.211665	-6.689510
-54.572286	-6.997203
-51.931478	-6.078322
-49.291409	-8.418881
-46.656414	-7.336364
-44.019989	-8.790210
-41.386468	-6.771329
-38.751517	-5.983217
-36.121633	-6.201399
-33.488155	-3.747552
-30.859740	-2.024476
-28.232059	-1.986713
-25.602950	-5.772727
-22.978897	-28.319580
-20.351254	-90.831469
-17.728666	-198.726573
-15.106808	-185.628671
-12.485681	312.534266
-9.865285	1041.132168
-7.247776	1640.618881
-4.628839	2048.053846
-2.012788	2261.537063
0.602536	2279.925175
3.217131	2108.569930
5.828845	1748.267133
8.441986	1214.879021
11.050095	569.418881
13.661784	-46.206993
16.268443	-354.457343
18.876530	-202.051049
21.483893	-29.408392
24.086231	-3.316084
26.692147	-1.644056
29.293042	-3.484615
31.895364	-3.928671
34.492668	-4.254545
37.093548	-3.794406
39.689414	-2.854545
42.286707	-1.100699
44.883281	-3.334965
47.474846	-3.655944
50.067839	-5.032168
52.657972	-5.228671
55.249531	-4.167133
57.838231	0.843357
60.428359	1.299301
63.013487	2.257343
65.600043	0.380420
68.185884	1.097902
70.768872	-1.248951
73.353287	-0.946154
75.930572	-0.812587
78.511424	-0.394406
81.089427	-0.998601
83.666720	1.737063
86.245440	1.562937
88.819177	0.953846
91.394341	-0.983916
93.966662	-5.912587
96.538276	-9.588811
99.107049	-9.397203
101.677249	-11.077622
104.244610	-8.672727
106.813398	-4.419580
109.379349	-1.481119
111.942464	1.028671
114.509137	3.380420
117.066587	3.197902
119.629723	5.030070
122.187900	9.902098
124.749631	14.205594
127.306405	27.587413
129.864605	46.308392
132.417853	68.216783
134.970402	97.784615
137.526503	132.439860
140.077655	165.341259
142.628110	198.976923
145.177867	229.946853
147.724805	256.590909
150.271048	272.167832
152.818716	280.625175
155.365688	284.768531
157.907724	285.910490
160.449068	284.654545
162.989718	283.026573
165.531793	284.420280
168.071058	283.588112
170.607513	281.194406
173.143278	284.849650
175.680468	286.022378
178.216967	282.711888
180.750660	277.441259
183.281549	272.416084
185.811750	272.539161
188.343376	269.355245
190.872202	268.226573
193.398228	268.615385
195.923568	269.993007
198.450333	270.320979
200.974302	271.793706
203.497585	275.016084
206.020184	275.467832
208.539990	272.511888
211.059113	272.493706
213.577553	268.176224
216.097418	269.767832
218.610280	270.445455
221.126674	267.588112
223.642387	266.249650
226.153209	270.358042
228.665456	273.629371
231.174920	276.711189
233.683706	278.391608
236.191814	281.518881
238.701346	280.845455
241.205997	281.504196
243.709972	281.203497
246.215371	284.016084
248.715895	285.097203
251.219942	283.713287
253.717019	286.393706
256.217618	289.113986
258.715446	290.779720
261.212601	291.697902
263.709084	292.101399
266.200703	293.474825
268.695841	293.410490
271.188214	293.201399
273.679916	292.298601
276.168855	292.460839
278.659217	294.157343
281.146818	296.730769
283.631659	301.199301
286.120014	303.569231
288.601431	304.453147
291.086361	304.345455
293.566445	304.009790
296.050042	304.497203
298.528797	304.548951
301.008974	303.121678
303.486400	304.009790
305.963162	304.273427
308.439260	311.391608
310.912610	323.541259
313.385299	341.950350
315.857326	355.372727
318.328691	362.620979
320.797313	366.695105
323.265275	365.418881
325.734660	361.905594
328.199222	353.695105
330.667287	343.855944
333.130533	336.295804
335.593122	326.882517
338.055053	323.753846
340.516328	326.825874
342.974869	329.176923
345.434832	328.909790
347.892063	326.598601
350.348639	325.859441
352.804560	322.341958
355.257753	322.015385
357.712368	321.743357
360.162181	322.330070
362.615490	323.993007
365.064000	322.359441
367.511860	318.930070
369.961141	319.859441
372.405629	317.083916
374.851539	318.866434
377.296800	317.724476
379.739342	320.494406
382.181236	318.172028
384.622482	324.375524
387.061013	325.710490
389.500966	327.360839
391.938205	328.078322
394.372732	328.195804
396.810747	327.266434
399.243985	328.204895
401.678645	324.634266
404.108532	327.804196
406.541904	324.504895
408.970506	320.061538
411.398466	319.146853
413.827847	323.683217
416.252464	322.584615
418.678501	326.369930
421.103899	328.704895
423.528656	329.807692
425.948654	330.016783
428.370074	328.820280
430.788797	326.497203
433.208941	331.518182
435.626390	330.016084
438.045259	331.179720
440.461435	337.825874
442.872864	337.089510
445.287769	337.465035
447.699984	337.332867
450.111565	334.974126
452.522513	329.860839
454.930773	324.318182
457.338402	316.656643
459.745398	311.306993
462.151762	309.964336
464.555445	306.400000
466.958497	305.825874
469.360919	307.897902
471.762711	308.207692
474.161825	311.488811
476.562359	313.002098
478.962264	314.880420
481.357447	315.604895
483.756095	315.264336
486.150024	316.455245
488.543327	314.630769
490.936004	312.809790
493.328056	308.594406
495.721527	301.006294
498.110285	297.317483
500.496377	291.093007
502.883889	282.410490
505.270777	272.988811
507.655002	264.614685
510.040646	258.861538
512.423627	253.302098
514.803948	252.896503
517.185688	249.204895
519.564770	249.844755
521.945269	248.081818
524.323111	242.532168
526.698298	240.773427
529.072867	237.599301
531.448855	234.906294
533.822189	231.240559
536.196942	229.768531
538.567008	228.478322
540.936459	224.435664
543.307329	225.951049
545.673517	224.968531
548.041124	227.091608
550.406085	227.338462
552.770434	225.416084
555.134169	224.402797
557.499322	225.366434
559.859803	225.634965
562.221701	226.330769
564.580960	224.165035
566.937580	224.888811
569.297646	222.628671
571.651020	224.100699
574.007839	222.532168
576.362023	223.647552
578.715598	221.593007
581.068565	218.293706
583.418901	218.470629
585.770654	220.774825
588.115729	221.177622
590.466269	221.927273
592.810136	219.406294
595.159464	219.340559
597.504143	215.879021
599.846198	214.572028
602.189670	212.794406
604.530519	211.556643
606.870765	208.639860
609.208391	206.955245
611.549452	207.788112
613.885876	209.332168
616.223716	211.704895
618.558938	211.631469
620.891545	210.139860
623.225569	209.002797
625.556978	208.865734
627.887789	209.100000
630.218002	207.206993
632.547618	207.509790
634.872610	204.962937
637.203044	205.398601
639.528856	206.427972
641.852062	205.045455
644.176684	205.425874
646.498700	207.104196
648.820122	209.460839
651.138941	209.144755
653.459176	207.891608
655.778818	204.915385
658.095859	199.488811
660.412309	198.467133
662.726160	197.762937
665.041426	199.339860
667.354096	201.019580
669.668181	199.949650
671.977667	203.618881
674.288567	208.802797
676.596875	211.582517
678.904595	211.181119
681.213730	208.674126
683.518272	206.080420
685.822228	200.033566
688.125597	200.036364
690.430381	200.691608
692.730579	200.444755
695.032192	200.175524
697.333219	197.445455
699.629665	196.991608
701.927525	199.616783
704.224803	200.534266
706.521496	201.413986
708.813614	201.889510
711.109143	200.802098
713.400099	198.841958
715.692469	200.481818
717.982263	199.233566
720.271478	199.943357
722.560113	196.820280
724.846175	195.488112
727.133651	196.284615
729.418557	199.048951
731.702884	200.324476
733.984644	203.131469
736.267817	203.902797
738.550413	202.058741
740.828453	201.092308
743.107907	202.072727
745.386786	201.402098
747.665090	203.675524
749.938843	201.187413
752.214011	201.139161
754.488605	200.362937
756.760640	197.667133
759.034088	198.481119
761.304978	198.904196
763.573312	199.198601
765.843059	201.665035
768.110251	203.390909
770.376873	210.374126
772.642926	214.917483
774.906427	217.448951
777.171340	216.682517
779.435685	216.421678
781.695499	215.296503
783.956727	218.051049
786.217387	216.929371
788.475500	215.580420
790.731070	215.717483
792.990029	215.733566
795.242490	214.800699
797.500318	217.100699
799.753627	216.043357
802.004395	210.479720
804.256576	205.816084
806.506219	205.944056
808.757273	205.098601
811.003816	207.395804
813.251772	200.439161
815.497192	199.958741
817.744025	200.837762
819.990295	200.834266
822.232062	199.522378
824.477211	201.530769
826.715888	199.946154
828.957948	197.004895
831.195509	198.696503
833.434481	202.634266
835.670928	205.679720
837.908785	207.851748
840.144117	205.849650
842.376925	206.972028
844.611145	203.687413
846.842843	201.834965
849.073986	198.992308
851.304574	198.655245
853.534608	195.284615
855.764087	194.170629
857.989086	194.059441
860.217458	189.920979
862.441352	189.744056
864.666656	194.110490
866.887485	195.791608
869.111687	198.663636
871.331415	197.767832
873.552553	200.586713
875.773141	204.751049
877.991220	208.253147
880.210708	211.470629
882.425730	211.057343
884.640204	205.912587
886.854131	201.250350
889.067510	196.966434
891.280343	204.469930
893.492628	200.948951
895.702412	199.906993
897.911650	199.332168
900.120342	199.706294
902.326536	202.411888
904.534139	204.811888
906.739245	203.404196
908.943807	198.881119
911.145874	197.486713
913.349350	197.669231
915.550332	197.483217
917.750772	202.701399
919.952621	202.065734
922.148079	205.211888
924.346895	207.081818
926.541274	207.448951
928.739010	211.330070
930.932310	214.539860
933.127018	213.027273
935.319241	215.483217
937.510926	215.780420
939.702073	214.860839
941.890737	214.902797
944.078864	211.697203
946.264511	217.932168
948.453511	218.402098
950.638086	213.430769
952.822127	213.612587
955.009518	217.006993
957.188606	219.274825
959.371044	224.127972
961.552947	230.365734
963.732377	227.670629
965.909334	228.362937
968.087699	229.155944
970.267470	231.081119
972.440893	235.637762
974.617663	239.310490
976.790025	236.437063
978.963795	239.860839
981.133161	240.407692
983.305871	237.248252
985.476115	238.489510
987.645831	241.004196
989.815018	240.286713
991.979808	236.511189
994.147940	237.560839
996.311676	236.707692
998.476820	242.325175
1000.639504	252.978322
1002.801663	254.876224
1004.961364	259.614685
1007.120542	264.469231
1009.281126	267.711189
1011.439255	269.913287
1013.596860	276.493706
1015.753942	279.068531
1017.910501	276.925175
1020.062680	276.265035
1022.216266	274.609091
1024.369330	276.495804
1026.519945	280.666434
1028.671966	277.632867
1030.819615	271.605594
1032.970594	275.858042
1035.117204	279.887413
1037.263294	278.108392
1039.408866	281.386713
1041.555842	281.836364
1043.696531	285.706294
1045.840548	289.418182
1047.982126	293.943357
1050.123186	299.688811
1052.265651	302.611189
1054.401837	300.000000
1056.541349	291.991608
1058.676505	292.948951
1060.814986	299.596503
1062.949114	292.506993
1065.082728	283.155944
1067.217746	276.769930
1069.348415	276.109790
1071.480490	278.054545
1073.610134	278.131469
1075.739267	286.683916
1077.867889	291.421678
1079.995999	296.822378
1082.121683	296.191608
1084.246857	294.427273
1086.373434	299.292308
1088.495675	289.781119
1090.619320	276.962937
1092.738630	269.308392
1094.863169	264.704196
1096.981464	263.274825
1099.101162	263.867133
1101.218442	271.880420
1103.335216	274.249650
1105.451483	279.458042
1107.565335	281.439860
1109.680590	279.442657
1111.791523	276.723077
1113.905768	273.081119
1116.015692	268.391608
1118.127019	266.304196
1120.237843	268.004895
1122.344350	269.293007
1124.454166	272.449650
1126.559668	278.051748
1128.666574	277.460140
1130.767264	283.809790
1132.873165	288.110490
1134.974758	286.021678
1137.077754	284.714685
1139.180249	288.269231
1141.276538	289.321678
1143.378033	283.100699
1145.475226	278.023077
1147.571920	274.745455
1149.668117	274.411189
1151.763815	266.937762
1153.859016	263.181818
1155.951820	264.916084
1158.046026	267.272028
1160.134041	265.203497
1162.227254	275.418881
1164.314279	283.378322
1166.404604	281.462238
1168.490640	277.564336
1170.579974	275.588811
1172.663127	277.108392
1174.747683	275.845455
1176.833639	269.704196
1178.915315	277.372028
1180.998391	281.146154
1183.079082	283.420979
1185.159282	287.126573
1187.238990	296.066434
1189.318207	298.159441
1191.395041	293.727273
1193.469495	294.806993
1195.547241	293.008392
1197.620716	290.142657
1199.695593	287.742657
1201.766202	285.965035
1203.838212	288.651748
1205.907846	288.618881
1207.978881	289.771329
1210.049428	288.174825
1212.115715	292.418182
1214.183401	290.608392
1216.248716	290.132168
1218.315431	290.346853
1220.377890	289.307692
1222.443635	288.490210
1224.505125	289.630070
1226.568015	289.281119
1228.628538	292.146154
1230.688578	297.087413
1232.748134	298.762238
1234.805326	301.833566
1236.862035	309.193706
1238.916382	313.424476
1240.974009	317.769231
1243.029274	319.282517
1245.080298	319.850350
1247.132723	320.758042
1249.184667	321.223776
1251.234253	320.260839
1253.283360	322.611888
1255.331988	326.440559
1257.380138	326.410490
1259.427810	331.402098
1261.471251	332.690210
1263.517967	336.844755
1265.562331	336.699301
1267.606217	336.345455
1269.647753	338.775524
1271.686939	342.730070
1273.729397	345.885315
1275.767634	346.134266
1277.807268	348.774825
1279.846428	352.789510
1281.881370	354.444755
1283.917710	359.239860
1285.951705	359.886713
1287.987099	359.511189
1290.018279	360.242657
1292.050858	363.702098
1294.082964	368.758042
1296.112730	374.768531
1298.143894	380.651049
1300.170850	381.969231
1302.199204	387.197203
1304.223354	394.489510
1306.250769	402.095804
1308.273981	410.755944
1310.298591	412.906993
1312.320866	415.500000
1314.344539	419.967133
1316.365879	419.827972
1318.386752	421.265734
1320.407157	423.195105
1322.423369	422.728671
1324.440978	421.610490
1326.456259	428.253147
1328.474799	429.839860
1330.489149	435.291608
1332.501174	441.403497
1334.516457	449.069930
1336.527554	459.527273
1338.540047	462.511189
1340.548358	464.303497
1342.559925	465.844056
1344.565453	460.809790
1346.574235	456.802098
1348.578841	456.470629
1350.586700	459.143357
1352.594097	452.451049
1354.595462	452.164336
1356.598225	453.867133
1358.600528	461.131469
1360.602370	457.389510
1362.603754	451.504196
1364.602823	446.984615
1366.601434	438.053147
1368.599587	429.813287
1370.597282	422.995105
1372.590813	418.711189
1374.585741	410.974825
1376.580212	404.104196
1378.574226	400.319580
1380.565933	401.744755
1382.557184	403.983217
1384.546130	398.275524
1386.536471	401.374126
1388.526357	401.979720
1390.513940	402.853846
1392.501069	401.606993
1394.485896	397.567133
1396.472118	395.987413
1398.456039	386.907692
1400.439508	381.291608
1402.422525	373.551748
1404.403244	370.384615
1406.385357	366.038462
1408.365173	364.760839
1410.344539	367.606294
1412.319766	369.711888
1414.298231	371.255245
1416.274403	369.127972
1418.250125	370.774126
1420.225398	373.373427
1422.198381	367.532867
1424.170915	363.463636
1426.143001	359.786713
1428.114639	355.779720
1430.082150	353.025175
1432.054734	350.544755
1434.019512	351.014685
1435.989363	348.420280
1437.955089	346.457343
1439.922209	343.192308
1441.887045	345.362238
1443.847761	348.911888
1445.813545	349.346154
1447.773374	351.373427
1449.734596	355.541259
1451.697211	362.161538
1453.655711	366.330769
1455.613769	365.038462
1457.571384	370.386713
1459.528558	367.155245
1461.483456	364.681818
1463.439746	362.146154
1465.393762	361.062238
1467.347338	360.588811
1469.298641	357.168531
1471.251336	353.460839
1473.201760	355.115385
1475.151745	357.015385
1477.101291	354.973427
1479.048567	355.234266
1480.993577	353.897203
1482.939979	349.293706
1484.885943	346.860839
1486.831470	348.888112
1488.774731	348.893706
1490.717556	347.688112
1492.658118	346.188811
1494.600072	344.766434
1496.539763	348.350350
1498.479019	351.010490
1500.417841	353.197203
1502.354403	353.431469
1504.292355	354.318881
1506.228050	355.220979
1508.163311	357.062238
1510.096315	363.534965
1512.028887	364.913287
1513.961027	365.710490
1515.892735	369.772727
1517.822190	373.372727
1519.753034	378.154545
1521.683448	383.489510
1523.609789	389.091608
1525.537520	392.055944
1527.463001	398.521678
1529.388053	399.151748
1531.312676	405.039161
1533.236870	408.557343
1535.158817	407.763636
1537.082153	415.206993
1539.003244	419.614685
1540.922090	429.637063
1542.842326	442.924476
1544.760318	456.044755
1546.677884	474.395105
1548.593209	490.974825
1550.509922	513.826573
1552.422581	533.950350
1554.338444	560.830769
1556.252068	589.434266
1558.163453	627.679720
1560.076227	683.399301
1561.984953	753.720979
1563.895067	843.375524
1565.804758	950.489510
1567.714026	1052.134965
1569.621059	1147.149650
1571.525860	1216.025175
1573.432050	1254.359441
1575.336009	1254.943357
1577.239546	1220.049650
1579.142662	1151.572028
1581.043550	1057.398601
1582.945826	960.624476
1584.845873	870.830769
1586.747309	788.508392
1588.644710	724.450350
1590.541694	674.071329
1592.438259	638.706294
1594.336211	609.162238
1596.228329	586.794406
1598.123641	570.134965
1600.018534	551.207692
1601.911207	535.782517
1603.803462	521.518881
1605.693498	519.765734
1607.583118	517.249650
1609.472323	506.639161
1611.361112	495.937762
1613.247685	494.069930
1615.135645	487.851049
1617.019588	482.392308
1618.904918	471.280420
1620.789835	457.820979
1622.672538	439.186713
1624.556628	421.861538
1626.436706	407.897902
1628.318171	401.547552
1630.197426	392.575524
1632.078067	374.029371
1633.952905	360.420280
1635.832723	354.258741
1637.708536	345.625175
1639.583940	344.272028
1641.460729	332.376923
1643.331721	324.981119
1645.205896	315.109790
1647.076071	305.669930
1648.949427	302.735664
1650.820580	298.917483
1652.689531	298.772028
1654.559868	290.048252
1656.426211	282.618881
1658.293941	278.152448
1660.159471	273.090210
1662.026386	271.206294
1663.889313	265.053147
1665.753625	265.207692
1667.615742	261.276923
1669.477453	265.103497
1671.340549	266.402098
1673.201451	267.023776
1675.060159	270.138462
1676.918465	269.153147
1678.778154	265.860140
1680.632077	260.921678
1682.489173	261.590909
1684.345865	256.976923
1686.198582	258.131469
1688.054470	257.343357
1689.906384	257.755944
1691.757897	264.537762
1693.609009	255.100699
1695.459720	250.769930
1697.310031	246.663636
1699.158158	244.600000
1701.007668	238.862937
1702.851430	240.127273
1704.700142	240.258741
1706.543107	235.644755
1708.389238	236.534965
1710.231408	232.107692
1712.076742	227.619580
1713.916336	228.548252
1715.757314	220.495105
1717.599676	217.283916
1719.438080	208.731469
1721.277868	203.930070
1723.115481	196.751049
1724.952698	202.235664
1726.787742	203.193007
1728.624169	202.567832
1730.458424	210.053147
1732.292285	217.227273
1734.125751	217.558741
1735.955271	222.850350
1737.787950	231.058741
1739.616685	233.620979
1741.448578	233.990909
1743.276528	236.676224
1745.104086	231.025175
1746.931253	230.612587
1748.758028	230.316783
1750.584411	230.267133
1752.406858	231.984615
1754.232459	229.772727
1756.054126	230.827972
1757.877175	223.509091
1759.698063	224.261538
1761.518561	218.758042
1763.340441	213.518881
1765.156621	211.017483
1766.975953	204.296503
1768.791358	198.938462
1770.609914	198.540559
1772.424544	201.076224
1774.238787	202.404895
1776.052644	207.723077
1777.866114	218.586713
1779.677430	207.646853
1781.490128	209.244056
1783.302439	205.691608
1785.110833	196.692308
1786.920608	190.674825
1788.726467	185.791608
1790.535473	180.216783
1792.340565	179.181818
1794.147037	184.300699
1795.953126	187.819580
1797.755305	191.282517
1799.560627	202.097203
1801.362041	206.790210
1803.164835	221.952448
1804.963724	227.427273
1806.763992	222.328671
1808.563880	220.696503
1810.361625	217.384615
1812.158990	212.445455
1813.955974	208.102797
1815.752578	202.951748
1817.547043	192.703497
1819.342888	187.387413
1821.133077	184.239860
1822.928163	187.506294
1824.717596	191.603497
1826.510167	192.969231
1828.300602	190.876224
1830.088902	197.118881
1831.880338	197.614685
1833.666129	204.437762
1835.453298	202.952448
1837.238337	203.972028
1839.026508	199.755944
1840.810794	197.987413
1842.592951	197.013986
1844.376487	201.218182
1846.157894	201.924476
1847.940679	198.693706
1849.719585	193.839860
1851.499869	197.511189
1853.278028	194.919580
1855.057564	196.908392
1856.834976	190.706993
1858.610264	191.399301
1860.386931	188.688112
1862.161475	194.783217
1863.937396	197.452448
1865.707698	204.146154
1867.481127	207.290210
1869.252436	208.638462
1871.023374	207.589510
1872.795689	209.641259
1874.562392	205.495105
1876.332219	205.112587
1878.098183	199.511189
1879.867271	193.478322
1881.632497	192.419580
1883.397355	194.119580
1885.163589	189.253147
1886.925965	188.904895
1888.687974	182.604895
1890.449616	182.434266
1892.210890	180.200699
1893.971798	181.913287
1895.732338	181.530070
1897.490770	184.268531
1899.248835	187.479021
1901.004793	186.079021
1902.762127	187.876923
1904.519095	191.389510
1906.273958	188.501399
1908.026715	186.026573
1909.779109	180.728671
1911.532879	185.479720
1913.284545	188.951748
1915.034108	193.963636
1916.785048	195.194406
1918.535624	196.527273
1920.282362	201.353147
1922.030475	200.489510
1923.776489	196.986014
1925.523879	196.876923
1927.269170	195.946853
1929.012364	193.705594
1930.756934	193.477622
1932.499407	192.351748
1934.241520	189.423077
1935.983274	191.484266
1937.724667	192.915385
1939.463967	193.826923
1941.202908	197.923077
1942.941490	199.098951
1944.677980	195.423776
1946.414113	195.760490
1948.151620	199.916783
1949.885306	195.011538
1951.620366	191.873427
1953.353337	188.380070
1955.085952	192.173427
1956.818210	194.670280
1958.550112	199.702797
1960.279928	201.302098
1962.007660	202.471329
1963.736766	200.344755
1965.465516	198.738462
1967.192183	199.954545
1968.918496	199.718182
1970.646182	194.381119
1972.368333	188.130070
1974.093584	188.772028
1975.815028	188.798601
1977.539572	186.468531
1979.262037	186.806294
1980.980698	187.526573
1982.702458	187.067832
1984.420416	185.780420
1986.139748	192.108392
1987.855279	194.456643
1989.575632	196.863636
1991.292186	197.946154
1993.004943	197.624476
1994.720796	201.124476
1996.434577	198.743357
1998.148008	200.461538
1999.859367	202.035664
2001.572100	207.553846
2003.281041	204.197203
2004.993076	204.709790
2006.699601	205.065734
2008.409219	204.975524
2010.116769	202.613287
2011.823972	203.120979
2013.529109	204.863636
2015.233899	203.738462
2016.940061	200.329371
2018.642441	199.207692
2020.346193	195.382517
2022.047882	195.318182
2023.749225	195.286713
2025.450223	198.130070
2027.149161	199.378322
2028.849470	198.960839
2030.546003	197.079720
2032.243908	198.155944
2033.939755	200.008392
2035.638687	198.811888
2037.332133	197.734965
2039.026950	193.441259
2040.721424	190.577622
2042.412130	191.973427
2044.105920	196.138462
2045.795943	195.223077
2047.487337	194.760839
2049.176678	191.881818
2050.867389	191.875524
2052.554338	191.448252
2054.240946	192.134266
2055.928925	190.106294
2057.613144	188.237063
2059.298733	186.696503
2060.983983	183.020280
2062.667185	181.456643
2064.351757	181.988811
2066.030865	182.556643
2067.714759	183.791608
2069.393193	181.667133
2071.074704	181.401399
2072.752463	183.814685
2074.429886	184.857343
2076.108678	182.881818
2077.785427	185.116783
2079.460135	186.555944
2081.136212	184.067832
2082.810249	185.726573
2084.483950	187.461538
2086.157316	189.891608
2087.828644	191.698601
2089.499637	191.709790
2091.170296	193.939161
2092.840621	192.043357
2094.510611	189.000000
2096.178566	184.721678
2097.846188	187.725175
2099.511776	185.939860
2101.178732	184.109091
2102.843655	186.358741
2104.508245	185.379720
2106.170804	185.433566
2107.834732	190.034965
2109.496628	191.540559
2111.158193	194.476923
2112.819428	192.396503
2114.478633	194.678322
2116.137509	193.870629
2117.796054	196.711888
2119.454270	193.489510
2121.108763	195.818881
2122.766320	195.255944
2124.423547	192.569231
2126.077054	192.779720
2127.731928	186.674126
2129.383083	183.821678
2131.037301	184.613287
2132.687801	185.599301
2134.339669	189.620280
2135.986128	190.276923
2137.637341	195.619580
2139.284842	197.206993
2140.933709	202.052448
2142.580557	204.321678
2144.227080	205.154545
2145.873277	203.965035
2147.515765	195.000000
2149.161312	194.094406
2150.803152	189.280420
2152.448049	184.353147
2154.089241	181.451049
2155.730109	180.180420
2157.370654	186.748252
2159.009186	190.762238
2160.649084	193.155245
2162.285282	194.832168
2163.922846	191.125874
2165.560088	192.435664
2167.195320	195.345455
2168.830230	197.344755
2170.464819	195.541259
2172.099087	194.420280
2173.729661	197.039860
2175.363286	194.494406
2176.993220	197.585315
2178.624520	197.741259
2180.253814	196.386713
2181.882789	196.702797
2183.511444	196.913287
2185.139780	201.127273
2186.766113	200.056643
2188.392128	199.543357
2190.016142	203.482517
2191.641521	199.413287
2193.264899	191.216084
2194.889642	181.327972
2196.510703	178.248951
2198.131449	174.451748
2199.753558	173.916084
2201.373670	176.720979
2202.991786	181.641958
2204.609586	182.781119
2206.227070	182.070629
2207.844239	192.624476
2209.461093	200.338462
2211.077632	200.565734
2212.692177	198.486713
2214.304731	197.669231
2215.918648	193.430769
2217.530573	189.169231
2219.143863	184.573427
2220.755161	183.200699
2222.364471	183.226573
2223.975143	179.972727
2225.583827	182.054545
2227.192199	186.916084
2228.798583	186.567832
2230.406331	187.151748
2232.012092	181.775524
2233.617543	178.308392
2235.221008	177.009091
2236.825836	174.600699
2238.428680	174.234965
2240.029541	177.762937
2241.631765	179.325874
2243.232007	179.698601
2244.833611	181.583916
2246.431562	181.914685
2248.030876	181.569930
2249.628210	183.246853
2251.225236	185.637063
2252.823623	191.439161
2254.418362	191.951748
2256.011125	189.129371
2257.605249	194.300699
2259.200736	195.527972
2260.792577	192.837063
2262.384112	187.545455
2263.977008	185.273427
2265.564595	185.679021
2267.156879	184.574126
2268.743855	187.662238
2270.333860	187.855944
2271.918560	186.318881
2273.507954	180.958741
2275.092045	181.510490
2276.677498	183.448252
2278.260982	178.536364
2279.847491	177.742657
2281.430367	176.474126
2283.012939	177.902448
2284.595209	180.111888
2286.173848	180.559091
2287.755512	189.445455
2289.333547	186.950000
2290.914605	187.579021
2292.492036	184.909441
2294.067504	185.186014
2295.645994	181.396154
2297.220859	180.078322
2298.795425	176.751399
2300.369689	171.478322
2301.943653	168.760490
2303.517317	168.241958
2305.090680	173.418881
2306.660425	181.936364
2308.229871	181.974825
2309.802336	186.236364
2311.369526	185.102797
2312.939733	187.937063
2314.506327	182.970629
2316.074279	181.504196
2317.640277	174.862238
2319.205977	173.220979
2320.771379	170.834266
2322.334828	179.323776
2323.899636	189.229371
2325.460835	192.294406
2327.025049	194.488811
2328.584002	196.510490
2330.145968	193.240559
2331.705984	186.868531
2333.265704	178.813986
2334.823475	176.051748
2336.380952	175.049650
2337.938133	174.352448
2339.493368	178.423077
2341.048308	185.558042
2342.602955	187.499301
2344.157308	185.599301
2345.711367	188.188811
2347.265133	185.627972
2348.816954	181.448951
2350.366832	180.381818
2351.919718	174.290210
2353.467362	171.257343
2355.018013	173.597203
2356.565074	170.537063
2358.113492	175.342657
2359.661618	174.391608
2361.206157	172.300699
2362.752053	171.909091
2364.296010	171.343357
2365.841325	170.274825
2367.383055	176.488112
2368.926143	179.146853
2370.467294	176.642657
2372.008156	173.555245
2373.548729	176.578322
2375.089013	174.158741
2376.629008	177.998601
2378.165424	174.120280
2379.704842	169.970629
2381.240683	165.405594
2382.777880	165.778322
2384.311503	166.359441
2385.848125	171.813287
2387.382817	181.307692
2388.915578	187.390210
2390.448054	187.539161
2391.978601	194.548252
2393.512146	194.914685
2395.040480	192.895105
2396.570170	190.275524
2398.099575	188.425874
2399.628695	188.824476
2401.157529	192.142657
2402.681159	187.694406
2404.209424	190.006993
2405.732486	199.083916
2407.260183	198.947552
2408.781039	200.925874
2410.306529	205.930070
2411.828459	200.220280
2413.351743	195.042657
2414.873107	196.616783
2416.392551	205.111189
2417.913350	209.072727
2419.432230	209.481818
2420.950828	202.439860
2422.467509	197.450350
2423.985545	193.972028
2425.503299	189.787413
2427.017501	183.766434
2428.531423	179.641259
2430.045066	173.130070
2431.560062	177.439860
2433.071511	184.263636
2434.584313	194.302098
2436.095203	199.220979
2437.605813	210.397902
2439.114512	215.191608
2440.626198	217.281119
2442.134340	217.079720
2443.642203	217.869930
2445.149789	214.503497
2446.653835	215.126573
2448.160865	210.797203
2449.665987	209.402797
2451.170832	199.837063
2452.673770	195.369930
2454.176431	197.865734
2455.678816	200.604196
2457.179296	198.486014
2458.681129	186.353147
2460.181058	185.276923
2461.680711	180.154545
2463.180089	182.100699
2464.677564	177.354545
2466.173137	169.899301
2467.671690	171.890909
2469.166715	172.632867
2470.663092	175.569231
2472.155943	180.995804
2473.650146	187.973427
2475.144077	193.543357
2476.634483	187.783217
2478.127867	192.095105
2479.619353	186.396503
2481.108942	189.727273
2482.598259	189.956643
2484.085680	189.886713
2485.576077	192.883217
2487.062955	195.443357
2488.551186	189.439860
2490.035899	189.706294
2491.520342	195.609091
2493.006137	196.172028
2494.490039	188.925874
2495.975293	187.192308
2497.455413	183.259441
2498.938505	189.327972
2500.419708	191.195804
2501.900640	190.658741
2503.379684	188.335664
2504.858460	185.332867
2506.336967	182.887413
2507.815205	188.702797
2509.293176	192.346853
2510.767641	193.758042
2512.245075	195.282517
2513.719006	189.672727
2515.194288	185.955245
2516.669302	185.343357
2518.140815	184.918182
2519.613679	182.365035
2521.084660	173.827273
2522.556991	168.311189
2524.024208	166.783916
2525.494392	169.561538
2526.962694	171.419580
2528.430732	176.820979
2529.898505	183.369930
2531.366013	184.915385
2532.833257	193.716783
2534.297008	201.291608
2535.762109	203.849650
2537.225333	201.739860
2538.689906	195.855245
2540.150991	194.179720
2541.613425	190.103497
2543.075596	189.295804
2544.534280	187.900000
2545.997537	189.462937
2547.455697	190.890909
2548.915206	187.242657
2550.369622	183.751748
2551.828608	182.565035
2553.285721	173.948252
2554.740964	175.239161
2556.195946	176.297203
2557.649058	181.938462
2559.103519	183.353147
2560.556111	186.209091
2562.008443	193.576224
2563.458907	194.746154
2564.912327	197.207692
2566.360665	192.784615
2567.811959	191.212587
2569.261386	191.483217
2570.707342	191.766434
2572.156252	195.163636
2573.601691	195.786014
2575.048479	194.011189
2576.493403	191.608392
2577.938070	192.657343
2579.384084	186.199301
2580.826631	181.766434
2582.270526	185.378322
2583.710956	183.634965
2585.152734	184.048252
2586.592652	185.100000
2588.033917	191.416084
2589.471720	193.377622
2590.912473	195.140559
2592.348163	195.535664
2593.786803	198.759441
2595.223586	203.436364
2596.658512	197.644755
2598.096387	198.337063
2599.529204	198.414685
2600.963368	198.281119
2602.395677	195.840559
2603.829334	196.496503
2605.261136	199.221678
2606.692686	196.244755
2608.123982	194.107692
2609.553427	197.061538
2610.982619	204.701399
2612.409960	207.497902
2613.838648	210.960140
2615.267083	210.792308
2616.692072	208.736364
2618.118406	213.675524
2619.542892	215.060839
2620.968724	218.500000
2622.391112	221.369231
2623.814846	213.495804
2625.236734	211.815385
2626.658371	215.383916
2628.078164	216.888112
2629.499301	219.748252
2630.920189	226.716783
2632.337639	228.236364
2633.758028	230.159441
2635.174980	239.374126
2636.591684	240.632867
2638.008139	247.082517
2639.424346	246.423776
2640.840304	239.565734
2642.254422	248.094406
2643.668293	249.033566
2645.080324	253.209091
2646.493700	260.679720
2647.903646	267.726573
2649.316528	271.985315
2650.725981	278.704895
2652.135188	280.489510
2653.542559	280.388811
2654.952864	281.594406
2656.361333	279.427273
2657.767967	281.444056
2659.174356	293.930769
2660.578911	295.360839
2661.984810	299.479720
2663.388876	306.576224
2664.792698	314.041958
2666.196275	317.535664
2667.598021	322.028671
2669.001110	326.341259
2670.400781	332.055245
2671.801796	331.304895
2673.199395	332.760140
2674.599923	342.184615
2675.997037	351.551049
2677.395494	358.273427
2678.792123	356.920979
2680.188511	360.201399
2681.584656	356.523077
2682.978975	358.627273
2684.374637	358.700000
2685.766889	362.820979
2687.160485	366.178322
2688.552256	364.178322
2689.945369	362.639860
2691.336659	369.407692
2692.726126	372.576923
2694.115354	376.846853
2695.504341	376.777622
2696.894671	377.738462
2698.280016	373.164336
2699.668286	376.156643
2701.054735	372.472028
2702.440945	369.407692
2703.826916	370.493007
2705.209489	368.396503
2706.593404	363.218182
2707.977080	359.560839
2709.360519	360.123776
2710.740562	363.692308
2712.121947	367.130769
2713.501516	363.823776
2714.882427	363.701399
2716.261523	361.535664
2717.638805	355.516084
2719.017428	346.246154
2720.394237	343.424476
2721.770811	334.200000
2723.147149	324.655944
2724.521675	313.804196
2725.897542	308.623077
2727.270022	298.953147
2728.645419	288.805594
2730.015854	280.681119
2731.387631	280.255245
2732.759174	270.033566
2734.128908	265.270629
2735.499982	255.174825
2736.869249	246.631469
2738.238282	240.053846
2739.605508	240.861538
2740.972502	235.379021
2742.339263	227.912587
2743.705791	222.418881
2745.070515	222.406294
2746.435006	220.916783
2747.799265	219.451748
2749.163293	213.109790
2750.527088	217.781119
2751.887510	208.418182
2753.250843	202.697902
2754.609233	201.530769
2755.970533	201.541958
2757.328462	195.353147
2758.689301	189.405594
2760.048339	185.197902
2761.404009	185.948252
2762.762588	181.443357
2764.117799	179.031469
2765.472781	176.656643
2766.825966	175.946154
2768.182058	167.851748
2769.534786	170.026573
2770.887285	165.827273
2772.239557	162.546853
2773.593166	164.176923
2774.943414	166.604895
2776.291869	169.819580
2777.643228	177.697203
2778.991228	185.413986
2780.340567	188.948252
2781.688113	187.956643
2783.035432	186.859441
2784.382525	185.497902
2785.727827	187.269231
2787.072903	179.562937
2788.417753	173.976923
2789.762377	172.895105
2791.103648	171.079021
2792.446258	167.367832
2793.788643	160.727273
2795.130802	163.656643
2796.469612	167.018881
2797.811322	171.758741
2799.149683	174.807692
2800.489382	176.366434
2801.827295	178.306294
2803.163424	181.929371
2804.499330	183.184615
2805.836572	181.930070
2807.172031	180.251748
2808.507267	176.772727
2809.840721	172.717483
2811.175511	172.032867
2812.506960	177.996503
2813.841305	178.800000
2815.170752	175.518182
2816.501536	175.783217
2817.832098	172.127972
2819.160881	171.281818
2820.491001	170.937063
2821.819341	167.013287
2823.147461	162.598601
2824.473804	154.401399
2825.801482	155.269231
2827.125828	151.858042
2828.451510	153.363636
2829.775416	153.133566
2831.099102	153.311189
2832.424124	155.181818
2833.745817	152.234965
2835.067290	156.932867
2836.388545	164.976923
2837.709581	165.567133
2839.028845	166.904895
2840.349444	168.972727
2841.668271	175.697902
2842.986880	167.251748
2844.303719	162.969231
2845.620340	159.046853
2846.936743	151.119580
2848.251378	145.061538
2849.567347	141.984615
2850.879997	144.797203
2852.193981	148.722378
2853.507749	147.086713
2854.821300	157.420979
2856.133084	167.472028
2857.443103	167.151049
2858.754456	162.930070
2860.062493	171.583217
2861.371866	171.078322
2862.681023	171.273427
2863.989965	171.865035
2865.297144	169.933566
2866.602559	167.288811
2867.909309	165.734266
2869.214297	162.083916
2870.519070	166.649650
2871.822083	163.766434
2873.127976	154.604895
2874.429015	154.217483
2875.731387	158.434266
2877.032000	158.394406
2878.333947	159.540559
2879.635681	156.308392
2880.934111	152.550350
2882.233874	152.381818
2883.531880	151.618182
2884.829674	152.400000
2886.125711	150.293706
2887.423082	146.994406
2888.718697	147.116783
2890.014102	149.195804
2891.309295	153.720979
2892.601190	159.238462
2893.895962	156.820280
2895.187438	154.311888
2896.480246	153.251049
2897.772844	151.150350
2899.062147	145.046154
2900.352783	141.718881
2901.641669	136.113986
2902.931886	136.050350
2904.218812	145.658042
2905.507070	149.293007
2906.793579	154.893706
2908.079879	160.588811
2909.365971	170.743357
2910.650315	176.628671
2911.937531	178.764336
2913.219920	180.025874
2914.503641	169.611189
2915.785615	167.039161
2917.067383	162.269231
2918.347405	159.462937
2919.630297	162.939161
2920.911444	159.630769
2922.189309	158.322378
2923.470043	162.614685
2924.747496	172.116084
2926.024744	169.248951
2927.300249	162.520280
2928.578622	165.168531
2929.852181	157.854545
2931.128606	157.583217
2932.403291	160.041259
2933.676236	155.267133
2934.950511	158.004196
2936.223047	156.599301
2937.495379	157.390210
2938.764438	159.344755
2940.036362	162.665035
2941.306548	157.546853
2942.576530	154.494406
2943.846309	157.241259
2945.114351	157.296503
2946.380658	159.560839
2947.646762	164.965734
2948.914197	160.477622
2950.179896	163.930769
2951.445393	162.083916
2952.710689	162.808392
2953.972719	167.360140
2955.236079	167.971329
2956.499238	161.046853
2957.760664	157.429371
2959.023420	157.636364
2960.284445	154.437762
2961.543739	150.944056
2962.802832	150.005594
2964.061725	149.275524
2965.320418	148.888112
2966.578911	147.171329
2967.835675	144.400000
2969.092240	142.022378
2970.347076	136.907692
2971.603242	137.883916
2972.856152	142.865734
2974.110392	146.161538
2975.364433	141.405594
2976.616748	142.097203
2977.868865	149.453846
2979.119257	148.936364
2980.372504	148.961538
2981.620974	153.509091
2982.872298	151.967133
2984.120374	154.399301
2985.368252	156.365734
2986.615933	164.716783
2987.863418	167.355944
2989.109181	159.043357
2990.354747	153.450350
2991.601642	148.160839
2992.845291	144.830769
2994.090269	138.855245
2995.332004	144.130070
2996.576590	146.806993
2997.819457	147.108392
2999.059082	148.822378
3000.301559	145.952448
3001.540795	153.330769
3002.781359	156.804196
3004.020206	149.322378
3005.258859	142.072727
3006.495796	136.262238
3007.734061	134.455944
3008.970610	136.508392
3010.206966	139.464336
3011.443128	135.008392
3012.677576	128.495804
3013.911831	129.006993
3015.145893	129.881119
3016.378243	135.575524
3017.608881	136.645455
3018.842365	139.248252
3020.074138	138.616783
3021.304199	137.258042
3022.534069	141.353846
3023.762229	146.097902
3024.991716	145.731469
3026.219493	145.468531
3027.447079	143.805594
3028.675991	149.095105
3029.900161	149.555245
3031.127174	148.694406
3032.350964	150.976923
3033.576079	152.574126
3034.799488	146.530769
3036.022708	135.817483
3037.244222	136.672028
3038.468577	132.682517
3039.688197	129.486713
3040.909143	131.889510
3042.129899	130.660140
3043.348952	129.613986
3044.569331	133.912587
3045.786493	138.590909
3047.004980	140.681818
3048.221766	138.600000
3049.438363	138.564336
3050.654773	133.566434
3051.867969	139.320979
3053.084003	135.411189
3054.296825	137.313287
3055.512484	139.030769
3056.723420	135.974825
3057.935682	134.755944
3059.147756	136.739161
3060.359644	137.248252
3061.569834	131.665734
3062.779839	128.458741
3063.989657	125.751049
3065.197779	118.698601
3066.405715	118.277622
3067.611957	116.023077
3068.819523	117.318881
3070.025394	121.062937
3071.231080	119.624476
3072.436582	118.690210
3073.640390	120.631469
3074.845522	120.287413
3076.048961	118.974825
3077.250708	117.374126
3078.452272	119.298601
3079.653652	116.578322
3080.854848	114.685315
3082.054354	115.621678
3083.253676	117.499301
3084.454322	121.176923
3085.653279	116.955944
3086.849040	120.432867
3088.047631	125.030070
3089.243028	124.237063
3090.439749	130.333566
3091.633277	129.613287
3092.829633	136.480420
3094.024302	134.923776
3095.215781	135.725175
3096.411591	137.227273
3097.602708	136.952448
3098.795148	134.302797
3099.984399	130.279021
3101.176477	128.953846
3102.366871	129.481818
3103.554078	129.542657
3104.742609	132.402797
3105.932462	127.053846
3107.119130	132.451049
3108.305619	134.269930
3109.491928	136.646853
3110.679560	139.593706
3111.864009	138.577622
3113.046778	139.063636
3114.232371	141.723077
3115.416283	142.351049
3116.598517	145.071329
3117.780573	143.839161
3118.962450	139.531469
3120.144149	137.602797
3121.324171	138.356643
3122.502516	134.274126
3123.683681	129.066434
3124.861671	128.460140
3126.039484	125.472727
3127.217120	123.209790
3128.393081	126.977622
3129.568866	121.550350
3130.745971	117.630769
3131.921403	113.753846
3133.095161	111.046853
3134.267246	112.862937
3135.440652	110.493706
3136.613883	109.005594
3137.785442	110.861538
3138.958321	116.269930
3140.128033	118.697203
3141.299066	123.434965
3142.468428	130.754545
3143.636121	128.325874
3144.806629	132.488112
3145.972478	136.605594
3147.142637	140.613986
3148.308138	138.276923
3149.473466	136.329371
3150.638620	135.492308
3151.803601	136.372028
3152.969901	136.295804
3154.131548	131.295105
3155.294516	129.501399
3156.457311	125.388811
3157.619932	119.047552
3158.780889	115.391608
3159.941674	116.892308
3161.102286	117.890909
3162.261234	108.494406
3163.420010	107.623776
3164.578615	109.443357
3165.737048	115.786713
3166.895309	118.328671
3168.051909	119.634266
3169.206846	118.920979
3170.363104	116.573427
3171.517700	113.462238
3172.672126	111.854545
3173.824891	112.448951
3174.977487	108.562937
3176.129913	95.994406
3177.282168	94.369231
3178.434254	94.520280
3179.583193	97.787413
3180.734939	98.235664
3181.885028	100.969930
3183.033459	102.427972
3184.181722	107.677622
3185.329816	109.292308
3186.477741	110.394406
3187.624010	116.844056
3188.770111	121.770629
3189.914558	123.475524
3191.058836	127.615385
3192.202947	129.650350
3193.348376	131.988112
3194.490666	132.654545
3195.632788	135.920280
3196.774744	137.286713
3197.916532	132.719580
3199.058153	122.879720
3200.196638	118.258741
3201.336442	117.300699
3202.477562	113.731469
3203.615548	112.884615
3204.751885	114.753846
3205.888056	115.539161
3207.025545	116.167133
3208.161385	115.697902
3209.298542	118.241958
3210.431086	115.679021
3211.567911	111.462937
3212.700125	113.874126
3213.833657	116.068531
3214.967023	116.356643
3216.097262	118.010490
3217.230300	116.605594
3218.360210	118.270629
3219.491438	115.748252
3220.619540	113.130070
3221.750440	107.067832
3222.879695	110.818881
3224.007307	116.840559
3225.131796	121.283916
3226.260561	129.251049
3227.386204	133.369231
3228.511684	135.407692
3229.635523	136.363636
3230.762157	130.365734
3231.884192	129.349650
3233.007544	124.373427
3234.130734	120.430070
3235.253762	117.430769
3236.375150	124.676923
3237.496377	124.443357
3238.615965	118.210490
3239.735392	112.623776
3240.853182	110.771329
3241.973763	107.478322
3243.091231	107.821678
3244.208538	104.832867
3245.325684	99.303497
3246.441195	100.934266
3247.558021	102.723776
3248.671736	105.725874
3249.788242	111.831469
3250.903112	106.544056
3252.014874	105.027972
3253.126477	105.750350
3254.239395	110.287413
3255.352153	113.200699
3256.461805	110.953147
3257.572772	109.767832
3258.683580	107.234965
3259.792756	113.036364
3260.900301	113.558042
3262.009161	112.653846
3263.117862	113.368531
3264.223461	108.598601
3265.330375	106.497203
3266.435659	107.817483
3267.542257	107.539161
3268.645755	107.471329
3269.750567	103.959441
3270.855222	107.088811
3271.956779	112.462937
3273.058179	113.397203
3274.160893	109.336364
3275.263450	106.294406
3276.362912	104.537063
3277.465156	100.544056
3278.564306	92.947552
3279.661830	88.846853
3280.759200	91.746853
3281.859351	96.768531
3282.956409	99.477622
3284.053313	104.083217
3285.150061	109.695105
3286.242250	108.569930
3287.338689	105.809091
3288.433505	107.268531
3289.528166	109.510490
3290.621206	106.240559
3291.714092	101.810490
3292.805357	100.098601
3293.897935	105.221678
3294.988893	104.458741
3296.078231	98.967832
3297.167416	95.187413
3298.257913	100.088112
3299.345326	100.288811
3300.432587	99.177622
3301.521160	103.295804
3302.609580	103.272727
3303.693453	103.186713
3304.781568	107.427972
3305.866602	108.412587
3306.950020	107.727273
3308.034750	101.483217
3309.117864	97.530769
3310.202290	98.200000
3311.283638	98.579021
3312.366298	98.009790
3313.447344	98.439860
3314.528239	98.320979
3315.607521	101.253846
3316.686652	102.034266
3317.767095	104.821678
3318.844463	107.537762
3319.923143	104.098601
3321.000211	102.375524
3322.077129	100.625175
3323.152437	101.441259
3324.227595	96.005594
3325.304064	99.711189
3326.377462	96.193706
3327.450712	95.020280
3328.525273	96.004895
3329.598224	92.567832
3330.669568	95.732168
3331.742222	94.512587
3332.811809	94.467832
3333.882707	96.184615
3334.951998	93.663636
3336.022600	96.083217
3337.091595	95.020280
3338.158985	98.104196
3339.224768	94.188112
3340.294778	95.472727
3341.361725	95.760839
3342.425610	100.114685
3343.492263	102.455944
3344.557312	97.941259
3345.620757	103.070629
3346.684055	103.204196
3347.747208	103.618881
3348.810214	106.362937
3349.873073	107.111888
3350.934331	105.487413
3351.992532	103.331469
3353.054954	97.569930
3354.114319	95.262937
3355.173540	94.597203
3356.234069	91.856643
3357.290089	94.185315
3358.348874	99.779021
3359.403151	103.226573
3360.460192	108.870629
3361.515634	106.640559
3362.572385	106.117483
3363.627539	105.130769
3364.681095	105.094406
3365.733054	97.632867
3366.787776	96.302098
3367.839448	91.246154
3368.890976	90.960140
3369.943814	96.532867
3370.993604	97.719580
3372.044703	97.833566
3373.092755	98.467133
3374.143568	95.323077
3375.191335	98.948951
3376.238960	102.032867
3377.286443	95.179720
3378.332332	87.641958
3379.379531	87.356643
3380.423686	81.834266
3381.470600	82.318881
3382.515923	80.154545
3383.558204	82.447552
3384.600344	87.132867
3385.643793	92.128671
3386.687100	94.886713
3387.728817	96.016084
3388.770394	94.603497
3389.811829	88.848252
3390.851676	87.828671
3391.889934	91.650350
3392.929500	86.749650
3393.968926	88.557343
3395.006764	88.272028
3396.043015	95.051748
3397.079126	93.635664
3398.116545	94.179720
3399.150931	90.350350
3400.186625	90.729371
3401.222179	90.565734
3402.254701	84.414685
3403.289977	84.030769
3404.322222	85.313287
3405.354329	84.270629
3406.384853	85.430070
3407.416683	85.430769
3408.448375	87.919580
3409.477039	83.507692
3410.505566	84.578322
3411.535399	83.090210
3412.565095	84.044056
3413.591765	82.362238
3414.619741	77.087413
3415.644693	82.897203
3416.672396	85.289510
3417.697074	85.751748
3418.723059	88.958042
3419.747465	86.633566
3420.771733	84.444755
3421.794424	83.169930
3422.816978	77.576224
3423.840838	73.744056
3424.861678	73.605594
3425.882382	74.748551
3426.904392	77.335090
3427.923384	81.337063
3428.942241	86.726324
3429.962404	93.474725
3430.979549	101.554121
