-118.304647	5.900000
-115.635047	5.550000
-112.968382	2.600000
-110.302469	-7.300000
-107.639489	-3.600000
-104.975078	-1.500000
-102.313598	8.250000
-99.650689	-6.850000
-96.992886	-7.300000
-94.333654	9.200000
-91.675170	11.200000
-89.019611	0.000000
-86.362622	14.750000
-83.710732	9.450000
-81.057412	0.650000
-78.407011	3.950000
-75.755182	8.500000
-73.108442	9.050000
-70.460274	5.850000
-67.812848	2.750000
-65.168337	-1.850000
-62.522396	14.850000
-59.881537	1.900000
-57.239249	8.800000
-54.599870	12.050000
-51.959061	6.550000
-49.318993	0.450000
-46.683998	14.550000
-44.047573	-0.950000
-41.414051	10.900000
-38.779101	-5.900000
-36.149216	10.300000
-33.515739	18.550000
-30.887324	8.550000
-28.259643	11.750000
-25.630533	17.700000
-23.006480	20.350000
-20.378838	11.950000
-17.756249	23.450000
-15.134392	18.250000
-12.513265	38.700000
-9.892869	95.100000
-7.275360	294.500000
-4.656423	1068.750000
-2.040371	3172.850000
0.574952	4578.500000
3.189547	2244.400000
5.801261	377.700000
8.414403	45.550000
11.022511	21.650000
13.634201	20.100000
16.240860	18.800000
18.848947	10.950000
21.456310	9.600000
24.058648	4.850000
26.664564	0.700000
29.265458	5.150000
31.867780	9.400000
34.465085	4.900000
37.065965	5.850000
39.661830	6.450000
42.259124	19.650000
44.855698	3.950000
47.447263	14.100000
50.040256	1.850000
52.630388	5.900000
55.221947	4.850000
57.810648	13.150000
60.400775	18.850000
62.985903	12.300000
65.572459	12.250000
68.158301	13.000000
70.741289	-0.900000
73.325703	20.000000
75.902989	9.300000
78.483841	8.650000
81.061844	8.850000
83.639137	8.200000
86.217856	15.950000
88.791593	1.900000
91.366758	7.800000
93.939079	9.850000
96.510692	14.050000
99.079465	12.200000
101.649665	11.200000
104.217026	19.600000
106.785814	7.100000
109.351765	14.200000
111.914881	27.950000
114.481553	27.250000
117.039004	36.250000
119.602140	69.100000
122.160316	130.200000
124.722047	293.600000
127.278821	493.600000
129.837021	592.400000
132.390269	517.300000
134.942819	480.100000
137.498919	559.450000
140.050071	660.750000
142.600526	791.300000
145.150283	907.300000
147.697221	965.900000
150.243464	984.250000
152.791132	975.550000
155.338104	946.250000
157.880141	904.050000
160.421484	907.900000
162.962134	958.600000
165.504210	1004.250000
168.043474	1100.050000
170.579930	1179.800000
173.115694	1278.650000
175.652884	1419.400000
178.189383	1563.950000
180.723076	1787.700000
183.253965	2033.700000
185.784166	2326.950000
188.315793	2821.800000
190.844618	3425.150000
193.370644	4157.750000
195.895984	5102.800000
198.422749	6120.700000
200.946718	7102.700000
203.470002	7847.550000
205.992601	8162.500000
208.512407	7939.150000
211.031529	7230.700000
213.549970	6332.500000
216.069834	5352.500000
218.582697	4431.450000
221.099091	3686.150000
223.614803	3121.950000
226.125625	2683.650000
228.637872	2308.100000
231.147337	2021.500000
233.656122	1778.950000
236.164230	1627.000000
238.673762	1497.300000
241.178413	1392.950000
243.682388	1273.200000
246.187787	1215.800000
248.688311	1175.400000
251.192358	1141.950000
253.689435	1097.550000
256.190035	1135.800000
258.687863	1261.850000
261.185018	1552.250000
263.681500	1868.450000
266.173119	1799.700000
268.668258	1355.900000
271.160630	955.400000
273.652332	784.150000
276.141271	712.400000
278.631633	716.350000
281.119234	656.550000
283.604075	649.250000
286.092431	581.300000
288.573847	584.400000
291.058777	579.950000
293.538862	560.300000
296.022459	566.550000
298.501213	558.500000
300.981390	574.050000
303.458816	553.850000
305.935578	555.800000
308.411676	565.750000
310.885027	544.550000
313.357715	552.100000
315.829742	570.550000
318.301108	584.750000
320.769729	617.100000
323.237692	614.250000
325.707076	592.500000
328.171638	583.250000
330.639704	572.550000
333.102950	579.050000
335.565538	578.350000
338.027470	616.950000
340.488745	625.800000
342.947286	685.850000
345.407249	747.450000
347.864479	928.000000
350.321055	1368.200000
352.776977	2040.050000
355.230169	2439.800000
357.684784	1938.300000
360.134597	1115.050000
362.587906	736.800000
365.036416	633.950000
367.484276	573.400000
369.933558	566.250000
372.378046	574.700000
374.823956	561.550000
377.269216	552.800000
379.711758	579.200000
382.153652	622.750000
384.594899	638.850000
387.033430	757.050000
389.473382	1050.350000
391.910622	1492.700000
394.345149	1617.700000
396.783164	1294.400000
399.216402	969.450000
401.651061	942.400000
404.080948	939.100000
406.514320	799.500000
408.942922	688.250000
411.370882	652.100000
413.800264	666.050000
416.224880	665.800000
418.650918	679.100000
421.076315	704.250000
423.501072	733.100000
425.921071	748.950000
428.342490	805.200000
430.761214	838.850000
433.181358	901.250000
435.598807	947.300000
438.017676	1067.400000
440.433852	1186.450000
442.845280	1369.250000
445.260185	1661.150000
447.672401	2130.000000
450.083982	2780.950000
452.494929	3907.800000
454.903190	5858.400000
457.310818	9733.750000
459.717814	16437.950000
462.124179	25043.400000
464.527861	30161.000000
466.930913	26547.600000
469.333335	17773.750000
471.735127	10787.150000
474.134241	6937.500000
476.534775	4899.050000
478.934680	3779.950000
481.329863	3067.700000
483.728512	2604.850000
486.122440	2229.250000
488.515743	2020.800000
490.908421	1801.400000
493.300473	1667.500000
495.693943	1521.800000
498.082701	1408.750000
500.468793	1353.000000
502.856305	1345.400000
505.243194	1404.300000
507.627419	1587.200000
510.013062	1611.450000
512.396044	1370.550000
514.776365	1131.250000
517.158105	1011.450000
519.537186	924.200000
521.917686	901.150000
524.295528	878.600000
526.670714	844.700000
529.045284	825.550000
531.421271	811.500000
533.794606	805.850000
536.169358	802.000000
538.539425	758.350000
540.908876	768.800000
543.279745	745.500000
545.645933	737.950000
548.013540	726.550000
550.378502	705.050000
552.742850	686.050000
555.106585	669.700000
557.471738	658.200000
559.832219	655.100000
562.194118	647.000000
564.553376	611.450000
566.909996	633.100000
569.270062	637.800000
571.623436	617.700000
573.980255	623.500000
576.334439	623.900000
578.688014	605.300000
581.040982	625.850000
583.391317	608.600000
585.743070	601.100000
588.088146	599.850000
590.438685	597.200000
592.782552	609.950000
595.131880	627.150000
597.476559	603.100000
599.818614	594.200000
602.162086	600.250000
604.502935	601.650000
606.843181	589.150000
609.180808	573.600000
611.521869	566.950000
613.858292	578.150000
616.196132	571.350000
618.531355	576.050000
620.863962	559.400000
623.197985	579.600000
625.529394	563.800000
627.860205	572.750000
630.190419	553.300000
632.520034	553.000000
634.845026	572.500000
637.175460	563.750000
639.501273	536.400000
641.824478	538.550000
644.149100	553.650000
646.471116	559.250000
648.792538	553.500000
651.111358	570.500000
653.431593	546.300000
655.751235	548.600000
658.068276	518.450000
660.384725	522.600000
662.698576	529.300000
665.013843	531.250000
667.326513	529.150000
669.640598	543.050000
671.950083	540.850000
674.260984	579.000000
676.569292	543.950000
678.877012	565.300000
681.186146	570.100000
683.490688	586.650000
685.794644	608.350000
688.098014	643.700000
690.402798	716.000000
692.702995	817.600000
695.004608	862.200000
697.305635	848.400000
699.602081	763.550000
701.899942	694.600000
704.197219	616.450000
706.493913	600.950000
708.786031	590.450000
711.081560	566.250000
713.372515	556.800000
715.664885	558.950000
717.954680	548.750000
720.243894	553.000000
722.532529	543.800000
724.818591	543.900000
727.106068	552.300000
729.390973	539.400000
731.675301	563.700000
733.957060	549.450000
736.240233	548.050000
738.522829	532.950000
740.800869	563.650000
743.080324	532.800000
745.359202	549.800000
747.637506	535.850000
749.911260	551.150000
752.186427	548.550000
754.461021	533.250000
756.733056	560.750000
759.006504	527.650000
761.277394	550.750000
763.545728	526.950000
765.815475	552.250000
768.082667	552.300000
770.349290	567.450000
772.615342	567.950000
774.878843	554.800000
777.143757	571.500000
779.408101	578.650000
781.667916	578.700000
783.929143	573.900000
786.189803	615.450000
788.447917	596.300000
790.703486	629.400000
792.962446	664.400000
795.214906	694.650000
797.472734	729.850000
799.726043	778.150000
801.976812	864.300000
804.228993	995.700000
806.478635	1240.250000
808.729690	1321.800000
810.976233	1235.250000
813.224188	1021.500000
815.469609	855.650000
817.716441	696.650000
819.962712	682.250000
822.204478	632.300000
824.449628	602.550000
826.688305	612.350000
828.930364	619.950000
831.167925	596.500000
833.406898	603.250000
835.643344	586.300000
837.881201	594.350000
840.116533	583.200000
842.349342	602.200000
844.583562	596.750000
846.815259	605.900000
849.046402	591.250000
851.276990	583.700000
853.507024	587.450000
855.736504	585.950000
857.961502	599.800000
860.189875	579.600000
862.413768	565.950000
864.639073	571.600000
866.859902	574.800000
869.084103	550.200000
871.303831	563.350000
873.524969	569.250000
875.745557	563.600000
877.963636	579.900000
880.183124	578.450000
882.398146	593.450000
884.612620	587.950000
886.826547	593.000000
889.039927	598.950000
891.252759	607.750000
893.465045	575.400000
895.674828	591.750000
897.884066	561.650000
900.092759	585.100000
902.298952	585.450000
904.506556	570.850000
906.711661	564.000000
908.916223	568.900000
911.118290	572.700000
913.321766	588.350000
915.522748	583.400000
917.723188	579.600000
919.925037	588.850000
922.120495	565.400000
924.319312	591.200000
926.513690	587.300000
928.711426	558.500000
930.904726	569.600000
933.099435	559.350000
935.291658	573.600000
937.483342	573.100000
939.674489	536.150000
941.863153	553.500000
944.051281	565.350000
946.236928	547.400000
948.425927	561.650000
950.610503	548.900000
952.794544	548.050000
954.981935	568.800000
957.161022	563.300000
959.343460	568.450000
961.525364	568.200000
963.704793	558.000000
965.881750	556.050000
968.060115	555.200000
970.239887	563.950000
972.413310	547.600000
974.590079	569.900000
976.762441	547.200000
978.936211	552.650000
981.105577	530.950000
983.278287	547.850000
985.448532	540.700000
987.618247	554.950000
989.787435	543.000000
991.952225	558.300000
994.120356	557.150000
996.284092	554.100000
998.449236	530.950000
1000.611920	571.600000
1002.774079	552.950000
1004.933781	551.250000
1007.092958	541.300000
1009.253542	552.250000
1011.411671	562.200000
1013.569277	567.850000
1015.726359	571.900000
1017.882917	554.100000
1020.035096	568.950000
1022.188682	553.250000
1024.341746	563.250000
1026.492361	582.800000
1028.644383	547.150000
1030.792031	580.100000
1032.943011	559.950000
1035.089620	547.350000
1037.235710	562.950000
1039.381282	588.150000
1041.528259	577.300000
1043.668947	566.550000
1045.812965	573.250000
1047.954542	540.500000
1050.095603	577.650000
1052.238068	576.750000
1054.374253	581.400000
1056.513765	595.450000
1058.648922	592.150000
1060.787403	604.300000
1062.921530	609.650000
1065.055144	637.950000
1067.190162	636.600000
1069.320832	620.900000
1071.452906	623.150000
1073.582551	603.400000
1075.711684	628.200000
1077.840305	649.100000
1079.968415	667.450000
1082.094099	698.350000
1084.219273	658.950000
1086.345851	631.250000
1088.468091	605.550000
1090.591736	598.050000
1092.711046	569.800000
1094.835585	582.850000
1096.953880	578.700000
1099.073579	585.250000
1101.190859	546.200000
1103.307632	574.950000
1105.423900	571.300000
1107.537751	535.250000
1109.653007	556.300000
1111.763939	573.150000
1113.878184	575.200000
1115.988108	571.800000
1118.099436	570.000000
1120.210259	557.650000
1122.316766	552.100000
1124.426582	570.700000
1126.532085	554.750000
1128.638990	546.200000
1130.739680	562.850000
1132.845582	582.350000
1134.947175	565.500000
1137.050171	572.150000
1139.152666	589.850000
1141.248954	605.950000
1143.350449	611.650000
1145.447642	642.300000
1147.544337	655.150000
1149.640533	691.400000
1151.736231	756.450000
1153.831432	879.800000
1155.924236	1003.050000
1158.018442	1177.500000
1160.106457	1248.450000
1162.199671	1202.450000
1164.286696	1066.050000
1166.377020	844.300000
1168.463056	738.900000
1170.552391	666.250000
1172.635544	618.300000
1174.720099	609.450000
1176.806056	589.850000
1178.887731	561.650000
1180.970807	569.900000
1183.051498	571.650000
1185.131698	579.600000
1187.211406	572.300000
1189.290623	568.200000
1191.367458	559.800000
1193.441911	555.300000
1195.519657	548.600000
1197.593133	575.450000
1199.668009	574.200000
1201.738618	545.350000
1203.810628	558.500000
1205.880263	560.950000
1207.951297	558.750000
1210.021845	570.950000
1212.088131	577.700000
1214.155818	572.250000
1216.221133	569.550000
1218.287848	573.600000
1220.350307	567.600000
1222.416051	595.600000
1224.477541	611.900000
1226.540432	623.050000
1228.600955	630.550000
1230.660994	621.650000
1232.720550	613.450000
1234.777742	614.250000
1236.834452	581.050000
1238.888798	570.400000
1240.946426	577.150000
1243.001691	565.750000
1245.052715	579.450000
1247.105139	525.150000
1249.157083	556.800000
1251.206669	563.450000
1253.255776	549.850000
1255.304404	542.550000
1257.352554	519.800000
1259.400226	533.800000
1261.443667	560.550000
1263.490384	543.800000
1265.534747	558.300000
1267.578634	527.350000
1269.620169	539.150000
1271.659355	537.750000
1273.701814	525.900000
1275.740050	555.750000
1277.779685	540.250000
1279.818845	528.200000
1281.853786	542.450000
1283.890126	536.050000
1285.924122	538.150000
1287.959515	526.900000
1289.990696	535.500000
1292.023274	547.300000
1294.055381	543.900000
1296.085147	544.500000
1298.116310	519.550000
1300.143267	515.250000
1302.171621	522.800000
1304.195770	537.450000
1306.223185	535.850000
1308.246397	526.400000
1310.271007	535.950000
1312.293283	531.500000
1314.316956	528.300000
1316.338295	510.050000
1318.359168	505.500000
1320.379573	529.800000
1322.395785	542.850000
1324.413394	520.800000
1326.428675	520.150000
1328.447215	543.100000
1330.461566	537.700000
1332.473590	523.650000
1334.488873	549.800000
1336.499970	526.550000
1338.512464	523.750000
1340.520775	527.000000
1342.532341	516.700000
1344.537869	528.350000
1346.546652	546.150000
1348.551257	526.000000
1350.559116	530.050000
1352.566513	535.300000
1354.567879	513.150000
1356.570641	532.750000
1358.572944	539.350000
1360.574787	507.000000
1362.576170	536.450000
1364.575240	507.700000
1366.573851	507.950000
1368.572003	512.700000
1370.569698	509.400000
1372.563230	514.050000
1374.558157	521.450000
1376.552628	508.000000
1378.546642	525.750000
1380.538349	541.850000
1382.529600	520.550000
1384.518546	489.300000
1386.508888	518.900000
1388.498774	488.900000
1390.486356	520.800000
1392.473485	501.800000
1394.458312	504.050000
1396.444534	507.350000
1398.428455	502.700000
1400.411924	499.600000
1402.394941	534.200000
1404.375660	512.050000
1406.357773	519.550000
1408.337590	507.550000
1410.316955	508.700000
1412.292182	510.650000
1414.270647	521.550000
1416.246819	516.700000
1418.222541	516.600000
1420.197815	519.600000
1422.170797	494.650000
1424.143331	528.600000
1426.115417	515.300000
1428.087056	497.950000
1430.054566	525.700000
1432.027150	509.250000
1433.991928	503.650000
1435.961779	507.700000
1437.927506	526.400000
1439.894625	515.050000
1441.859461	535.550000
1443.820177	508.350000
1445.785961	515.500000
1447.745790	523.650000
1449.707013	515.700000
1451.669627	525.750000
1453.628127	505.400000
1455.586185	506.800000
1457.543801	512.650000
1459.500974	497.000000
1461.455872	549.200000
1463.412163	496.650000
1465.366179	488.200000
1467.319754	503.100000
1469.271057	512.150000
1471.223753	507.900000
1473.174176	503.750000
1475.124161	503.750000
1477.073707	517.250000
1479.020984	501.500000
1480.965993	507.700000
1482.912395	502.100000
1484.858359	508.400000
1486.803886	504.650000
1488.747147	510.800000
1490.689973	504.300000
1492.630534	507.200000
1494.572488	488.350000
1496.512179	504.900000
1498.451435	485.500000
1500.390257	508.050000
1502.326819	517.200000
1504.264772	498.650000
1506.200466	511.000000
1508.135727	497.350000
1510.068731	508.800000
1512.001304	512.450000
1513.933444	511.900000
1515.865152	497.400000
1517.794606	510.800000
1519.725451	493.800000
1521.655864	503.050000
1523.582205	507.100000
1525.509936	505.250000
1527.435418	485.750000
1529.360470	498.850000
1531.285093	501.050000
1533.209286	503.800000
1535.131233	507.000000
1537.054570	490.550000
1538.975660	502.750000
1540.894506	506.600000
1542.814742	508.750000
1544.732735	500.400000
1546.650300	502.100000
1548.565625	511.250000
1550.482339	510.500000
1552.394998	526.350000
1554.310861	531.500000
1556.224484	523.550000
1558.135869	509.150000
1560.048644	517.350000
1561.957369	525.050000
1563.867483	502.850000
1565.777174	518.650000
1567.686442	511.850000
1569.593476	514.750000
1571.498277	490.950000
1573.404467	503.050000
1575.308425	514.450000
1577.211962	526.700000
1579.115079	507.000000
1581.015966	517.100000
1582.918242	523.300000
1584.818290	503.850000
1586.719725	524.050000
1588.617127	520.550000
1590.514110	516.700000
1592.410675	524.250000
1594.308627	508.350000
1596.200745	496.900000
1598.096057	512.050000
1599.990951	522.050000
1601.883623	524.050000
1603.775878	502.750000
1605.665914	512.700000
1607.555534	515.650000
1609.444739	523.400000
1611.333529	507.550000
1613.220101	505.000000
1615.108061	513.950000
1616.992004	511.400000
1618.877334	515.800000
1620.762251	510.650000
1622.644954	511.000000
1624.529044	503.100000
1626.409122	500.800000
1628.290588	492.750000
1630.169843	508.600000
1632.050484	498.250000
1633.925321	498.850000
1635.805139	515.200000
1637.680953	490.150000
1639.556356	501.700000
1641.433145	500.850000
1643.304138	498.950000
1645.178312	490.350000
1647.048487	487.150000
1648.921843	492.150000
1650.792996	491.250000
1652.661948	490.500000
1654.532284	503.150000
1656.398628	475.800000
1658.266357	486.250000
1660.131887	505.450000
1661.998803	471.800000
1663.861730	467.750000
1665.726042	493.700000
1667.588158	493.300000
1669.449869	470.650000
1671.312966	482.650000
1673.173867	458.550000
1675.032576	458.450000
1676.890881	451.100000
1678.750570	471.650000
1680.604493	455.050000
1682.461589	469.900000
1684.318281	478.900000
1686.170998	491.900000
1688.026886	464.300000
1689.878800	479.950000
1691.730313	472.600000
1693.581425	449.300000
1695.432137	469.100000
1697.282447	456.000000
1699.130574	475.350000
1700.980085	451.450000
1702.823846	453.700000
1704.672558	460.550000
1706.515523	456.050000
1708.361655	458.050000
1710.203824	465.200000
1712.049159	457.900000
1713.888753	451.850000
1715.729731	448.150000
1717.572092	469.550000
1719.410497	467.750000
1721.250285	458.500000
1723.087897	462.350000
1724.925115	458.250000
1726.760159	434.600000
1728.596586	457.500000
1730.430841	467.600000
1732.264701	451.700000
1734.098167	460.050000
1735.927688	445.950000
1737.760367	437.450000
1739.589102	464.950000
1741.420994	465.900000
1743.248944	459.800000
1745.076502	454.250000
1746.903669	443.900000
1748.730444	452.300000
1750.556827	463.850000
1752.379274	460.700000
1754.204876	445.500000
1756.026543	470.200000
1757.849592	454.750000
1759.670479	456.050000
1761.490978	460.050000
1763.312857	445.750000
1765.129038	436.500000
1766.948370	448.150000
1768.763774	458.050000
1770.582330	466.900000
1772.396960	457.900000
1774.211203	455.800000
1776.025060	445.150000
1777.838530	456.500000
1779.649847	448.500000
1781.462544	465.100000
1783.274856	451.150000
1785.083249	448.850000
1786.893024	448.500000
1788.698884	463.450000
1790.507889	430.500000
1792.312981	444.750000
1794.119454	434.900000
1795.925543	437.400000
1797.727721	453.250000
1799.533044	444.100000
1801.334458	437.950000
1803.137252	435.950000
1804.936140	432.150000
1806.736409	431.550000
1808.536296	431.700000
1810.334041	447.850000
1812.131406	447.050000
1813.928391	444.300000
1815.724995	442.850000
1817.519460	449.150000
1819.315304	441.100000
1821.105493	438.300000
1822.900579	421.650000
1824.690013	440.900000
1826.482583	415.900000
1828.273018	447.050000
1830.061319	420.750000
1831.852755	440.300000
1833.638545	418.150000
1835.425715	428.750000
1837.210753	427.600000
1838.998925	424.750000
1840.783211	440.550000
1842.565367	423.750000
1844.348903	431.450000
1846.130310	437.850000
1847.913096	439.350000
1849.692001	426.950000
1851.472285	452.600000
1853.250444	454.050000
1855.029981	428.500000
1856.807392	441.350000
1858.582681	438.000000
1860.359347	423.600000
1862.133891	431.800000
1863.909813	426.850000
1865.680114	424.600000
1867.453543	427.850000
1869.224852	435.550000
1870.995790	431.350000
1872.768106	433.900000
1874.534808	430.850000
1876.304635	428.100000
1878.070599	420.250000
1879.839687	428.200000
1881.604913	416.800000
1883.369771	426.200000
1885.136006	415.350000
1886.898382	412.700000
1888.660390	411.850000
1890.422032	420.650000
1892.183307	431.650000
1893.944214	434.150000
1895.704755	430.900000
1897.463186	421.150000
1899.221251	407.650000
1900.977209	410.350000
1902.734543	435.600000
1904.491512	405.300000
1906.246374	417.500000
1907.999132	418.000000
1909.751525	408.800000
1911.505295	396.850000
1913.256961	409.150000
1915.006525	432.550000
1916.757464	400.500000
1918.508041	425.350000
1920.254778	416.550000
1922.002892	428.750000
1923.748906	416.800000
1925.496295	394.600000
1927.241587	396.800000
1928.984781	410.300000
1930.729350	403.100000
1932.471823	395.500000
1934.213937	387.400000
1935.955690	424.300000
1937.697083	412.650000
1939.436383	411.750000
1941.175324	398.300000
1942.913906	437.850000
1944.650397	425.600000
1946.386530	424.675000
1948.124037	423.750000
1949.857722	409.450000
1951.592782	400.400000
1953.325753	416.150000
1955.058368	427.700000
1956.790627	416.100000
1958.522529	416.650000
1960.252345	419.950000
1961.980076	411.200000
1963.709182	403.150000
1965.437932	413.400000
1967.164600	408.900000
1968.890913	420.350000
1970.618599	399.200000
1972.340749	388.950000
1974.066000	415.700000
1975.787444	423.800000
1977.511989	399.550000
1979.234453	421.750000
1980.953115	433.900000
1982.674875	420.600000
1984.392833	412.600000
1986.112164	403.450000
1987.827696	416.550000
1989.548048	418.950000
1991.264602	411.300000
1992.977359	425.700000
1994.693212	426.300000
1996.406993	430.250000
1998.120424	406.850000
1999.831784	428.650000
2001.544516	418.900000
2003.253458	423.000000
2004.965492	411.100000
2006.672017	418.250000
2008.381635	412.900000
2010.089185	423.100000
2011.796388	422.650000
2013.501525	426.750000
2015.206316	384.100000
2016.912478	417.100000
2018.614858	413.600000
2020.318609	412.200000
2022.020298	403.250000
2023.721641	405.400000
2025.422640	397.450000
2027.121577	410.100000
2028.821886	424.050000
2030.518419	413.900000
2032.216324	423.450000
2033.912171	403.000000
2035.611103	418.050000
2037.304549	418.700000
2038.999366	413.850000
2040.693841	413.200000
2042.384547	419.450000
2044.078337	410.600000
2045.768360	402.000000
2047.459754	402.650000
2049.149095	400.200000
2050.839806	396.100000
2052.526754	393.500000
2054.213363	412.700000
2055.901341	411.050000
2057.585560	427.250000
2059.271150	404.550000
2060.956400	398.450000
2062.639601	411.050000
2064.324173	424.600000
2066.003281	409.950000
2067.687176	396.400000
2069.365609	397.850000
2071.047120	383.300000
2072.724879	381.050000
2074.402302	403.900000
2076.081094	390.550000
2077.757844	387.600000
2079.432551	394.950000
2081.108629	403.500000
2082.782665	396.300000
2084.456367	394.550000
2086.129733	369.600000
2087.801060	392.850000
2089.472053	394.250000
2091.142712	387.150000
2092.813037	399.050000
2094.483028	384.400000
2096.150983	387.050000
2097.818605	388.950000
2099.484192	394.700000
2101.151148	388.800000
2102.816071	380.100000
2104.480662	388.400000
2106.143221	387.050000
2107.807148	401.900000
2109.469044	396.150000
2111.130610	397.900000
2112.791844	405.450000
2114.451050	411.500000
2116.109925	413.150000
2117.768471	406.400000
2119.426686	416.500000
2121.081179	401.150000
2122.738736	412.100000
2124.395963	408.900000
2126.049470	408.100000
2127.704344	384.900000
2129.355499	384.600000
2131.009717	401.700000
2132.660217	377.800000
2134.312085	412.550000
2135.958544	397.200000
2137.609758	400.000000
2139.257258	401.850000
2140.906125	399.550000
2142.552973	382.550000
2144.199496	389.950000
2145.845693	396.450000
2147.488182	401.800000
2149.133729	387.550000
2150.775569	392.200000
2152.420466	375.350000
2154.061657	398.500000
2155.702526	400.500000
2157.343070	398.950000
2158.981602	387.300000
2160.621500	396.650000
2162.257698	401.850000
2163.895262	394.050000
2165.532504	384.900000
2167.167736	382.350000
2168.802646	392.000000
2170.437235	389.200000
2172.071503	394.700000
2173.702077	398.650000
2175.335703	377.900000
2176.965637	377.600000
2178.596936	378.250000
2180.226230	382.250000
2181.855205	380.600000
2183.483860	380.700000
2185.112196	391.700000
2186.738530	387.800000
2188.364545	389.850000
2189.988558	382.000000
2191.613937	392.700000
2193.237315	366.750000
2194.862058	377.600000
2196.483120	380.900000
2198.103865	381.200000
2199.725974	377.700000
2201.346086	369.850000
2202.964202	386.150000
2204.582002	367.750000
2206.199487	393.450000
2207.816656	377.950000
2209.433510	358.200000
2211.050048	350.600000
2212.664594	385.850000
2214.277147	376.800000
2215.891064	382.700000
2217.502990	380.100000
2219.116279	370.000000
2220.727578	368.050000
2222.336887	364.950000
2223.947560	366.950000
2225.556244	348.450000
2227.164615	378.900000
2228.771000	375.650000
2230.378747	361.400000
2231.984509	365.350000
2233.589959	361.950000
2235.193424	360.850000
2236.798252	380.350000
2238.401096	378.900000
2240.001957	371.450000
2241.604181	368.350000
2243.204423	391.400000
2244.806027	373.800000
2246.403978	375.750000
2248.003292	382.750000
2249.600626	379.100000
2251.197652	373.250000
2252.796040	379.550000
2254.390779	366.950000
2255.983541	368.450000
2257.577666	376.900000
2259.173152	374.850000
2260.764993	376.050000
2262.356528	378.650000
2263.949425	367.050000
2265.537012	368.150000
2267.129295	381.300000
2268.716272	369.000000
2270.306276	373.200000
2271.890976	358.800000
2273.480370	360.500000
2275.064462	373.500000
2276.649914	365.250000
2278.233398	369.400000
2279.819907	363.700000
2281.402783	366.500000
2282.985356	349.000000
2284.567625	369.600000
2286.146264	361.550000
2287.727928	344.900000
2289.305963	364.200000
2290.887021	358.300000
2292.464452	354.250000
2294.039920	350.200000
2295.618410	358.850000
2297.193276	347.950000
2298.767841	348.450000
2300.342105	351.200000
2301.916070	345.200000
2303.489733	348.950000
2305.063097	337.700000
2306.632842	351.500000
2308.202288	383.550000
2309.774752	347.900000
2311.341942	346.400000
2312.912150	347.300000
2314.478743	353.150000
2316.046696	353.950000
2317.612693	360.950000
2319.178393	336.400000
2320.743795	340.500000
2322.307244	359.400000
2323.872052	345.550000
2325.433252	366.450000
2326.997466	363.050000
2328.556418	361.500000
2330.118384	363.700000
2331.678400	361.350000
2333.238121	331.300000
2334.795892	355.150000
2336.353368	348.900000
2337.910550	362.200000
2339.465784	354.650000
2341.020725	359.800000
2342.575371	350.350000
2344.129724	359.200000
2345.683783	353.650000
2347.237549	336.550000
2348.789370	346.200000
2350.339249	330.250000
2351.892135	353.800000
2353.439778	340.350000
2354.990430	340.500000
2356.537490	343.350000
2358.085908	330.300000
2359.634035	331.350000
2361.178573	341.800000
2362.724469	331.750000
2364.268427	346.200000
2365.813741	345.500000
2367.355472	342.050000
2368.898559	345.150000
2370.439710	345.500000
2371.980572	344.800000
2373.521145	321.750000
2375.061429	348.600000
2376.601424	344.300000
2378.137841	342.150000
2379.677259	350.700000
2381.213099	335.400000
2382.750297	328.950000
2384.283919	344.500000
2385.820541	329.600000
2387.355233	332.350000
2388.887995	334.300000
2390.420470	355.450000
2391.951017	324.900000
2393.484562	342.350000
2395.012896	349.600000
2396.542586	319.050000
2398.071991	346.500000
2399.601111	322.400000
2401.129945	345.050000
2402.653575	346.150000
2404.181840	331.750000
2405.704903	334.250000
2407.232599	338.550000
2408.753456	339.200000
2410.278945	328.750000
2411.800875	317.000000
2413.324159	327.350000
2414.845523	342.300000
2416.364967	345.350000
2417.885766	339.000000
2419.404646	340.350000
2420.923245	346.200000
2422.439926	341.150000
2423.957961	335.650000
2425.475715	340.600000
2426.989917	346.550000
2428.503840	337.300000
2430.017482	331.450000
2431.532479	324.600000
2433.043927	334.500000
2434.556729	343.650000
2436.067619	327.050000
2437.578230	331.600000
2439.086929	321.800000
2440.598614	330.950000
2442.106756	342.050000
2443.614620	334.350000
2445.122206	317.550000
2446.626251	323.300000
2448.133281	321.950000
2449.638403	312.200000
2451.143248	338.250000
2452.646186	325.300000
2454.148848	318.150000
2455.651233	318.400000
2457.151713	303.300000
2458.653546	309.750000
2460.153474	311.700000
2461.653127	335.000000
2463.152505	324.450000
2464.649980	315.600000
2466.145553	322.400000
2467.644106	321.250000
2469.139131	312.050000
2470.635508	319.750000
2472.128359	310.650000
2473.622563	301.350000
2475.116493	303.550000
2476.606899	295.900000
2478.100283	311.100000
2479.591769	319.900000
2481.081358	316.700000
2482.570675	308.100000
2484.058096	321.750000
2485.548493	310.000000
2487.035372	297.350000
2488.523602	309.400000
2490.008315	332.900000
2491.492759	296.550000
2492.978553	296.200000
2494.462456	300.450000
2495.947709	299.200000
2497.427829	334.250000
2498.910922	322.300000
2500.392124	311.750000
2501.873057	316.750000
2503.352101	322.300000
2504.830876	324.800000
2506.309383	294.850000
2507.787622	302.300000
2509.265592	311.700000
2510.740057	312.850000
2512.217492	324.300000
2513.691423	305.300000
2515.166704	310.150000
2516.641718	306.450000
2518.113231	304.650000
2519.586095	313.750000
2521.057076	309.700000
2522.529407	301.100000
2523.996624	315.950000
2525.466808	305.000000
2526.935111	325.600000
2528.403149	308.450000
2529.870922	303.900000
2531.338430	310.350000
2532.805673	308.800000
2534.269424	308.700000
2535.734525	304.450000
2537.197749	315.950000
2538.662322	324.450000
2540.123407	311.400000
2541.585841	302.750000
2543.048012	304.000000
2544.506697	310.950000
2545.969953	305.200000
2547.428114	290.650000
2548.887623	315.150000
2550.342038	314.300000
2551.801024	301.600000
2553.258138	294.700000
2554.713380	301.950000
2556.168362	300.650000
2557.621475	294.700000
2559.075935	298.350000
2560.528527	303.000000
2561.980859	303.850000
2563.431324	307.450000
2564.884744	301.400000
2566.333082	310.200000
2567.784375	294.050000
2569.233803	293.150000
2570.679758	302.300000
2572.128668	305.050000
2573.574108	305.250000
2575.020895	302.550000
2576.465819	298.600000
2577.910486	295.950000
2579.356500	314.900000
2580.799048	291.800000
2582.242943	289.350000
2583.683372	298.650000
2585.125150	300.100000
2586.565068	303.250000
2588.006333	294.300000
2589.444136	297.800000
2590.884889	297.050000
2592.320580	292.850000
2593.759220	312.000000
2595.196002	309.100000
2596.630929	294.550000
2598.068803	298.050000
2599.501620	295.350000
2600.935784	300.750000
2602.368094	285.350000
2603.801750	297.300000
2605.233553	294.350000
2606.665102	297.950000
2608.096399	286.600000
2609.525843	285.000000
2610.955035	300.700000
2612.382377	283.900000
2613.811064	302.950000
2615.239500	288.250000
2616.664488	294.150000
2618.090823	288.100000
2619.515309	289.800000
2620.941141	275.100000
2622.363529	289.450000
2623.787263	286.350000
2625.209150	294.650000
2626.630788	274.150000
2628.050580	278.250000
2629.471718	295.250000
2630.892606	276.600000
2632.310055	272.600000
2633.730445	304.250000
2635.147397	286.650000
2636.564100	283.350000
2637.980555	286.200000
2639.396762	288.650000
2640.812721	283.350000
2642.226839	289.600000
2643.640709	298.700000
2645.052741	300.200000
2646.466116	267.950000
2647.876062	281.300000
2649.288944	284.650000
2650.698397	282.000000
2652.107604	266.450000
2653.514975	291.400000
2654.925280	286.250000
2656.333750	282.600000
2657.740384	284.900000
2659.146773	296.450000
2660.551328	275.400000
2661.957227	267.300000
2663.361293	290.250000
2664.765114	293.650000
2666.168691	296.450000
2667.570437	271.200000
2668.973526	276.950000
2670.373197	271.150000
2671.774212	291.700000
2673.171811	286.850000
2674.572339	290.450000
2675.969453	289.400000
2677.367910	264.150000
2678.764540	276.550000
2680.160927	278.750000
2681.557072	285.700000
2682.951391	283.950000
2684.347053	286.600000
2685.739306	285.050000
2687.132901	268.300000
2688.524672	268.700000
2689.917786	279.250000
2691.309076	263.500000
2692.698543	286.250000
2694.087770	265.100000
2695.476758	273.100000
2696.867087	279.250000
2698.252433	291.900000
2699.640702	290.200000
2701.027151	279.850000
2702.413361	279.000000
2703.799332	270.550000
2705.181905	284.600000
2706.565820	278.450000
2707.949497	271.600000
2709.332935	279.750000
2710.712978	276.550000
2712.094363	286.000000
2713.473933	263.600000
2714.854843	270.800000
2716.233939	263.050000
2717.611221	269.500000
2718.989844	267.000000
2720.366653	267.050000
2721.743227	273.000000
2723.119565	271.400000
2724.494092	278.450000
2725.869959	269.150000
2727.242439	261.600000
2728.617835	254.050000
2729.988271	271.600000
2731.360048	282.950000
2732.731590	268.100000
2734.101324	292.900000
2735.472399	274.350000
2736.841665	274.400000
2738.210698	273.550000
2739.577925	270.500000
2740.944918	255.300000
2742.311679	256.450000
2743.678208	267.150000
2745.042931	267.500000
2746.407422	258.550000
2747.771682	265.350000
2749.135709	269.400000
2750.499505	256.050000
2751.859927	251.600000
2753.223259	263.650000
2754.581649	254.100000
2755.942949	267.300000
2757.300879	274.100000
2758.661717	253.050000
2760.020756	243.050000
2761.376426	265.400000
2762.735004	254.450000
2764.090215	253.050000
2765.445197	261.400000
2766.798382	247.950000
2768.154474	243.950000
2769.507202	251.200000
2770.859702	261.000000
2772.211973	272.550000
2773.565582	257.550000
2774.915831	256.650000
2776.264285	252.800000
2777.615644	259.250000
2778.963645	247.900000
2780.312983	256.450000
2781.660529	262.050000
2783.007849	253.200000
2784.354942	242.050000
2785.700243	252.950000
2787.045319	246.150000
2788.390169	258.600000
2789.734793	265.850000
2791.076065	245.850000
2792.418675	256.600000
2793.761059	248.750000
2795.103218	246.900000
2796.442028	263.150000
2797.783738	237.700000
2799.122099	256.850000
2800.461798	251.150000
2801.799712	259.150000
2803.135841	240.750000
2804.471746	238.800000
2805.808989	244.050000
2807.144448	243.950000
2808.479684	246.750000
2809.813137	246.300000
2811.147927	242.500000
2812.479377	230.850000
2813.813722	242.900000
2815.143169	241.850000
2816.473952	232.950000
2817.804515	251.600000
2819.133298	249.500000
2820.463417	243.250000
2821.791758	259.500000
2823.119878	251.250000
2824.446220	248.550000
2825.773899	256.500000
2827.098244	237.950000
2828.423926	229.400000
2829.747832	247.000000
2831.071518	243.300000
2832.396541	232.900000
2833.718233	242.600000
2835.039707	247.600000
2836.360962	241.450000
2837.681998	231.950000
2839.001261	258.800000
2840.321860	236.850000
2841.640688	236.950000
2842.959297	229.400000
2844.276135	243.300000
2845.592756	251.000000
2846.909160	245.750000
2848.223794	230.950000
2849.539764	236.150000
2850.852413	233.300000
2852.166397	243.500000
2853.480165	235.800000
2854.793716	235.450000
2856.105501	231.100000
2857.415519	242.400000
2858.726872	238.800000
2860.034910	226.800000
2861.344282	233.400000
2862.653440	222.450000
2863.962382	240.600000
2865.269560	239.300000
2866.574976	225.150000
2867.881725	225.050000
2869.186713	242.200000
2870.491486	242.550000
2871.794499	245.500000
2873.100392	226.200000
2874.401431	233.450000
2875.703804	253.400000
2877.004417	237.650000
2878.306364	242.500000
2879.608097	228.950000
2880.906527	228.400000
2882.206290	220.750000
2883.504296	230.300000
2884.802090	227.300000
2886.098128	240.350000
2887.395499	222.650000
2888.691114	227.750000
2889.986518	250.600000
2891.281711	231.400000
2892.573607	233.200000
2893.868379	230.650000
2895.159854	218.800000
2896.452662	242.700000
2897.745260	223.200000
2899.034564	227.950000
2900.325200	253.850000
2901.614085	231.050000
2902.904302	217.300000
2904.191228	232.550000
2905.479486	228.550000
2906.765995	235.700000
2908.052295	227.650000
2909.338388	227.700000
2910.622732	239.250000
2911.909947	200.100000
2913.192336	244.100000
2914.476057	241.750000
2915.758032	237.650000
2917.039799	208.200000
2918.319821	236.950000
2919.602714	216.900000
2920.883861	228.050000
2922.161726	243.600000
2923.442460	243.500000
2924.719913	221.450000
2925.997160	227.650000
2927.272665	218.000000
2928.551038	208.950000
2929.824597	214.800000
2931.101023	231.450000
2932.375708	226.450000
2933.648652	208.000000
2934.922928	227.250000
2936.195464	218.000000
2937.467795	225.200000
2938.736854	228.050000
2940.008778	226.900000
2941.278964	220.200000
2942.548946	207.650000
2943.818725	201.150000
2945.086768	228.950000
2946.353074	227.700000
2947.619179	214.400000
2948.886613	234.950000
2950.152312	209.500000
2951.417810	215.300000
2952.683105	224.850000
2953.945135	227.250000
2955.208495	212.750000
2956.471654	209.200000
2957.733081	227.300000
2958.995837	219.850000
2960.256861	229.150000
2961.516155	227.600000
2962.775249	211.750000
2964.034142	208.950000
2965.292835	215.450000
2966.551328	219.100000
2967.808092	214.750000
2969.064656	206.400000
2970.319492	222.150000
2971.575658	215.850000
2972.828569	202.300000
2974.082809	214.650000
2975.336849	214.200000
2976.589164	210.500000
2977.841281	233.250000
2979.091673	220.700000
2980.344920	223.850000
2981.593390	211.850000
2982.844715	204.600000
2984.092790	196.950000
2985.340668	206.000000
2986.588350	186.600000
2987.835834	224.500000
2989.081597	213.600000
2990.327164	214.950000
2991.574058	210.900000
2992.817708	196.700000
2994.062686	204.350000
2995.304420	215.750000
2996.549006	208.650000
2997.791873	192.900000
2999.031499	197.400000
3000.273975	211.450000
3001.513211	219.400000
3002.753775	207.600000
3003.992622	221.000000
3005.231275	202.650000
3006.468212	205.300000
3007.706477	219.600000
3008.943026	203.700000
3010.179382	198.850000
3011.415544	203.000000
3012.649992	225.100000
3013.884248	208.600000
3015.118310	212.000000
3016.350659	201.500000
3017.581298	213.200000
3018.814782	190.500000
3020.046554	204.450000
3021.276616	203.400000
3022.506485	210.200000
3023.734645	181.150000
3024.964132	196.600000
3026.191909	197.450000
3027.419495	202.550000
3028.648407	198.300000
3029.872578	198.050000
3031.099591	206.950000
3032.323380	202.600000
3033.548496	203.300000
3034.771905	177.350000
3035.995124	197.150000
3037.216638	192.500000
3038.440993	195.300000
3039.660613	201.950000
3040.881559	186.350000
3042.102316	204.650000
3043.321369	197.500000
3044.541747	208.050000
3045.758909	197.600000
3046.977397	205.800000
3048.194182	188.300000
3049.410780	180.050000
3050.627189	197.400000
3051.840385	203.750000
3053.056420	202.150000
3054.269242	190.750000
3055.484901	201.000000
3056.695837	198.950000
3057.908098	190.300000
3059.120172	193.750000
3060.332060	191.350000
3061.542251	194.950000
3062.752255	199.450000
3063.962073	171.450000
3065.170195	207.850000
3066.378132	196.850000
3067.584373	207.650000
3068.791939	189.800000
3069.997810	193.925000
3071.203497	198.050000
3072.408998	201.750000
3073.612806	198.050000
3074.817938	190.950000
3076.021377	185.400000
3077.223125	206.800000
3078.424688	187.200000
3079.626068	195.300000
3080.827264	187.000000
3082.026770	179.550000
3083.226093	183.950000
3084.426739	178.650000
3085.625695	178.100000
3086.821457	176.800000
3088.020048	186.000000
3089.215445	183.800000
3090.412165	186.050000
3091.605693	186.600000
3092.802049	176.850000
3093.996718	176.500000
3095.188197	182.500000
3096.384008	176.500000
3097.575124	189.750000
3098.767564	176.350000
3099.956816	184.650000
3101.148893	181.400000
3102.339287	180.700000
3103.526495	174.750000
3104.715025	191.200000
3105.904878	176.000000
3107.091547	173.950000
3108.278035	183.650000
3109.464345	173.700000
3110.651976	178.850000
3111.836425	197.200000
3113.019195	176.850000
3114.204787	180.200000
3115.388700	169.700000
3116.570934	181.300000
3117.752989	165.000000
3118.934866	169.300000
3120.116565	181.250000
3121.296587	186.050000
3122.474932	163.850000
3123.656097	186.600000
3124.834087	181.050000
3126.011900	180.300000
3127.189536	172.550000
3128.365498	163.500000
3129.541282	183.900000
3130.718388	178.550000
3131.893819	163.000000
3133.067577	177.950000
3134.239662	168.350000
3135.413069	161.950000
3136.586299	173.500000
3137.757858	163.300000
3138.930737	179.050000
3140.100449	156.900000
3141.271482	170.300000
3142.440845	182.200000
3143.608537	172.500000
3144.779045	173.850000
3145.944895	179.350000
3147.115053	175.100000
3148.280555	178.250000
3149.445882	171.600000
3150.611036	172.600000
3151.776017	172.600000
3152.942317	169.350000
3154.103965	171.700000
3155.266932	176.600000
3156.429727	162.350000
3157.592349	160.400000
3158.753305	163.000000
3159.914090	157.900000
3161.074702	159.200000
3162.233650	139.450000
3163.392427	168.100000
3164.551031	160.800000
3165.709464	165.750000
3166.867726	153.700000
3168.024325	164.400000
3169.179263	163.000000
3170.335520	148.200000
3171.490116	161.150000
3172.644542	145.750000
3173.797308	173.300000
3174.949903	162.000000
3176.102329	164.500000
3177.254585	155.000000
3178.406670	164.650000
3179.555609	164.250000
3180.707356	155.000000
3181.857444	152.450000
3183.005876	163.200000
3184.154138	164.050000
3185.302232	153.750000
3186.450157	149.050000
3187.596426	169.450000
3188.742527	164.350000
3189.886974	169.400000
3191.031253	165.550000
3192.175364	157.300000
3193.320792	162.150000
3194.463082	154.350000
3195.605205	167.350000
3196.747160	158.250000
3197.888948	155.000000
3199.030569	167.000000
3200.169055	148.300000
3201.308858	157.450000
3202.449978	165.650000
3203.587965	162.650000
3204.724302	165.900000
3205.860473	158.300000
3206.997961	168.750000
3208.133801	150.050000
3209.270958	147.900000
3210.403502	159.200000
3211.540328	166.100000
3212.672542	154.200000
3213.806073	183.150000
3214.939440	157.250000
3216.069679	154.750000
3217.202716	161.250000
3218.332627	151.200000
3219.463854	148.600000
3220.591957	156.500000
3221.722856	161.600000
3222.852111	146.200000
3223.979723	168.850000
3225.104212	149.600000
3226.232977	136.450000
3227.358620	153.200000
3228.484101	158.150000
3229.607939	138.900000
3230.734573	135.350000
3231.856609	148.850000
3232.979961	147.750000
3234.103151	154.450000
3235.226178	131.250000
3236.347567	169.100000
3237.468793	144.900000
3238.588382	149.600000
3239.707809	157.450000
3240.825598	157.100000
3241.946179	155.000000
3243.063647	154.300000
3244.180954	153.750000
3245.298101	151.500000
3246.413611	149.600000
3247.530437	150.150000
3248.644153	154.750000
3249.760658	140.750000
3250.875529	152.150000
3251.987290	144.500000
3253.098893	153.150000
3254.211811	149.000000
3255.324569	141.150000
3256.434221	150.650000
3257.545188	160.150000
3258.655996	139.350000
3259.765172	149.500000
3260.872717	141.500000
3261.981577	150.450000
3263.090279	137.900000
3264.195878	140.750000
3265.302791	137.850000
3266.408075	145.000000
3267.514673	150.700000
3268.618171	158.450000
3269.722984	149.650000
3270.827638	148.300000
3271.929195	137.650000
3273.030595	138.550000
3274.133309	132.900000
3275.235867	152.200000
3276.335328	155.300000
3277.437573	146.800000
3278.536722	161.400000
3279.634247	140.550000
3280.731616	151.450000
3281.831767	134.350000
3282.928826	155.750000
3284.025729	140.750000
3285.122477	148.000000
3286.214666	138.300000
3287.311105	150.050000
3288.405921	147.950000
3289.500583	147.350000
3290.593623	145.200000
3291.686508	154.700000
3292.777773	148.300000
3293.870351	134.600000
3294.961309	150.200000
3296.050647	133.250000
3297.139832	135.700000
3298.230330	136.750000
3299.317743	150.350000
3300.405003	152.800000
3301.493576	157.100000
3302.581996	145.750000
3303.665870	149.050000
3304.753985	149.800000
3305.839018	146.750000
3306.922436	140.950000
3308.007166	134.500000
3309.090280	149.200000
3310.174707	144.650000
3311.256055	140.250000
3312.338715	143.850000
3313.419761	142.100000
3314.500656	143.350000
3315.579937	145.100000
3316.659068	143.850000
3317.739511	134.950000
3318.816879	131.900000
3319.895559	146.600000
3320.972627	130.700000
3322.049546	142.000000
3323.124853	132.300000
3324.200011	126.550000
3325.276480	144.850000
3326.349879	130.950000
3327.423128	138.150000
3328.497689	138.250000
3329.570641	140.900000
3330.641984	143.550000
3331.714638	125.700000
3332.784226	120.500000
3333.855124	132.800000
3334.924415	124.300000
3335.995017	135.850000
3337.064012	145.200000
3338.131401	138.400000
3339.197185	127.600000
3340.267195	126.450000
3341.334142	145.250000
3342.398027	141.100000
3343.464679	123.600000
3344.529728	131.450000
3345.593173	140.950000
3346.656472	127.300000
3347.719624	137.600000
3348.782630	133.450000
3349.845490	137.100000
3350.906748	138.700000
3351.964949	136.750000
3353.027370	125.550000
3354.086736	130.050000
3355.145956	133.450000
3356.206485	120.850000
3357.262506	130.550000
3358.321290	131.150000
3359.375567	137.250000
3360.432608	134.650000
3361.488050	135.700000
3362.544802	150.600000
3363.599955	138.950000
3364.653511	133.600000
3365.705471	140.900000
3366.760192	118.000000
3367.811864	129.000000
3368.863393	125.600000
3369.916230	147.500000
3370.966020	130.800000
3372.017119	139.000000
3373.065172	136.350000
3374.115984	138.500000
3375.163752	128.950000
3376.211376	133.850000
3377.258859	136.900000
3378.304749	125.100000
3379.351947	126.650000
3380.396103	122.100000
3381.443017	114.450000
3382.488339	119.800000
3383.530620	138.350000
3384.572760	127.650000
3385.616209	127.800000
3386.659516	119.800000
3387.701233	131.150000
3388.742810	127.500000
3389.784245	141.100000
3390.824092	137.700000
3391.862350	124.950000
3392.901916	138.400000
3393.941342	133.050000
3394.979180	131.700000
3396.015431	140.400000
3397.051543	130.200000
3398.088962	131.500000
3399.123348	131.400000
3400.159041	123.450000
3401.194595	133.650000
3402.227118	127.450000
3403.262394	117.000000
3404.294639	129.200000
3405.326746	123.350000
3406.357269	113.200000
3407.389099	129.100000
3408.420791	121.350000
3409.449455	119.850000
3410.477982	120.450000
3411.507815	124.000000
3412.537511	127.450000
3413.564181	131.850000
3414.592157	117.200000
3415.617110	132.900000
3416.644812	136.100000
3417.669491	119.250000
3418.695476	114.150000
3419.719881	127.950000
3420.744150	119.750000
3421.766840	122.900000
3422.789394	130.900000
3423.813254	127.950000
3424.834094	122.600000
3425.854798	132.550000
3426.876809	134.700000
3427.895801	117.900000
3428.914657	124.550000
3429.934820	108.500000
3430.951966	122.250000
