-118.304647	-3.750000
-115.635047	13.150000
-112.968382	6.350000
-110.302469	-0.900000
-107.639489	1.600000
-104.975078	-9.050000
-102.313598	-4.600000
-99.650689	-0.600000
-96.992886	-7.950000
-94.333654	7.100000
-91.675170	9.650000
-89.019611	7.450000
-86.362622	9.300000
-83.710732	0.950000
-81.057412	-0.050000
-78.407011	10.950000
-75.755182	11.600000
-73.108442	6.750000
-70.460274	0.850000
-67.812848	5.150000
-65.168337	1.200000
-62.522396	5.150000
-59.881537	-3.100000
-57.239249	22.400000
-54.599870	10.650000
-51.959061	5.950000
-49.318993	8.200000
-46.683998	2.800000
-44.047573	-4.750000
-41.414051	12.600000
-38.779101	-5.150000
-36.149216	-1.300000
-33.515739	7.100000
-30.887324	12.400000
-28.259643	8.150000
-25.630533	8.800000
-23.006480	8.150000
-20.378838	14.250000
-17.756249	19.900000
-15.134392	11.400000
-12.513265	36.750000
-9.892869	88.050000
-7.275360	294.400000
-4.656423	962.900000
-2.040371	2980.800000
0.574952	4429.700000
3.189547	2369.350000
5.801261	380.350000
8.414403	50.050000
11.022511	22.050000
13.634201	14.450000
16.240860	24.600000
18.848947	17.300000
21.456310	10.550000
24.058648	3.550000
26.664564	4.150000
29.265458	7.600000
31.867780	5.700000
34.465085	-4.900000
37.065965	-4.400000
39.661830	0.750000
42.259124	28.650000
44.855698	1.150000
47.447263	8.850000
50.040256	4.550000
52.630388	-0.350000
55.221947	0.100000
57.810648	10.500000
60.400775	15.400000
62.985903	4.750000
65.572459	3.400000
68.158301	19.000000
70.741289	-8.850000
73.325703	10.450000
75.902989	-2.600000
78.483841	18.000000
81.061844	3.900000
83.639137	10.850000
86.217856	0.000000
88.791593	10.150000
91.366758	-2.500000
93.939079	7.500000
96.510692	4.400000
99.079465	10.150000
101.649665	9.800000
104.217026	22.700000
106.785814	6.350000
109.351765	13.200000
111.914881	25.800000
114.481553	19.250000
117.039004	34.800000
119.602140	57.150000
122.160316	111.950000
124.722047	260.100000
127.278821	446.950000
129.837021	550.950000
132.390269	479.950000
134.942819	439.450000
137.498919	507.200000
140.050071	608.650000
142.600526	727.550000
145.150283	854.050000
147.697221	892.300000
150.243464	914.300000
152.791132	882.100000
155.338104	862.050000
157.880141	834.450000
160.421484	847.300000
162.962134	896.250000
165.504210	932.500000
168.043474	1006.250000
170.579930	1066.600000
173.115694	1169.750000
175.652884	1278.750000
178.189383	1399.750000
180.723076	1595.800000
183.253965	1839.750000
185.784166	2122.800000
188.315793	2563.400000
190.844618	3068.500000
193.370644	3804.000000
195.895984	4552.400000
198.422749	5427.250000
200.946718	6335.650000
203.470002	7012.900000
205.992601	7245.050000
208.512407	7009.900000
211.031529	6420.650000
213.549970	5678.000000
216.069834	4799.200000
218.582697	3967.350000
221.099091	3287.250000
223.614803	2769.900000
226.125625	2382.250000
228.637872	2062.000000
231.147337	1802.300000
233.656122	1603.900000
236.164230	1471.450000
238.673762	1326.850000
241.178413	1262.650000
243.682388	1149.250000
246.187787	1085.950000
248.688311	1084.950000
251.192358	1052.400000
253.689435	1012.500000
256.190035	1027.350000
258.687863	1160.350000
261.185018	1404.400000
263.681500	1679.200000
266.173119	1632.850000
268.668258	1234.900000
271.160630	878.700000
273.652332	730.250000
276.141271	666.850000
278.631633	644.450000
281.119234	600.700000
283.604075	594.100000
286.092431	546.900000
288.573847	550.700000
291.058777	538.050000
293.538862	540.500000
296.022459	533.950000
298.501213	528.950000
300.981390	536.100000
303.458816	516.250000
305.935578	541.750000
308.411676	524.700000
310.885027	530.300000
313.357715	519.200000
315.829742	539.000000
318.301108	553.800000
320.769729	559.200000
323.237692	555.350000
325.707076	550.000000
328.171638	545.650000
330.639704	551.050000
333.102950	532.300000
335.565538	549.150000
338.027470	556.700000
340.488745	581.650000
342.947286	638.150000
345.407249	697.950000
347.864479	852.850000
350.321055	1234.550000
352.776977	1858.250000
355.230169	2184.400000
357.684784	1720.250000
360.134597	1016.800000
362.587906	664.350000
365.036416	573.450000
367.484276	547.900000
369.933558	533.000000
372.378046	501.250000
374.823956	502.600000
377.269216	503.500000
379.711758	534.500000
382.153652	538.400000
384.594899	590.400000
387.033430	708.550000
389.473382	959.800000
391.910622	1319.500000
394.345149	1456.650000
396.783164	1171.250000
399.216402	875.950000
401.651061	865.850000
404.080948	872.000000
406.514320	753.550000
408.942922	638.450000
411.370882	593.050000
413.800264	615.750000
416.224880	630.800000
418.650918	639.700000
421.076315	649.350000
423.501072	673.250000
425.921071	705.550000
428.342490	739.300000
430.761214	759.150000
433.181358	782.050000
435.598807	860.950000
438.017676	951.500000
440.433852	1069.300000
442.845280	1238.700000
445.260185	1511.750000
447.672401	1935.500000
450.083982	2491.300000
452.494929	3523.450000
454.903190	5305.050000
457.310818	8757.550000
459.717814	14762.450000
462.124179	22349.000000
464.527861	26849.700000
466.930913	23564.800000
469.333335	15798.900000
471.735127	9540.350000
474.134241	6148.050000
476.534775	4371.250000
478.934680	3382.600000
481.329863	2766.150000
483.728512	2317.350000
486.122440	2000.200000
488.515743	1778.000000
490.908421	1650.750000
493.300473	1491.900000
495.693943	1356.450000
498.082701	1287.100000
500.468793	1208.200000
502.856305	1196.150000
505.243194	1270.400000
507.627419	1432.600000
510.013062	1433.950000
512.396044	1222.050000
514.776365	1024.850000
517.158105	901.000000
519.537186	840.650000
521.917686	814.950000
524.295528	790.050000
526.670714	757.300000
529.045284	742.750000
531.421271	744.000000
533.794606	718.700000
536.169358	725.850000
538.539425	710.300000
540.908876	671.000000
543.279745	666.000000
545.645933	646.150000
548.013540	663.150000
550.378502	634.800000
552.742850	626.000000
555.106585	595.750000
557.471738	583.000000
559.832219	587.050000
562.194118	581.600000
564.553376	553.000000
566.909996	576.150000
569.270062	579.600000
571.623436	577.700000
573.980255	549.450000
576.334439	561.450000
578.688014	565.500000
581.040982	565.400000
583.391317	554.200000
585.743070	539.600000
588.088146	570.850000
590.438685	540.500000
592.782552	542.050000
595.131880	576.050000
597.476559	546.700000
599.818614	536.850000
602.162086	549.650000
604.502935	529.750000
606.843181	541.050000
609.180808	517.600000
611.521869	519.000000
613.858292	498.750000
616.196132	494.650000
618.531355	525.200000
620.863962	518.150000
623.197985	510.100000
625.529394	505.450000
627.860205	513.850000
630.190419	482.250000
632.520034	499.750000
634.845026	500.800000
637.175460	514.900000
639.501273	500.300000
641.824478	503.700000
644.149100	506.600000
646.471116	502.500000
648.792538	482.350000
651.111358	482.700000
653.431593	487.250000
655.751235	489.950000
658.068276	467.350000
660.384725	481.750000
662.698576	468.700000
665.013843	479.600000
667.326513	472.200000
669.640598	469.100000
671.950083	481.250000
674.260984	500.950000
676.569292	482.200000
678.877012	501.500000
681.186146	498.700000
683.490688	523.200000
685.794644	520.100000
688.098014	567.050000
690.402798	633.800000
692.702995	700.800000
695.004608	756.250000
697.305635	755.500000
699.602081	661.600000
701.899942	609.700000
704.197219	537.700000
706.493913	514.200000
708.786031	512.100000
711.081560	492.400000
713.372515	492.100000
715.664885	478.350000
717.954680	478.000000
720.243894	478.300000
722.532529	479.200000
724.818591	455.550000
727.106068	480.650000
729.390973	459.650000
731.675301	490.900000
733.957060	463.600000
736.240233	478.850000
738.522829	468.450000
740.800869	470.650000
743.080324	488.300000
745.359202	477.450000
747.637506	460.000000
749.911260	488.850000
752.186427	464.950000
754.461021	454.150000
756.733056	471.200000
759.006504	464.550000
761.277394	474.500000
763.545728	449.750000
765.815475	477.150000
768.082667	476.050000
770.349290	505.800000
772.615342	496.600000
774.878843	485.150000
777.143757	476.700000
779.408101	495.750000
781.667916	496.100000
783.929143	511.150000
786.189803	506.550000
788.447917	497.550000
790.703486	545.700000
792.962446	571.350000
795.214906	614.750000
797.472734	639.050000
799.726043	691.100000
801.976812	757.900000
804.228993	871.800000
806.478635	1085.550000
808.729690	1168.650000
810.976233	1072.850000
813.224188	882.300000
815.469609	712.500000
817.716441	652.900000
819.962712	591.550000
822.204478	550.200000
824.449628	515.900000
826.688305	509.450000
828.930364	536.550000
831.167925	526.400000
833.406898	533.650000
835.643344	512.550000
837.881201	528.950000
840.116533	520.500000
842.349342	533.100000
844.583562	526.750000
846.815259	510.050000
849.046402	505.400000
851.276990	511.850000
853.507024	531.700000
855.736504	498.350000
857.961502	519.800000
860.189875	502.150000
862.413768	495.600000
864.639073	491.250000
866.859902	512.800000
869.084103	488.950000
871.303831	519.650000
873.524969	501.800000
875.745557	498.650000
877.963636	490.550000
880.183124	513.250000
882.398146	508.200000
884.612620	529.050000
886.826547	524.250000
889.039927	520.000000
891.252759	529.450000
893.465045	504.350000
895.674828	489.150000
897.884066	504.250000
900.092759	524.300000
902.298952	498.400000
904.506556	505.750000
906.711661	495.600000
908.916223	510.850000
911.118290	486.700000
913.321766	507.950000
915.522748	507.100000
917.723188	520.850000
919.925037	506.650000
922.120495	504.200000
924.319312	527.250000
926.513690	509.300000
928.711426	498.200000
930.904726	511.750000
933.099435	480.150000
935.291658	504.700000
937.483342	495.650000
939.674489	478.200000
941.863153	472.450000
944.051281	500.350000
946.236928	458.450000
948.425927	483.050000
950.610503	472.300000
952.794544	473.500000
954.981935	495.450000
957.161022	490.150000
959.343460	500.400000
961.525364	487.850000
963.704793	491.700000
965.881750	486.850000
968.060115	483.250000
970.239887	496.100000
972.413310	475.150000
974.590079	477.950000
976.762441	481.950000
978.936211	483.000000
981.105577	477.800000
983.278287	481.100000
985.448532	483.550000
987.618247	482.150000
989.787435	468.000000
991.952225	480.700000
994.120356	468.300000
996.284092	486.900000
998.449236	463.000000
1000.611920	468.350000
1002.774079	485.350000
1004.933781	475.350000
1007.092958	485.450000
1009.253542	472.000000
1011.411671	476.900000
1013.569277	488.850000
1015.726359	490.050000
1017.882917	479.500000
1020.035096	471.050000
1022.188682	469.300000
1024.341746	471.100000
1026.492361	488.650000
1028.644383	467.800000
1030.792031	493.650000
1032.943011	491.300000
1035.089620	479.750000
1037.235710	492.950000
1039.381282	500.550000
1041.528259	497.100000
1043.668947	496.700000
1045.812965	488.250000
1047.954542	477.650000
1050.095603	485.400000
1052.238068	493.150000
1054.374253	501.250000
1056.513765	516.450000
1058.648922	501.000000
1060.787403	520.900000
1062.921530	538.900000
1065.055144	537.700000
1067.190162	548.650000
1069.320832	545.350000
1071.452906	545.350000
1073.582551	539.400000
1075.711684	527.050000
1077.840305	565.350000
1079.968415	557.100000
1082.094099	601.650000
1084.219273	564.150000
1086.345851	545.450000
1088.468091	486.100000
1090.591736	505.450000
1092.711046	497.750000
1094.835585	502.650000
1096.953880	485.350000
1099.073579	494.700000
1101.190859	470.550000
1103.307632	491.750000
1105.423900	469.300000
1107.537751	451.450000
1109.653007	474.800000
1111.763939	489.600000
1113.878184	485.900000
1115.988108	476.350000
1118.099436	464.500000
1120.210259	475.950000
1122.316766	461.150000
1124.426582	482.500000
1126.532085	480.450000
1128.638990	456.100000
1130.739680	473.750000
1132.845582	492.650000
1134.947175	488.000000
1137.050171	507.500000
1139.152666	503.550000
1141.248954	507.850000
1143.350449	528.750000
1145.447642	547.850000
1147.544337	564.650000
1149.640533	583.500000
1151.736231	667.950000
1153.831432	756.500000
1155.924236	863.000000
1158.018442	1011.600000
1160.106457	1082.100000
1162.199671	1048.950000
1164.286696	912.450000
1166.377020	726.850000
1168.463056	621.850000
1170.552391	578.300000
1172.635544	524.050000
1174.720099	498.850000
1176.806056	494.600000
1178.887731	476.300000
1180.970807	491.150000
1183.051498	482.050000
1185.131698	494.450000
1187.211406	483.050000
1189.290623	489.400000
1191.367458	470.700000
1193.441911	477.650000
1195.519657	471.350000
1197.593133	479.950000
1199.668009	479.350000
1201.738618	466.550000
1203.810628	483.350000
1205.880263	477.250000
1207.951297	460.350000
1210.021845	477.100000
1212.088131	496.450000
1214.155818	470.250000
1216.221133	493.050000
1218.287848	510.350000
1220.350307	501.400000
1222.416051	494.350000
1224.477541	514.150000
1226.540432	533.550000
1228.600955	519.950000
1230.660994	522.400000
1232.720550	507.100000
1234.777742	506.600000
1236.834452	486.050000
1238.888798	483.350000
1240.946426	485.850000
1243.001691	462.800000
1245.052715	483.900000
1247.105139	462.950000
1249.157083	469.500000
1251.206669	464.350000
1253.255776	462.100000
1255.304404	469.600000
1257.352554	466.700000
1259.400226	463.750000
1261.443667	470.550000
1263.490384	455.750000
1265.534747	460.850000
1267.578634	477.250000
1269.620169	458.700000
1271.659355	453.500000
1273.701814	451.700000
1275.740050	464.000000
1277.779685	456.750000
1279.818845	445.300000
1281.853786	460.650000
1283.890126	446.400000
1285.924122	449.250000
1287.959515	456.300000
1289.990696	457.850000
1292.023274	442.950000
1294.055381	448.300000
1296.085147	466.000000
1298.116310	467.150000
1300.143267	441.350000
1302.171621	470.850000
1304.195770	458.800000
1306.223185	440.550000
1308.246397	445.600000
1310.271007	447.100000
1312.293283	449.950000
1314.316956	441.650000
1316.338295	447.600000
1318.359168	451.950000
1320.379573	448.850000
1322.395785	457.850000
1324.413394	458.650000
1326.428675	446.450000
1328.447215	456.900000
1330.461566	460.950000
1332.473590	448.900000
1334.488873	468.350000
1336.499970	450.450000
1338.512464	453.500000
1340.520775	443.700000
1342.532341	442.400000
1344.537869	462.900000
1346.546652	458.650000
1348.551257	455.300000
1350.559116	450.700000
1352.566513	457.800000
1354.567879	456.200000
1356.570641	447.050000
1358.572944	446.050000
1360.574787	435.550000
1362.576170	444.400000
1364.575240	438.050000
1366.573851	441.250000
1368.572003	446.750000
1370.569698	426.200000
1372.563230	422.700000
1374.558157	445.200000
1376.552628	437.700000
1378.546642	431.550000
1380.538349	442.250000
1382.529600	427.500000
1384.518546	422.700000
1386.508888	428.350000
1388.498774	414.850000
1390.486356	431.750000
1392.473485	423.550000
1394.458312	428.300000
1396.444534	441.000000
1398.428455	436.100000
1400.411924	416.500000
1402.394941	440.050000
1404.375660	429.600000
1406.357773	454.850000
1408.337590	436.550000
1410.316955	423.000000
1412.292182	438.700000
1414.270647	430.850000
1416.246819	442.000000
1418.222541	419.250000
1420.197815	415.650000
1422.170797	431.850000
1424.143331	433.600000
1426.115417	424.800000
1428.087056	418.300000
1430.054566	446.600000
1432.027150	431.300000
1433.991928	415.850000
1435.961779	402.250000
1437.927506	429.650000
1439.894625	436.700000
1441.859461	439.250000
1443.820177	433.550000
1445.785961	434.450000
1447.745790	419.350000
1449.707013	440.450000
1451.669627	431.050000
1453.628127	416.000000
1455.586185	431.600000
1457.543801	430.100000
1459.500974	405.950000
1461.455872	446.850000
1463.412163	405.750000
1465.366179	426.550000
1467.319754	412.200000
1469.271057	427.850000
1471.223753	425.700000
1473.174176	420.800000
1475.124161	410.450000
1477.073707	433.850000
1479.020984	425.100000
1480.965993	421.050000
1482.912395	428.500000
1484.858359	408.900000
1486.803886	430.350000
1488.747147	417.050000
1490.689973	419.550000
1492.630534	422.300000
1494.572488	438.250000
1496.512179	413.450000
1498.451435	395.000000
1500.390257	415.350000
1502.326819	420.700000
1504.264772	413.550000
1506.200466	410.000000
1508.135727	426.000000
1510.068731	405.500000
1512.001304	434.300000
1513.933444	409.400000
1515.865152	397.600000
1517.794606	398.950000
1519.725451	420.950000
1521.655864	391.750000
1523.582205	413.400000
1525.509936	410.900000
1527.435418	422.600000
1529.360470	417.350000
1531.285093	404.650000
1533.209286	402.500000
1535.131233	401.750000
1537.054570	410.150000
1538.975660	410.400000
1540.894506	428.850000
1542.814742	401.400000
1544.732735	402.500000
1546.650300	395.850000
1548.565625	412.600000
1550.482339	407.400000
1552.394998	419.800000
1554.310861	426.700000
1556.224484	441.650000
1558.135869	420.600000
1560.048644	416.300000
1561.957369	433.850000
1563.867483	422.800000
1565.777174	414.850000
1567.686442	417.100000
1569.593476	427.950000
1571.498277	409.600000
1573.404467	423.250000
1575.308425	432.050000
1577.211962	424.400000
1579.115079	412.450000
1581.015966	430.600000
1582.918242	437.550000
1584.818290	425.850000
1586.719725	413.650000
1588.617127	436.100000
1590.514110	448.850000
1592.410675	431.800000
1594.308627	435.800000
1596.200745	420.800000
1598.096057	440.100000
1599.990951	438.800000
1601.883623	426.350000
1603.775878	413.900000
1605.665914	426.350000
1607.555534	454.650000
1609.444739	440.100000
1611.333529	423.150000
1613.220101	424.900000
1615.108061	425.150000
1616.992004	430.250000
1618.877334	427.200000
1620.762251	421.450000
1622.644954	414.750000
1624.529044	430.500000
1626.409122	435.500000
1628.290588	432.900000
1630.169843	443.750000
1632.050484	443.050000
1633.925321	419.250000
1635.805139	433.850000
1637.680953	419.450000
1639.556356	412.650000
1641.433145	410.800000
1643.304138	427.800000
1645.178312	422.700000
1647.048487	415.200000
1648.921843	402.600000
1650.792996	399.950000
1652.661948	413.000000
1654.532284	421.200000
1656.398628	403.350000
1658.266357	401.250000
1660.131887	430.600000
1661.998803	396.650000
1663.861730	400.800000
1665.726042	404.150000
1667.588158	384.850000
1669.449869	388.800000
1671.312966	418.150000
1673.173867	391.500000
1675.032576	377.850000
1676.890881	384.250000
1678.750570	401.500000
1680.604493	388.150000
1682.461589	408.150000
1684.318281	405.800000
1686.170998	401.650000
1688.026886	397.250000
1689.878800	378.000000
1691.730313	370.800000
1693.581425	360.000000
1695.432137	390.950000
1697.282447	387.200000
1699.130574	373.500000
1700.980085	392.600000
1702.823846	352.250000
1704.672558	375.450000
1706.515523	375.300000
1708.361655	380.000000
1710.203824	388.950000
1712.049159	376.600000
1713.888753	370.900000
1715.729731	375.050000
1717.572092	391.850000
1719.410497	397.900000
1721.250285	384.650000
1723.087897	386.700000
1724.925115	388.350000
1726.760159	356.000000
1728.596586	376.750000
1730.430841	377.600000
1732.264701	362.700000
1734.098167	359.150000
1735.927688	364.500000
1737.760367	366.500000
1739.589102	376.250000
1741.420994	373.650000
1743.248944	370.000000
1745.076502	354.350000
1746.903669	353.950000
1748.730444	359.550000
1750.556827	357.250000
1752.379274	363.000000
1754.204876	367.050000
1756.026543	382.600000
1757.849592	368.700000
1759.670479	370.500000
1761.490978	354.150000
1763.312857	379.750000
1765.129038	386.200000
1766.948370	382.650000
1768.763774	375.400000
1770.582330	371.850000
1772.396960	361.750000
1774.211203	386.800000
1776.025060	347.350000
1777.838530	365.200000
1779.649847	368.150000
1781.462544	373.050000
1783.274856	361.550000
1785.083249	374.000000
1786.893024	369.950000
1788.698884	363.350000
1790.507889	365.050000
1792.312981	336.450000
1794.119454	357.050000
1795.925543	344.850000
1797.727721	355.350000
1799.533044	366.050000
1801.334458	352.500000
1803.137252	363.150000
1804.936140	345.450000
1806.736409	350.900000
1808.536296	355.500000
1810.334041	377.450000
1812.131406	368.950000
1813.928391	353.800000
1815.724995	354.150000
1817.519460	361.250000
1819.315304	361.300000
1821.105493	367.900000
1822.900579	360.800000
1824.690013	349.550000
1826.482583	355.850000
1828.273018	349.000000
1830.061319	334.300000
1831.852755	350.100000
1833.638545	349.550000
1835.425715	346.400000
1837.210753	348.750000
1838.998925	349.900000
1840.783211	350.700000
1842.565367	341.600000
1844.348903	352.650000
1846.130310	365.200000
1847.913096	362.400000
1849.692001	372.200000
1851.472285	347.900000
1853.250444	363.500000
1855.029981	378.650000
1856.807392	366.800000
1858.582681	367.350000
1860.359347	357.550000
1862.133891	358.100000
1863.909813	366.150000
1865.680114	350.000000
1867.453543	364.200000
1869.224852	347.200000
1870.995790	357.350000
1872.768106	361.900000
1874.534808	353.300000
1876.304635	371.800000
1878.070599	353.150000
1879.839687	349.950000
1881.604913	346.050000
1883.369771	342.400000
1885.136006	329.800000
1886.898382	348.450000
1888.660390	341.650000
1890.422032	355.650000
1892.183307	365.100000
1893.944214	357.300000
1895.704755	352.900000
1897.463186	365.800000
1899.221251	336.900000
1900.977209	337.750000
1902.734543	360.000000
1904.491512	342.000000
1906.246374	355.000000
1907.999132	344.700000
1909.751525	345.250000
1911.505295	360.350000
1913.256961	338.700000
1915.006525	343.500000
1916.757464	344.750000
1918.508041	352.500000
1920.254778	353.950000
1922.002892	356.300000
1923.748906	338.150000
1925.496295	347.450000
1927.241587	332.350000
1928.984781	334.400000
1930.729350	351.450000
1932.471823	323.400000
1934.213937	337.250000
1935.955690	348.250000
1937.697083	340.400000
1939.436383	332.200000
1941.175324	346.300000
1942.913906	346.050000
1944.650397	339.050000
1946.386530	337.900000
1948.124037	336.750000
1949.857722	338.400000
1951.592782	334.500000
1953.325753	335.500000
1955.058368	347.100000
1956.790627	347.550000
1958.522529	343.250000
1960.252345	343.100000
1961.980076	342.550000
1963.709182	331.050000
1965.437932	354.850000
1967.164600	334.300000
1968.890913	349.700000
1970.618599	332.600000
1972.340749	329.650000
1974.066000	325.450000
1975.787444	350.600000
1977.511989	347.900000
1979.234453	338.850000
1980.953115	346.400000
1982.674875	330.150000
1984.392833	323.600000
1986.112164	334.000000
1987.827696	350.400000
1989.548048	331.350000
1991.264602	341.600000
1992.977359	358.300000
1994.693212	335.100000
1996.406993	331.750000
1998.120424	341.850000
1999.831784	346.600000
2001.544516	341.150000
2003.253458	350.950000
2004.965492	346.600000
2006.672017	357.150000
2008.381635	349.100000
2010.089185	352.350000
2011.796388	351.000000
2013.501525	335.900000
2015.206316	330.500000
2016.912478	353.500000
2018.614858	326.250000
2020.318609	327.450000
2022.020298	329.100000
2023.721641	360.300000
2025.422640	331.900000
2027.121577	346.550000
2028.821886	330.550000
2030.518419	319.600000
2032.216324	350.000000
2033.912171	324.150000
2035.611103	345.800000
2037.304549	346.400000
2038.999366	337.850000
2040.693841	333.900000
2042.384547	347.850000
2044.078337	344.700000
2045.768360	321.300000
2047.459754	341.750000
2049.149095	329.200000
2050.839806	320.600000
2052.526754	316.300000
2054.213363	331.300000
2055.901341	328.900000
2057.585560	353.150000
2059.271150	344.250000
2060.956400	355.350000
2062.639601	334.300000
2064.324173	350.350000
2066.003281	336.800000
2067.687176	330.500000
2069.365609	319.000000
2071.047120	335.600000
2072.724879	332.650000
2074.402302	325.900000
2076.081094	324.550000
2077.757844	319.000000
2079.432551	326.600000
2081.108629	333.750000
2082.782665	314.450000
2084.456367	315.000000
2086.129733	305.450000
2087.801060	317.300000
2089.472053	316.400000
2091.142712	331.900000
2092.813037	338.650000
2094.483028	328.850000
2096.150983	319.300000
2097.818605	324.050000
2099.484192	336.900000
2101.151148	329.400000
2102.816071	312.300000
2104.480662	331.900000
2106.143221	345.600000
2107.807148	355.600000
2109.469044	331.500000
2111.130610	334.000000
2112.791844	323.200000
2114.451050	326.250000
2116.109925	328.750000
2117.768471	342.500000
2119.426686	338.000000
2121.081179	318.200000
2122.738736	331.950000
2124.395963	342.650000
2126.049470	325.650000
2127.704344	320.250000
2129.355499	318.500000
2131.009717	333.450000
2132.660217	308.650000
2134.312085	324.400000
2135.958544	344.200000
2137.609758	327.500000
2139.257258	342.600000
2140.906125	325.700000
2142.552973	337.550000
2144.199496	317.800000
2145.845693	341.850000
2147.488182	311.600000
2149.133729	324.250000
2150.775569	322.750000
2152.420466	312.700000
2154.061657	321.100000
2155.702526	337.100000
2157.343070	326.150000
2158.981602	321.000000
2160.621500	326.750000
2162.257698	317.200000
2163.895262	331.600000
2165.532504	318.500000
2167.167736	326.600000
2168.802646	334.950000
2170.437235	330.500000
2172.071503	324.800000
2173.702077	316.650000
2175.335703	305.250000
2176.965637	317.200000
2178.596936	300.800000
2180.226230	332.900000
2181.855205	332.100000
2183.483860	328.050000
2185.112196	317.200000
2186.738530	309.500000
2188.364545	314.150000
2189.988558	320.850000
2191.613937	316.800000
2193.237315	306.950000
2194.862058	318.950000
2196.483120	338.950000
2198.103865	307.200000
2199.725974	322.500000
2201.346086	311.500000
2202.964202	318.600000
2204.582002	304.700000
2206.199487	319.900000
2207.816656	312.950000
2209.433510	304.800000
2211.050048	292.300000
2212.664594	316.700000
2214.277147	310.400000
2215.891064	316.650000
2217.502990	298.350000
2219.116279	322.150000
2220.727578	298.350000
2222.336887	312.500000
2223.947560	302.650000
2225.556244	273.650000
2227.164615	313.450000
2228.771000	308.300000
2230.378747	314.550000
2231.984509	312.550000
2233.589959	318.700000
2235.193424	293.650000
2236.798252	308.300000
2238.401096	306.600000
2240.001957	291.650000
2241.604181	294.600000
2243.204423	330.300000
2244.806027	313.500000
2246.403978	310.450000
2248.003292	313.250000
2249.600626	312.950000
2251.197652	316.250000
2252.796040	310.700000
2254.390779	313.450000
2255.983541	307.850000
2257.577666	305.150000
2259.173152	306.550000
2260.764993	313.700000
2262.356528	291.400000
2263.949425	314.150000
2265.537012	306.850000
2267.129295	302.600000
2268.716272	302.950000
2270.306276	308.900000
2271.890976	293.200000
2273.480370	313.200000
2275.064462	304.950000
2276.649914	291.600000
2278.233398	309.350000
2279.819907	296.450000
2281.402783	287.500000
2282.985356	300.350000
2284.567625	312.000000
2286.146264	288.000000
2287.727928	285.300000
2289.305963	293.000000
2290.887021	284.950000
2292.464452	280.700000
2294.039920	276.450000
2295.618410	299.450000
2297.193276	301.700000
2298.767841	288.000000
2300.342105	285.100000
2301.916070	285.900000
2303.489733	293.850000
2305.063097	288.450000
2306.632842	299.050000
2308.202288	311.850000
2309.774752	297.900000
2311.341942	280.500000
2312.912150	291.200000
2314.478743	300.400000
2316.046696	297.450000
2317.612693	306.600000
2319.178393	270.900000
2320.743795	283.300000
2322.307244	292.900000
2323.872052	283.500000
2325.433252	299.400000
2326.997466	311.650000
2328.556418	310.100000
2330.118384	291.700000
2331.678400	297.800000
2333.238121	279.350000
2334.795892	315.500000
2336.353368	280.700000
2337.910550	294.100000
2339.465784	274.050000
2341.020725	287.900000
2342.575371	299.900000
2344.129724	300.700000
2345.683783	288.050000
2347.237549	286.200000
2348.789370	287.200000
2350.339249	274.900000
2351.892135	291.700000
2353.439778	283.250000
2354.990430	290.250000
2356.537490	294.950000
2358.085908	275.400000
2359.634035	276.450000
2361.178573	272.550000
2362.724469	284.450000
2364.268427	293.400000
2365.813741	291.100000
2367.355472	282.550000
2368.898559	276.950000
2370.439710	290.300000
2371.980572	276.300000
2373.521145	274.850000
2375.061429	281.150000
2376.601424	280.900000
2378.137841	289.800000
2379.677259	282.150000
2381.213099	289.750000
2382.750297	275.200000
2384.283919	291.800000
2385.820541	287.500000
2387.355233	266.300000
2388.887995	274.150000
2390.420470	291.500000
2391.951017	274.850000
2393.484562	292.450000
2395.012896	291.600000
2396.542586	273.500000
2398.071991	280.050000
2399.601111	275.100000
2401.129945	283.000000
2402.653575	282.600000
2404.181840	278.000000
2405.704903	282.200000
2407.232599	286.400000
2408.753456	287.300000
2410.278945	273.500000
2411.800875	261.100000
2413.324159	295.100000
2414.845523	275.700000
2416.364967	281.200000
2417.885766	282.800000
2419.404646	275.250000
2420.923245	278.350000
2422.439926	304.450000
2423.957961	295.350000
2425.475715	283.850000
2426.989917	289.450000
2428.503840	292.400000
2430.017482	291.000000
2431.532479	284.100000
2433.043927	280.750000
2434.556729	282.300000
2436.067619	282.600000
2437.578230	282.700000
2439.086929	273.450000
2440.598614	269.100000
2442.106756	288.250000
2443.614620	287.800000
2445.122206	287.250000
2446.626251	268.600000
2448.133281	280.350000
2449.638403	259.800000
2451.143248	269.450000
2452.646186	275.950000
2454.148848	269.000000
2455.651233	263.950000
2457.151713	247.550000
2458.653546	261.300000
2460.153474	255.250000
2461.653127	275.050000
2463.152505	260.100000
2464.649980	257.950000
2466.145553	249.300000
2467.644106	254.800000
2469.139131	246.150000
2470.635508	267.850000
2472.128359	271.500000
2473.622563	256.200000
2475.116493	251.100000
2476.606899	256.750000
2478.100283	261.900000
2479.591769	260.750000
2481.081358	262.500000
2482.570675	268.850000
2484.058096	273.900000
2485.548493	255.200000
2487.035372	258.050000
2488.523602	240.700000
2490.008315	276.850000
2491.492759	270.700000
2492.978553	241.850000
2494.462456	247.900000
2495.947709	245.750000
2497.427829	285.000000
2498.910922	250.900000
2500.392124	261.600000
2501.873057	246.350000
2503.352101	258.550000
2504.830876	257.950000
2506.309383	253.150000
2507.787622	253.300000
2509.265592	257.750000
2510.740057	262.150000
2512.217492	269.450000
2513.691423	273.000000
2515.166704	270.050000
2516.641718	252.100000
2518.113231	265.000000
2519.586095	259.950000
2521.057076	254.300000
2522.529407	240.600000
2523.996624	264.950000
2525.466808	259.600000
2526.935111	270.850000
2528.403149	255.200000
2529.870922	262.750000
2531.338430	268.050000
2532.805673	269.450000
2534.269424	265.200000
2535.734525	271.850000
2537.197749	272.500000
2538.662322	271.600000
2540.123407	252.800000
2541.585841	265.300000
2543.048012	246.650000
2544.506697	252.450000
2545.969953	254.600000
2547.428114	245.600000
2548.887623	243.700000
2550.342038	254.200000
2551.801024	246.950000
2553.258138	228.500000
2554.713380	253.150000
2556.168362	254.800000
2557.621475	246.150000
2559.075935	254.550000
2560.528527	252.300000
2561.980859	247.750000
2563.431324	260.650000
2564.884744	257.250000
2566.333082	252.800000
2567.784375	237.800000
2569.233803	247.900000
2570.679758	244.500000
2572.128668	256.000000
2573.574108	248.800000
2575.020895	255.400000
2576.465819	256.850000
2577.910486	247.650000
2579.356500	266.250000
2580.799048	236.800000
2582.242943	237.100000
2583.683372	251.900000
2585.125150	263.200000
2586.565068	259.400000
2588.006333	259.050000
2589.444136	247.600000
2590.884889	238.500000
2592.320580	242.150000
2593.759220	243.300000
2595.196002	261.850000
2596.630929	232.950000
2598.068803	257.200000
2599.501620	248.550000
2600.935784	242.200000
2602.368094	240.000000
2603.801750	254.050000
2605.233553	241.200000
2606.665102	249.950000
2608.096399	236.150000
2609.525843	250.300000
2610.955035	251.950000
2612.382377	243.700000
2613.811064	242.750000
2615.239500	229.100000
2616.664488	240.600000
2618.090823	240.650000
2619.515309	253.850000
2620.941141	235.950000
2622.363529	248.200000
2623.787263	234.050000
2625.209150	244.300000
2626.630788	247.500000
2628.050580	242.400000
2629.471718	254.050000
2630.892606	221.600000
2632.310055	234.800000
2633.730445	246.700000
2635.147397	236.650000
2636.564100	250.600000
2637.980555	234.500000
2639.396762	242.100000
2640.812721	237.250000
2642.226839	241.700000
2643.640709	248.700000
2645.052741	244.250000
2646.466116	223.800000
2647.876062	222.600000
2649.288944	230.450000
2650.698397	230.550000
2652.107604	235.800000
2653.514975	253.350000
2654.925280	237.850000
2656.333750	235.050000
2657.740384	241.350000
2659.146773	224.050000
2660.551328	238.900000
2661.957227	236.300000
2663.361293	252.750000
2664.765114	235.750000
2666.168691	247.600000
2667.570437	233.600000
2668.973526	214.550000
2670.373197	224.450000
2671.774212	240.000000
2673.171811	230.100000
2674.572339	252.250000
2675.969453	250.900000
2677.367910	232.550000
2678.764540	228.300000
2680.160927	222.650000
2681.557072	228.750000
2682.951391	230.950000
2684.347053	226.200000
2685.739306	244.450000
2687.132901	226.850000
2688.524672	227.050000
2689.917786	233.900000
2691.309076	224.500000
2692.698543	222.750000
2694.087770	238.350000
2695.476758	247.650000
2696.867087	236.250000
2698.252433	237.250000
2699.640702	242.450000
2701.027151	217.350000
2702.413361	234.550000
2703.799332	238.450000
2705.181905	233.050000
2706.565820	242.900000
2707.949497	238.000000
2709.332935	223.250000
2710.712978	235.600000
2712.094363	239.100000
2713.473933	219.300000
2714.854843	229.250000
2716.233939	220.550000
2717.611221	214.000000
2718.989844	206.000000
2720.366653	228.450000
2721.743227	229.300000
2723.119565	224.700000
2724.494092	245.000000
2725.869959	234.050000
2727.242439	225.950000
2728.617835	234.600000
2729.988271	239.050000
2731.360048	229.400000
2732.731590	226.750000
2734.101324	231.900000
2735.472399	227.950000
2736.841665	231.550000
2738.210698	219.400000
2739.577925	226.100000
2740.944918	229.050000
2742.311679	203.300000
2743.678208	225.800000
2745.042931	232.150000
2746.407422	214.800000
2747.771682	232.200000
2749.135709	250.600000
2750.499505	219.700000
2751.859927	208.750000
2753.223259	237.700000
2754.581649	221.800000
2755.942949	218.750000
2757.300879	218.200000
2758.661717	231.900000
2760.020756	208.250000
2761.376426	213.250000
2762.735004	207.900000
2764.090215	220.150000
2765.445197	216.600000
2766.798382	215.800000
2768.154474	209.750000
2769.507202	222.650000
2770.859702	218.450000
2772.211973	213.600000
2773.565582	217.450000
2774.915831	216.600000
2776.264285	214.950000
2777.615644	215.000000
2778.963645	202.400000
2780.312983	223.600000
2781.660529	219.600000
2783.007849	216.400000
2784.354942	204.450000
2785.700243	220.600000
2787.045319	207.250000
2788.390169	213.600000
2789.734793	220.650000
2791.076065	198.150000
2792.418675	206.850000
2793.761059	204.500000
2795.103218	206.300000
2796.442028	222.300000
2797.783738	213.650000
2799.122099	207.850000
2800.461798	214.200000
2801.799712	209.650000
2803.135841	214.950000
2804.471746	207.550000
2805.808989	203.000000
2807.144448	215.850000
2808.479684	213.650000
2809.813137	214.650000
2811.147927	206.350000
2812.479377	202.500000
2813.813722	203.100000
2815.143169	197.800000
2816.473952	212.200000
2817.804515	221.150000
2819.133298	206.300000
2820.463417	210.800000
2821.791758	214.300000
2823.119878	211.050000
2824.446220	194.200000
2825.773899	212.650000
2827.098244	207.900000
2828.423926	202.850000
2829.747832	202.950000
2831.071518	206.900000
2832.396541	199.450000
2833.718233	189.650000
2835.039707	197.400000
2836.360962	208.500000
2837.681998	202.450000
2839.001261	208.850000
2840.321860	196.650000
2841.640688	209.250000
2842.959297	187.400000
2844.276135	194.850000
2845.592756	196.450000
2846.909160	192.350000
2848.223794	199.150000
2849.539764	206.500000
2850.852413	200.800000
2852.166397	205.750000
2853.480165	213.050000
2854.793716	196.850000
2856.105501	196.200000
2857.415519	215.950000
2858.726872	198.750000
2860.034910	204.100000
2861.344282	192.950000
2862.653440	204.300000
2863.962382	203.950000
2865.269560	206.150000
2866.574976	198.550000
2867.881725	198.850000
2869.186713	182.900000
2870.491486	191.600000
2871.794499	188.900000
2873.100392	189.100000
2874.401431	190.450000
2875.703804	206.950000
2877.004417	194.550000
2878.306364	204.150000
2879.608097	194.700000
2880.906527	199.400000
2882.206290	191.400000
2883.504296	195.950000
2884.802090	194.700000
2886.098128	190.000000
2887.395499	200.250000
2888.691114	194.700000
2889.986518	201.050000
2891.281711	203.950000
2892.573607	205.500000
2893.868379	196.000000
2895.159854	189.800000
2896.452662	192.500000
2897.745260	178.500000
2899.034564	206.250000
2900.325200	206.000000
2901.614085	177.900000
2902.904302	196.300000
2904.191228	189.550000
2905.479486	188.900000
2906.765995	193.900000
2908.052295	180.600000
2909.338388	193.450000
2910.622732	203.600000
2911.909947	177.550000
2913.192336	199.250000
2914.476057	194.000000
2915.758032	202.050000
2917.039799	190.800000
2918.319821	199.800000
2919.602714	198.300000
2920.883861	181.550000
2922.161726	214.750000
2923.442460	198.000000
2924.719913	188.200000
2925.997160	186.550000
2927.272665	177.850000
2928.551038	179.350000
2929.824597	195.400000
2931.101023	193.800000
2932.375708	187.850000
2933.648652	181.950000
2934.922928	175.700000
2936.195464	177.600000
2937.467795	198.450000
2938.736854	194.350000
2940.008778	189.450000
2941.278964	190.750000
2942.548946	181.200000
2943.818725	181.450000
2945.086768	197.150000
2946.353074	179.250000
2947.619179	175.150000
2948.886613	182.200000
2950.152312	188.250000
2951.417810	188.850000
2952.683105	184.250000
2953.945135	193.950000
2955.208495	189.550000
2956.471654	186.400000
2957.733081	185.150000
2958.995837	181.000000
2960.256861	201.000000
2961.516155	182.000000
2962.775249	176.900000
2964.034142	183.400000
2965.292835	195.100000
2966.551328	183.700000
2967.808092	183.850000
2969.064656	169.050000
2970.319492	187.250000
2971.575658	173.950000
2972.828569	174.700000
2974.082809	179.500000
2975.336849	165.500000
2976.589164	187.700000
2977.841281	183.600000
2979.091673	174.450000
2980.344920	189.250000
2981.593390	189.750000
2982.844715	175.500000
2984.092790	169.700000
2985.340668	175.900000
2986.588350	162.700000
2987.835834	181.400000
2989.081597	182.300000
2990.327164	185.900000
2991.574058	194.850000
2992.817708	175.600000
2994.062686	161.850000
2995.304420	180.550000
2996.549006	158.400000
2997.791873	173.050000
2999.031499	171.750000
3000.273975	171.550000
3001.513211	172.900000
3002.753775	174.950000
3003.992622	192.150000
3005.231275	180.900000
3006.468212	181.000000
3007.706477	183.950000
3008.943026	159.000000
3010.179382	168.450000
3011.415544	162.600000
3012.649992	173.750000
3013.884248	157.350000
3015.118310	176.200000
3016.350659	158.850000
3017.581298	166.300000
3018.814782	164.100000
3020.046554	161.000000
3021.276616	163.500000
3022.506485	178.300000
3023.734645	156.550000
3024.964132	163.100000
3026.191909	165.250000
3027.419495	162.450000
3028.648407	163.000000
3029.872578	173.500000
3031.099591	170.650000
3032.323380	170.900000
3033.548496	173.400000
3034.771905	160.100000
3035.995124	157.550000
3037.216638	155.350000
3038.440993	173.100000
3039.660613	165.250000
3040.881559	165.550000
3042.102316	166.700000
3043.321369	171.050000
3044.541747	168.050000
3045.758909	170.450000
3046.977397	159.150000
3048.194182	169.250000
3049.410780	151.800000
3050.627189	170.200000
3051.840385	162.000000
3053.056420	156.800000
3054.269242	162.700000
3055.484901	154.450000
3056.695837	164.550000
3057.908098	150.950000
3059.120172	156.700000
3060.332060	167.850000
3061.542251	163.650000
3062.752255	154.300000
3063.962073	151.250000
3065.170195	160.450000
3066.378132	176.800000
3067.584373	163.650000
3068.791939	175.300000
3069.997810	164.900000
3071.203497	154.500000
3072.408998	147.400000
3073.612806	161.900000
3074.817938	163.450000
3076.021377	151.150000
3077.223125	164.800000
3078.424688	162.750000
3079.626068	160.250000
3080.827264	155.400000
3082.026770	154.500000
3083.226093	152.050000
3084.426739	151.100000
3085.625695	150.450000
3086.821457	149.350000
3088.020048	160.600000
3089.215445	162.150000
3090.412165	150.900000
3091.605693	156.850000
3092.802049	149.000000
3093.996718	156.550000
3095.188197	151.350000
3096.384008	154.000000
3097.575124	162.250000
3098.767564	144.950000
3099.956816	153.850000
3101.148893	153.600000
3102.339287	151.550000
3103.526495	143.550000
3104.715025	160.800000
3105.904878	164.150000
3107.091547	140.800000
3108.278035	145.700000
3109.464345	146.700000
3110.651976	156.450000
3111.836425	165.050000
3113.019195	153.950000
3114.204787	139.900000
3115.388700	144.250000
3116.570934	155.550000
3117.752989	140.500000
3118.934866	143.550000
3120.116565	148.600000
3121.296587	165.700000
3122.474932	146.750000
3123.656097	159.600000
3124.834087	152.450000
3126.011900	161.950000
3127.189536	146.500000
3128.365498	143.800000
3129.541282	140.550000
3130.718388	159.100000
3131.893819	143.850000
3133.067577	152.750000
3134.239662	131.550000
3135.413069	133.250000
3136.586299	136.300000
3137.757858	146.650000
3138.930737	153.900000
3140.100449	134.550000
3141.271482	145.350000
3142.440845	157.300000
3143.608537	155.650000
3144.779045	159.200000
3145.944895	138.200000
3147.115053	147.500000
3148.280555	150.750000
3149.445882	154.200000
3150.611036	140.100000
3151.776017	137.200000
3152.942317	141.750000
3154.103965	150.850000
3155.266932	151.250000
3156.429727	141.200000
3157.592349	141.800000
3158.753305	149.000000
3159.914090	124.600000
3161.074702	138.200000
3162.233650	127.800000
3163.392427	141.100000
3164.551031	138.900000
3165.709464	138.450000
3166.867726	135.150000
3168.024325	148.600000
3169.179263	130.550000
3170.335520	118.350000
3171.490116	134.950000
3172.644542	133.850000
3173.797308	151.200000
3174.949903	135.700000
3176.102329	135.650000
3177.254585	142.450000
3178.406670	134.700000
3179.555609	140.550000
3180.707356	127.500000
3181.857444	137.850000
3183.005876	142.700000
3184.154138	128.350000
3185.302232	119.050000
3186.450157	142.200000
3187.596426	137.550000
3188.742527	124.600000
3189.886974	141.650000
3191.031253	145.050000
3192.175364	141.700000
3193.320792	137.400000
3194.463082	143.450000
3195.605205	143.100000
3196.747160	144.200000
3197.888948	129.000000
3199.030569	131.300000
3200.169055	129.250000
3201.308858	123.350000
3202.449978	155.050000
3203.587965	133.150000
3204.724302	130.000000
3205.860473	135.700000
3206.997961	124.850000
3208.133801	127.000000
3209.270958	121.350000
3210.403502	126.950000
3211.540328	122.300000
3212.672542	126.950000
3213.806073	155.650000
3214.939440	133.600000
3216.069679	131.100000
3217.202716	136.750000
3218.332627	129.350000
3219.463854	122.250000
3220.591957	123.800000
3221.722856	120.050000
3222.852111	129.450000
3223.979723	132.850000
3225.104212	128.650000
3226.232977	117.700000
3227.358620	130.150000
3228.484101	135.850000
3229.607939	120.450000
3230.734573	125.000000
3231.856609	123.100000
3232.979961	129.250000
3234.103151	131.450000
3235.226178	127.450000
3236.347567	137.500000
3237.468793	123.050000
3238.588382	132.900000
3239.707809	123.450000
3240.825598	121.650000
3241.946179	125.850000
3243.063647	139.550000
3244.180954	134.600000
3245.298101	118.850000
3246.413611	123.350000
3247.530437	127.700000
3248.644153	129.900000
3249.760658	120.300000
3250.875529	132.400000
3251.987290	127.900000
3253.098893	120.150000
3254.211811	113.450000
3255.324569	124.600000
3256.434221	130.150000
3257.545188	125.450000
3258.655996	122.150000
3259.765172	113.000000
3260.872717	132.350000
3261.981577	122.550000
3263.090279	120.450000
3264.195878	110.600000
3265.302791	129.500000
3266.408075	132.300000
3267.514673	125.500000
3268.618171	130.500000
3269.722984	130.100000
3270.827638	120.850000
3271.929195	123.500000
3273.030595	120.000000
3274.133309	118.050000
3275.235867	142.350000
3276.335328	140.100000
3277.437573	127.800000
3278.536722	141.150000
3279.634247	117.550000
3280.731616	119.000000
3281.831767	118.850000
3282.928826	135.650000
3284.025729	122.100000
3285.122477	125.900000
3286.214666	131.250000
3287.311105	126.050000
3288.405921	119.000000
3289.500583	135.850000
3290.593623	113.900000
3291.686508	126.400000
3292.777773	127.150000
3293.870351	119.200000
3294.961309	138.500000
3296.050647	122.300000
3297.139832	106.450000
3298.230330	120.900000
3299.317743	119.100000
3300.405003	128.200000
3301.493576	122.800000
3302.581996	123.000000
3303.665870	129.500000
3304.753985	135.000000
3305.839018	111.950000
3306.922436	115.500000
3308.007166	117.850000
3309.090280	130.750000
3310.174707	119.850000
3311.256055	114.450000
3312.338715	117.350000
3313.419761	118.900000
3314.500656	141.700000
3315.579937	120.300000
3316.659068	135.450000
3317.739511	120.000000
3318.816879	125.350000
3319.895559	138.350000
3320.972627	117.700000
3322.049546	121.000000
3323.124853	120.550000
3324.200011	112.050000
3325.276480	124.550000
3326.349879	118.800000
3327.423128	123.550000
3328.497689	107.200000
3329.570641	120.300000
3330.641984	123.900000
3331.714638	112.600000
3332.784226	115.700000
3333.855124	118.200000
3334.924415	111.800000
3335.995017	126.750000
3337.064012	130.350000
3338.131401	113.200000
3339.197185	107.450000
3340.267195	104.500000
3341.334142	122.300000
3342.398027	111.500000
3343.464679	116.200000
3344.529728	119.150000
3345.593173	121.450000
3346.656472	107.850000
3347.719624	114.550000
3348.782630	126.800000
3349.845490	120.050000
3350.906748	114.250000
3351.964949	115.150000
3353.027370	117.350000
3354.086736	111.650000
3355.145956	118.650000
3356.206485	119.000000
3357.262506	105.250000
3358.321290	115.400000
3359.375567	121.500000
3360.432608	116.450000
3361.488050	120.750000
3362.544802	128.800000
3363.599955	110.900000
3364.653511	119.200000
3365.705471	124.700000
3366.760192	111.200000
3367.811864	104.700000
3368.863393	110.050000
3369.916230	115.100000
3370.966020	122.700000
3372.017119	114.300000
3373.065172	114.400000
3374.115984	108.450000
3375.163752	127.950000
3376.211376	121.650000
3377.258859	113.300000
3378.304749	111.950000
3379.351947	108.750000
3380.396103	109.250000
3381.443017	104.050000
3382.488339	103.350000
3383.530620	126.900000
3384.572760	111.100000
3385.616209	109.400000
3386.659516	104.700000
3387.701233	121.050000
3388.742810	123.250000
3389.784245	116.400000
3390.824092	128.950000
3391.862350	116.250000
3392.901916	118.950000
3393.941342	107.000000
3394.979180	115.200000
3396.015431	102.600000
3397.051543	119.600000
3398.088962	103.550000
3399.123348	117.300000
3400.159041	105.750000
3401.194595	117.850000
3402.227118	126.000000
3403.262394	100.100000
3404.294639	110.000000
3405.326746	108.150000
3406.357269	105.450000
3407.389099	118.300000
3408.420791	116.250000
3409.449455	110.950000
3410.477982	103.850000
3411.507815	112.500000
3412.537511	111.400000
3413.564181	121.450000
3414.592157	109.800000
3415.617110	114.100000
3416.644812	118.050000
3417.669491	118.700000
3418.695476	110.950000
3419.719881	116.550000
3420.744150	109.150000
3421.766840	102.650000
3422.789394	120.450000
3423.813254	108.750000
3424.834094	106.800000
3425.854798	114.300000
3426.876809	100.350000
3427.895801	103.600000
3428.914657	115.550000
3429.934820	96.050000
3430.951966	103.800000
