-118.089238	49.000000
-115.419638	26.000000
-112.752973	82.000000
-110.087060	112.000000
-107.424080	23.000000
-104.759669	22.000000
-102.098189	77.000000
-99.435280	89.000000
-96.777477	70.000000
-94.118245	30.000000
-91.459761	79.000000
-88.804202	100.000000
-86.147213	108.000000
-83.495323	63.000000
-80.842003	53.000000
-78.191602	74.000000
-75.539772	74.000000
-72.893033	76.000000
-70.244865	70.000000
-67.597439	114.000000
-64.952928	91.000000
-62.306987	85.000000
-59.666128	96.000000
-57.023840	101.000000
-54.384461	105.000000
-51.743652	59.000000
-49.103584	141.000000
-46.468588	40.000000
-43.832164	107.000000
-41.198642	56.000000
-38.563692	180.000000
-35.933807	127.000000
-33.300330	108.000000
-30.671915	110.000000
-28.044234	186.000000
-25.415124	104.000000
-22.791071	173.000000
-20.163429	122.000000
-17.540840	171.000000
-14.918983	179.000000
-12.297856	268.000000
-9.677460	612.000000
-7.059951	1813.000000
-4.441014	5865.000000
-1.824962	11926.000000
0.790361	10780.000000
3.404956	5006.000000
6.016670	489.000000
8.629812	268.000000
11.237920	85.000000
13.849610	188.000000
16.456269	203.000000
19.064356	172.000000
21.671719	174.000000
24.274057	116.000000
26.879973	146.000000
29.480867	173.000000
32.083189	124.000000
34.680494	137.000000
37.281374	116.000000
39.877239	219.000000
42.474533	140.000000
45.071107	166.000000
47.662672	177.000000
50.255665	198.000000
52.845797	109.000000
55.437357	146.000000
58.026057	219.000000
60.616184	181.000000
63.201312	165.000000
65.787868	164.000000
68.373710	185.000000
70.956698	197.000000
73.541112	155.000000
76.118398	215.000000
78.699250	174.000000
81.277253	263.000000
83.854546	198.000000
86.433265	241.000000
89.007002	152.000000
91.582167	259.000000
94.154488	283.000000
96.726101	305.000000
99.294874	267.000000
101.865074	366.000000
104.432435	388.000000
107.001223	470.000000
109.567174	469.000000
112.130290	739.000000
114.696962	897.000000
117.254413	1170.000000
119.817549	1647.000000
122.375725	2253.000000
124.937456	3300.000000
127.494230	5066.000000
130.052430	7473.000000
132.605678	11462.000000
135.158228	16365.000000
137.714328	23012.000000
140.265480	30535.000000
142.815935	37165.000000
145.365692	41877.000000
147.912630	45747.000000
150.458873	47398.000000
153.006541	48695.000000
155.553513	49246.000000
158.095550	48705.000000
160.636893	48471.000000
163.177543	48775.000000
165.719619	48031.000000
168.258883	48593.000000
170.795339	47885.000000
173.331103	47509.000000
175.868293	47076.000000
178.404792	47274.000000
180.938485	47130.000000
183.469374	46531.000000
185.999576	46952.000000
188.531202	46330.000000
191.060027	46525.000000
193.586053	46529.000000
196.111393	46181.000000
198.638158	46186.000000
201.162127	45965.000000
203.685411	46256.000000
206.208010	46179.000000
208.727816	45912.000000
211.246939	45299.000000
213.765379	45631.000000
216.285243	45236.000000
218.798106	45795.000000
221.314500	45994.000000
223.830212	46154.000000
226.341034	45970.000000
228.853281	46344.000000
231.362746	46189.000000
233.871531	45637.000000
236.379639	46109.000000
238.889171	46635.000000
241.393822	46322.000000
243.897797	46436.000000
246.403196	46918.000000
248.903720	46541.000000
251.407768	47059.000000
253.904844	46877.000000
256.405444	47220.000000
258.903272	47349.000000
261.400427	46971.000000
263.896909	47431.000000
266.388528	47311.000000
268.883667	47250.000000
271.376039	47044.000000
273.867741	47270.000000
276.356680	47405.000000
278.847042	47374.000000
281.334643	47397.000000
283.819484	47186.000000
286.307840	46987.000000
288.789256	46907.000000
291.274186	46987.000000
293.754271	47382.000000
296.237868	46721.000000
298.716622	47323.000000
301.196799	47861.000000
303.674225	47897.000000
306.150987	47345.000000
308.627085	46999.000000
311.100436	46949.000000
313.573124	47354.000000
316.045151	47026.000000
318.516517	47911.000000
320.985138	47808.000000
323.453101	47851.000000
325.922485	47253.000000
328.387047	47155.000000
330.855113	47553.000000
333.318359	47214.000000
335.780947	46893.000000
338.242879	46673.000000
340.704154	47221.000000
343.162695	46962.000000
345.622658	46019.000000
348.079888	46601.000000
350.536464	45908.000000
352.992386	45792.000000
355.445578	45143.000000
357.900193	45258.000000
360.350006	44600.000000
362.803315	44484.000000
365.251825	44390.000000
367.699685	43319.000000
370.148967	43597.000000
372.593455	43080.000000
375.039365	42074.000000
377.484625	41773.000000
379.927167	42100.000000
382.369061	41549.000000
384.810308	41154.000000
387.248839	40825.000000
389.688792	40344.000000
392.126031	40224.000000
394.560558	39781.000000
396.998573	39655.000000
399.431811	39216.000000
401.866470	38780.000000
404.296357	38814.000000
406.729729	38223.000000
409.158331	38198.000000
411.586291	37558.000000
414.015673	37824.000000
416.440289	37609.000000
418.866327	37472.000000
421.291724	37181.000000
423.716481	37059.000000
426.136480	37294.000000
428.557899	37227.000000
430.976623	36858.000000
433.396767	36648.000000
435.814216	36885.000000
438.233085	36679.000000
440.649261	37003.000000
443.060689	36859.000000
445.475594	36526.000000
447.887810	36450.000000
450.299391	36465.000000
452.710338	36412.000000
455.118599	36453.000000
457.526227	35975.000000
459.933223	36485.000000
462.339588	35794.000000
464.743270	36164.000000
467.146322	35745.000000
469.548744	35899.000000
471.950536	35822.000000
474.349650	35699.000000
476.750184	35564.000000
479.150089	35762.000000
481.545272	35130.000000
483.943921	35367.000000
486.337850	34898.000000
488.731152	35362.000000
491.123830	35147.000000
493.515882	34971.000000
495.909352	34746.000000
498.298110	34661.000000
500.684202	34515.000000
503.071714	34266.000000
505.458603	34146.000000
507.842828	34277.000000
510.228471	33906.000000
512.611453	34031.000000
514.991774	34027.000000
517.373514	34257.000000
519.752595	33564.000000
522.133095	33769.000000
524.510937	33626.000000
526.886124	33988.000000
529.260693	33481.000000
531.636680	33156.000000
534.010015	33273.000000
536.384767	33293.000000
538.754834	32832.000000
541.124285	32864.000000
543.495154	32532.000000
545.861343	31809.000000
548.228949	31412.000000
550.593911	31436.000000
552.958259	30842.000000
555.321994	30264.000000
557.687147	30149.000000
560.047628	29758.000000
562.409527	29300.000000
564.768785	29143.000000
567.125405	28560.000000
569.485471	28507.000000
571.838845	27663.000000
574.195664	27562.000000
576.549848	26833.000000
578.903423	26988.000000
581.256391	26138.000000
583.606726	25490.000000
585.958479	25655.000000
588.303555	24940.000000
590.654095	24912.000000
592.997961	24861.000000
595.347289	24697.000000
597.691968	24281.000000
600.034023	23868.000000
602.377495	23524.000000
604.718344	23761.000000
607.058591	23296.000000
609.396217	23687.000000
611.737278	23240.000000
614.073701	23004.000000
616.411541	23136.000000
618.746764	23402.000000
621.079371	23267.000000
623.413394	23410.000000
625.744803	23674.000000
628.075614	23576.000000
630.405828	23317.000000
632.735443	23612.000000
635.060435	23153.000000
637.390869	23209.000000
639.716682	23330.000000
642.039887	23342.000000
644.364509	22868.000000
646.686525	22917.000000
649.007947	23037.000000
651.326767	22977.000000
653.647002	23231.000000
655.966644	23562.000000
658.283685	23384.000000
660.600134	23609.000000
662.913985	23455.000000
665.229252	23524.000000
667.541922	23717.000000
669.856007	23814.000000
672.165492	24059.000000
674.476393	24594.000000
676.784701	24636.000000
679.092421	25161.000000
681.401555	25225.000000
683.706097	25322.000000
686.010053	25287.000000
688.313423	25670.000000
690.618207	26270.000000
692.918404	26277.000000
695.220017	26311.000000
697.521044	26509.000000
699.817490	26513.000000
702.115351	26971.000000
704.412628	27000.000000
706.709322	27305.000000
709.001440	27501.000000
711.296969	27722.000000
713.587924	28063.000000
715.880294	28040.000000
718.170089	28320.000000
720.459303	28537.000000
722.747938	28419.000000
725.034000	29075.000000
727.321477	29490.000000
729.606382	29836.000000
731.890710	29759.000000
734.172469	29794.000000
736.455642	29626.000000
738.738238	30097.000000
741.016278	30440.000000
743.295733	30546.000000
745.574611	31051.000000
747.852915	31119.000000
750.126669	32148.000000
752.401836	32200.000000
754.676430	32207.000000
756.948465	32252.000000
759.221913	33232.000000
761.492803	32798.000000
763.761137	33462.000000
766.030884	33613.000000
768.298077	33710.000000
770.564699	34008.000000
772.830751	34431.000000
775.094252	34291.000000
777.359166	35091.000000
779.623510	35013.000000
781.883325	35608.000000
784.144552	35604.000000
786.405212	35586.000000
788.663326	36252.000000
790.918895	36162.000000
793.177855	36616.000000
795.430316	36392.000000
797.688143	36699.000000
799.941452	36574.000000
802.192221	36987.000000
804.444402	37014.000000
806.694044	37128.000000
808.945099	37116.000000
811.191642	37119.000000
813.439597	37750.000000
815.685018	37899.000000
817.931850	37696.000000
820.178121	37870.000000
822.419887	38054.000000
824.665037	38213.000000
826.903714	39173.000000
829.145773	38488.000000
831.383334	38935.000000
833.622307	39551.000000
835.858753	39005.000000
838.096610	39324.000000
840.331942	39334.000000
842.564751	40338.000000
844.798971	40364.000000
847.030668	40649.000000
849.261811	40950.000000
851.492399	41369.000000
853.722433	42495.000000
855.951913	42514.000000
858.176911	43453.000000
860.405284	43643.000000
862.629177	44398.000000
864.854482	44741.000000
867.075311	45761.000000
869.299512	46032.000000
871.519240	46625.000000
873.740378	47695.000000
875.960966	48169.000000
878.179045	48606.000000
880.398533	49986.000000
882.613555	50136.000000
884.828029	50935.000000
887.041956	51669.000000
889.255336	52681.000000
891.468168	52081.000000
893.680454	52452.000000
895.890237	52899.000000
898.099475	52700.000000
900.308168	52745.000000
902.514362	52428.000000
904.721965	52672.000000
906.927070	51976.000000
909.131632	51572.000000
911.333699	50960.000000
913.537175	50550.000000
915.738157	49414.000000
917.938597	48682.000000
920.140446	47582.000000
922.335904	46574.000000
924.534721	45275.000000
926.729099	44517.000000
928.926835	43409.000000
931.120135	42515.000000
933.314844	41647.000000
935.507067	40743.000000
937.698751	40071.000000
939.889898	39534.000000
942.078562	39255.000000
944.266690	38690.000000
946.452337	38219.000000
948.641336	37955.000000
950.825912	37841.000000
953.009953	38036.000000
955.197344	37413.000000
957.376431	37972.000000
959.558869	37780.000000
961.740773	37882.000000
963.920202	37830.000000
966.097159	38270.000000
968.275524	38140.000000
970.455296	37908.000000
972.628719	37947.000000
974.805488	37125.000000
976.977850	37399.000000
979.151620	37268.000000
981.320986	36394.000000
983.493696	36062.000000
985.663941	35348.000000
987.833657	34885.000000
990.002844	34450.000000
992.167634	33749.000000
994.335765	33401.000000
996.499501	33212.000000
998.664645	32575.000000
1000.827329	31645.000000
1002.989488	31100.000000
1005.149190	30383.000000
1007.308367	29784.000000
1009.468951	29317.000000
1011.627080	28702.000000
1013.784686	28502.000000
1015.941768	27530.000000
1018.098326	27462.000000
1020.250505	27307.000000
1022.404091	26449.000000
1024.557155	26027.000000
1026.707770	25859.000000
1028.859792	25323.000000
1031.007440	25121.000000
1033.158420	25048.000000
1035.305029	24563.000000
1037.451119	24072.000000
1039.596691	24385.000000
1041.743668	23712.000000
1043.884356	23686.000000
1046.028374	23214.000000
1048.169951	22938.000000
1050.311012	22692.000000
1052.453477	22434.000000
1054.589662	22319.000000
1056.729174	22319.000000
1058.864331	22055.000000
1061.002812	22018.000000
1063.136939	21425.000000
1065.270553	21200.000000
1067.405572	21063.000000
1069.536241	21065.000000
1071.668315	20569.000000
1073.797960	20462.000000
1075.927093	20214.000000
1078.055714	19998.000000
1080.183824	19767.000000
1082.309508	19346.000000
1084.434682	19171.000000
1086.561260	19209.000000
1088.683500	19023.000000
1090.807145	18250.000000
1092.926455	18355.000000
1095.050995	18118.000000
1097.169289	17810.000000
1099.288988	17216.000000
1101.406268	16995.000000
1103.523041	16913.000000
1105.639309	16635.000000
1107.753160	16245.000000
1109.868416	16070.000000
1111.979348	15849.000000
1114.093593	15413.000000
1116.203517	15294.000000
1118.314845	14903.000000
1120.425668	14675.000000
1122.532175	14299.000000
1124.641992	13915.000000
1126.747494	13911.000000
1128.854399	13704.000000
1130.955089	13425.000000
1133.060991	13012.000000
1135.162584	12659.000000
1137.265580	12661.000000
1139.368075	12422.000000
1141.464363	12231.000000
1143.565858	11972.000000
1145.663051	11757.000000
1147.759746	11451.000000
1149.855942	11267.000000
1151.951641	11161.000000
1154.046841	11144.000000
1156.139645	10639.000000
1158.233852	10618.000000
1160.321866	10216.000000
1162.415080	10236.000000
1164.502105	10018.000000
1166.592429	9876.000000
1168.678465	9643.000000
1170.767800	9502.000000
1172.850953	9456.000000
1174.935508	9325.000000
1177.021465	9328.000000
1179.103140	9157.000000
1181.186217	9037.000000
1183.266908	8788.000000
1185.347107	8526.000000
1187.426815	8432.000000
1189.506032	8665.000000
1191.582867	8319.000000
1193.657320	8414.000000
1195.735066	8299.000000
1197.808542	7958.000000
1199.883418	7937.000000
1201.954027	8176.000000
1204.026037	8091.000000
1206.095672	7948.000000
1208.166706	7593.000000
1210.237254	7820.000000
1212.303540	7768.000000
1214.371227	7821.000000
1216.436542	7604.000000
1218.503257	7740.000000
1220.565716	7614.000000
1222.631460	7566.000000
1224.692950	7509.000000
1226.755841	7482.000000
1228.816364	7392.000000
1230.876403	7517.000000
1232.935960	7149.000000
1234.993151	7481.000000
1237.049861	7383.000000
1239.104207	7374.000000
1241.161835	7338.000000
1243.217100	7311.000000
1245.268124	7385.000000
1247.320548	7379.000000
1249.372492	7343.000000
1251.422078	7543.000000
1253.471185	7101.000000
1255.519814	7351.000000
1257.567964	7280.000000
1259.615635	7398.000000
1261.659076	6968.000000
1263.705793	7204.000000
1265.750156	7259.000000
1267.794043	7122.000000
1269.835578	7271.000000
1271.874764	7036.000000
1273.917223	7122.000000
1275.955459	7090.000000
1277.995094	7245.000000
1280.034254	7003.000000
1282.069195	7038.000000
1284.105535	6985.000000
1286.139531	7099.000000
1288.174924	6852.000000
1290.206105	7025.000000
1292.238683	6897.000000
1294.270790	7078.000000
1296.300556	7002.000000
1298.331719	6704.000000
1300.358676	6962.000000
1302.387030	6995.000000
1304.411179	6877.000000
1306.438594	6925.000000
1308.461806	6816.000000
1310.486416	7055.000000
1312.508692	6986.000000
1314.532365	6695.000000
1316.553704	6973.000000
1318.574577	7056.000000
1320.594982	6867.000000
1322.611194	6995.000000
1324.628803	6987.000000
1326.644084	7076.000000
1328.662624	6904.000000
1330.676975	6942.000000
1332.688999	7082.000000
1334.704282	6904.000000
1336.715379	7106.000000
1338.727873	6862.000000
1340.736184	6983.000000
1342.747750	6999.000000
1344.753278	6916.000000
1346.762061	6905.000000
1348.766666	7039.000000
1350.774525	6909.000000
1352.781922	6951.000000
1354.783288	6896.000000
1356.786050	7239.000000
1358.788353	7075.000000
1360.790196	7014.000000
1362.791579	7114.000000
1364.790649	7250.000000
1366.789260	7128.000000
1368.787413	7151.000000
1370.785107	7381.000000
1372.778639	7095.000000
1374.773566	7203.000000
1376.768037	7338.000000
1378.762051	7108.000000
1380.753758	7148.000000
1382.745009	7176.000000
1384.733955	7183.000000
1386.724297	7117.000000
1388.714183	7122.000000
1390.701765	7288.000000
1392.688894	7276.000000
1394.673721	7049.000000
1396.659943	7254.000000
1398.643864	7001.000000
1400.627333	7252.000000
1402.610350	7198.000000
1404.591069	6946.000000
1406.573182	6845.000000
1408.552999	6979.000000
1410.532364	7034.000000
1412.507591	7173.000000
1414.486056	6941.000000
1416.462228	7041.000000
1418.437951	6810.000000
1420.413224	6793.000000
1422.386206	6943.000000
1424.358740	6909.000000
1426.330826	6790.000000
1428.302465	6843.000000
1430.269975	6851.000000
1432.242559	6642.000000
1434.207337	6593.000000
1436.177188	6713.000000
1438.142915	6645.000000
1440.110034	6778.000000
1442.074870	6653.000000
1444.035586	6643.000000
1446.001370	6616.000000
1447.961199	6645.000000
1449.922422	6527.000000
1451.885037	6611.000000
1453.843537	6568.000000
1455.801594	6504.000000
1457.759210	6406.000000
1459.716383	6565.000000
1461.671281	6517.000000
1463.627572	6616.000000
1465.581588	6284.000000
1467.535163	6437.000000
1469.486466	6483.000000
1471.439162	6502.000000
1473.389585	6382.000000
1475.339570	6452.000000
1477.289116	6372.000000
1479.236393	6356.000000
1481.181402	6227.000000
1483.127804	6253.000000
1485.073768	6326.000000
1487.019295	6346.000000
1488.962556	6342.000000
1490.905382	6238.000000
1492.845944	6166.000000
1494.787897	6193.000000
1496.727588	6273.000000
1498.666845	6019.000000
1500.605666	6273.000000
1502.542228	6177.000000
1504.480181	6209.000000
1506.415875	6162.000000
1508.351136	6111.000000
1510.284141	6260.000000
1512.216713	6155.000000
1514.148853	6118.000000
1516.080561	6059.000000
1518.010015	6139.000000
1519.940860	6166.000000
1521.871273	6070.000000
1523.797614	5991.000000
1525.725345	6015.000000
1527.650827	6034.000000
1529.575879	6093.000000
1531.500502	6131.000000
1533.424695	6152.000000
1535.346642	5920.000000
1537.269979	5855.000000
1539.191069	6073.000000
1541.109915	5983.000000
1543.030151	6150.000000
1544.948144	6018.000000
1546.865710	6050.000000
1548.781034	5895.000000
1550.697748	5936.000000
1552.610407	6129.000000
1554.526270	5941.000000
1556.439893	6093.000000
1558.351278	5951.000000
1560.264053	5960.000000
1562.172778	5896.000000
1564.082892	5971.000000
1565.992583	5808.000000
1567.901851	5933.000000
1569.808885	5784.000000
1571.713686	5922.000000
1573.619876	5790.000000
1575.523834	5886.000000
1577.427371	5867.000000
1579.330488	5666.000000
1581.231375	5757.000000
1583.133651	5749.000000
1585.033699	5919.000000
1586.935134	5885.000000
1588.832536	5809.000000
1590.729519	5827.000000
1592.626084	5670.000000
1594.524037	5827.000000
1596.416155	5792.000000
1598.311466	5611.000000
1600.206360	5770.000000
1602.099032	5801.000000
1603.991287	5689.000000
1605.881323	5654.000000
1607.770943	5840.000000
1609.660148	5897.000000
1611.548938	5645.000000
1613.435510	5562.000000
1615.323470	5905.000000
1617.207413	5602.000000
1619.092743	5569.000000
1620.977660	5852.000000
1622.860363	5667.000000
1624.744453	5626.000000
1626.624531	5715.000000
1628.505997	5594.000000
1630.385252	5670.000000
1632.265893	5538.000000
1634.140730	5671.000000
1636.020548	5872.000000
1637.896362	5633.000000
1639.771765	5661.000000
1641.648554	5697.000000
1643.519547	5427.000000
1645.393721	5648.000000
1647.263896	5668.000000
1649.137252	5633.000000
1651.008405	5694.000000
1652.877357	5705.000000
1654.747693	5534.000000
1656.614037	5554.000000
1658.481766	5805.000000
1660.347296	5455.000000
1662.214212	5573.000000
1664.077139	5495.000000
1665.941451	5519.000000
1667.803567	5455.000000
1669.665278	5571.000000
1671.528375	5548.000000
1673.389276	5519.000000
1675.247985	5603.000000
1677.106290	5526.000000
1678.965979	5469.000000
1680.819902	5508.000000
1682.676998	5495.000000
1684.533690	5626.000000
1686.386407	5527.000000
1688.242295	5359.000000
1690.094209	5476.000000
1691.945722	5422.000000
1693.796834	5559.000000
1695.647546	5419.000000
1697.497856	5292.000000
1699.345983	5568.000000
1701.195494	5541.000000
1703.039256	5389.000000
1704.887967	5508.000000
1706.730932	5368.000000
1708.577064	5424.000000
1710.419233	5368.000000
1712.264568	5477.000000
1714.104162	5394.000000
1715.945140	5350.000000
1717.787501	5498.000000
1719.625906	5444.000000
1721.465694	5533.000000
1723.303306	5449.000000
1725.140524	5423.000000
1726.975568	5329.000000
1728.811995	5412.000000
1730.646250	5406.000000
1732.480110	5389.000000
1734.313576	5402.000000
1736.143097	5489.000000
1737.975776	5554.000000
1739.804511	5419.000000
1741.636403	5396.000000
1743.464353	5445.000000
1745.291912	5372.000000
1747.119078	5277.000000
1748.945853	5235.000000
1750.772236	5244.000000
1752.594683	5469.000000
1754.420285	5454.000000
1756.241952	5406.000000
1758.065001	5437.000000
1759.885888	5414.000000
1761.706387	5329.000000
1763.528266	5361.000000
1765.344447	5385.000000
1767.163779	5182.000000
1768.979183	5289.000000
1770.797739	5431.000000
1772.612369	5426.000000
1774.426612	5358.000000
1776.240469	5285.000000
1778.053939	5279.000000
1779.865256	5379.000000
1781.677953	5239.000000
1783.490265	5343.000000
1785.298658	5121.000000
1787.108433	5271.000000
1788.914293	5336.000000
1790.723298	5260.000000
1792.528390	5414.000000
1794.334863	5293.000000
1796.140952	5118.000000
1797.943130	5170.000000
1799.748453	5128.000000
1801.549867	5057.000000
1803.352661	5144.000000
1805.151549	5199.000000
1806.951818	5209.000000
1808.751705	5374.000000
1810.549450	5298.000000
1812.346815	5300.000000
1814.143800	5145.000000
1815.940404	5284.000000
1817.734869	5139.000000
1819.530713	5239.000000
1821.320902	5222.000000
1823.115988	5198.000000
1824.905422	5162.000000
1826.697992	5084.000000
1828.488427	5353.000000
1830.276728	5273.000000
1832.068164	5319.000000
1833.853954	5223.000000
1835.641124	5178.000000
1837.426162	5132.000000
1839.214334	5117.000000
1840.998620	5163.000000
1842.780776	5118.000000
1844.564312	5079.000000
1846.345719	4964.000000
1848.128505	5258.000000
1849.907410	5197.000000
1851.687694	5169.000000
1853.465853	5033.000000
1855.245390	5102.000000
1857.022802	5111.000000
1858.798090	5114.000000
1860.574756	5278.000000
1862.349300	5087.000000
1864.125222	5133.000000
1865.895523	5094.000000
1867.668952	5225.000000
1869.440261	5339.000000
1871.211199	5311.000000
1872.983515	5360.000000
1874.750217	5139.000000
1876.520045	5027.000000
1878.286009	5080.000000
1880.055096	5109.000000
1881.820322	5146.000000
1883.585180	5198.000000
1885.351415	5043.000000
1887.113791	5104.000000
1888.875800	5214.000000
1890.637441	5097.000000
1892.398716	5113.000000
1894.159623	5065.000000
1895.920164	5236.000000
1897.678595	5079.000000
1899.436660	4860.000000
1901.192618	5170.000000
1902.949952	5047.000000
1904.706921	5124.000000
1906.461783	5076.000000
1908.214541	5164.000000
1909.966934	5001.000000
1911.720704	5015.000000
1913.472370	5116.000000
1915.221934	5012.000000
1916.972873	4916.000000
1918.723450	5048.000000
1920.470187	4915.000000
1922.218301	5102.000000
1923.964315	5006.000000
1925.711704	5138.000000
1927.456996	5064.000000
1929.200190	5078.000000
1930.944759	5105.000000
1932.687232	5023.000000
1934.429346	4999.000000
1936.171099	4992.000000
1937.912492	4865.000000
1939.651792	4878.000000
1941.390733	4986.000000
1943.129315	4872.000000
1944.865806	4890.000000
1946.601939	4992.500000
1948.339446	5095.000000
1950.073131	5081.000000
1951.808191	5048.000000
1953.541162	4961.000000
1955.273777	5051.000000
1957.006036	4952.000000
1958.737938	4927.000000
1960.467754	5178.000000
1962.195485	4962.000000
1963.924591	5043.000000
1965.653341	5178.000000
1967.380009	5064.000000
1969.106322	4993.000000
1970.834008	5051.000000
1972.556158	5129.000000
1974.281409	4955.000000
1976.002853	4822.000000
1977.727398	5069.000000
1979.449862	5022.000000
1981.168524	5003.000000
1982.890284	5092.000000
1984.608242	5121.000000
1986.327573	4849.000000
1988.043105	5111.000000
1989.763457	5079.000000
1991.480011	4984.000000
1993.192768	5024.000000
1994.908621	4976.000000
1996.622402	5072.000000
1998.335833	4983.000000
2000.047193	4834.000000
2001.759925	4966.000000
2003.468867	4848.000000
2005.180901	4970.000000
2006.887426	5008.000000
2008.597044	4991.000000
2010.304595	5053.000000
2012.011797	5050.000000
2013.716934	4933.000000
2015.421725	4996.000000
2017.127887	4985.000000
2018.830267	5117.000000
2020.534018	4929.000000
2022.235707	5127.000000
2023.937051	4946.000000
2025.638049	5063.000000
2027.336986	4962.000000
2029.037295	5003.000000
2030.733828	5021.000000
2032.431734	4899.000000
2034.127580	5096.000000
2035.826512	5029.000000
2037.519958	4914.000000
2039.214775	4954.000000
2040.909250	5039.000000
2042.599956	4964.000000
2044.293746	5070.000000
2045.983769	4999.000000
2047.675163	5057.000000
2049.364504	4986.000000
2051.055215	4836.000000
2052.742163	4965.000000
2054.428772	5047.000000
2056.116750	4994.000000
2057.800969	4909.000000
2059.486559	5020.000000
2061.171809	4907.000000
2062.855010	4826.000000
2064.539582	4941.000000
2066.218691	4881.000000
2067.902585	4776.000000
2069.581018	4977.000000
2071.262529	4655.000000
2072.940288	4788.000000
2074.617711	4845.000000
2076.296503	4870.000000
2077.973253	4848.000000
2079.647961	4802.000000
2081.324038	4584.000000
2082.998074	4906.000000
2084.671776	4727.000000
2086.345142	4868.000000
2088.016469	4765.000000
2089.687462	4858.000000
2091.358121	4907.000000
2093.028446	4794.000000
2094.698437	4788.000000
2096.366392	4825.000000
2098.034014	4763.000000
2099.699601	4923.000000
2101.366557	4839.000000
2103.031480	4940.000000
2104.696071	4814.000000
2106.358630	4884.000000
2108.022557	4934.000000
2109.684453	4868.000000
2111.346019	4984.000000
2113.007253	4889.000000
2114.666459	4848.000000
2116.325334	5037.000000
2117.983880	4806.000000
2119.642095	4886.000000
2121.296588	4863.000000
2122.954145	4860.000000
2124.611372	4933.000000
2126.264879	4835.000000
2127.919753	4825.000000
2129.570908	5015.000000
2131.225126	4894.000000
2132.875626	4994.000000
2134.527494	4905.000000
2136.173953	4823.000000
2137.825167	4856.000000
2139.472667	4841.000000
2141.121534	4943.000000
2142.768382	5027.000000
2144.414905	4966.000000
2146.061102	4822.000000
2147.703591	4844.000000
2149.349138	4707.000000
2150.990978	4896.000000
2152.635875	4793.000000
2154.277066	4971.000000
2155.917935	4618.000000
2157.558479	4764.000000
2159.197011	4718.000000
2160.836909	4723.000000
2162.473107	4768.000000
2164.110671	4747.000000
2165.747913	4804.000000
2167.383145	4891.000000
2169.018055	4819.000000
2170.652644	4630.000000
2172.286912	4927.000000
2173.917486	4826.000000
2175.551112	4738.000000
2177.181046	4922.000000
2178.812345	4713.000000
2180.441639	4749.000000
2182.070614	4865.000000
2183.699269	4735.000000
2185.327605	4799.000000
2186.953939	4690.000000
2188.579954	4657.000000
2190.203967	4800.000000
2191.829346	4706.000000
2193.452724	4695.000000
2195.077467	4843.000000
2196.698529	4559.000000
2198.319274	4632.000000
2199.941384	4683.000000
2201.561496	4621.000000
2203.179611	4671.000000
2204.797411	4614.000000
2206.414896	4650.000000
2208.032065	4590.000000
2209.648919	4671.000000
2211.265457	4732.000000
2212.880003	4651.000000
2214.492556	4589.000000
2216.106473	4821.000000
2217.718399	4693.000000
2219.331688	4508.000000
2220.942987	4888.000000
2222.552296	4651.000000
2224.162969	4754.000000
2225.771653	4663.000000
2227.380024	4740.000000
2228.986409	4548.000000
2230.594156	4687.000000
2232.199918	4767.000000
2233.805368	4601.000000
2235.408833	4698.000000
2237.013661	4718.000000
2238.616505	4561.000000
2240.217366	4799.000000
2241.819590	4649.000000
2243.419832	4823.000000
2245.021436	4519.000000
2246.619387	4830.000000
2248.218701	4663.000000
2249.816035	4696.000000
2251.413061	4607.000000
2253.011449	4618.000000
2254.606188	4775.000000
2256.198950	4879.000000
2257.793075	4540.000000
2259.388561	4626.000000
2260.980402	4673.000000
2262.571937	4737.000000
2264.164834	4630.000000
2265.752421	4668.000000
2267.344704	4649.000000
2268.931681	4675.000000
2270.521685	4643.000000
2272.106385	4709.000000
2273.695779	4670.000000
2275.279871	4831.000000
2276.865323	4599.000000
2278.448807	4650.000000
2280.035316	4602.000000
2281.618192	4643.000000
2283.200765	4492.000000
2284.783034	4725.000000
2286.361673	4673.000000
2287.943337	4593.000000
2289.521372	4525.000000
2291.102430	4492.000000
2292.679861	4559.500000
2294.255329	4627.000000
2295.833819	4350.000000
2297.408685	4547.000000
2298.983250	4364.000000
2300.557514	4625.000000
2302.131479	4440.000000
2303.705142	4479.000000
2305.278506	4483.000000
2306.848251	4550.000000
2308.417697	4471.000000
2309.990161	4624.000000
2311.557351	4690.000000
2313.127559	4572.000000
2314.694152	4731.000000
2316.262105	4604.000000
2317.828102	4538.000000
2319.393802	4545.000000
2320.959204	4604.000000
2322.522653	4673.000000
2324.087461	4490.000000
2325.648661	4697.000000
2327.212875	4673.000000
2328.771827	4666.000000
2330.333793	4642.000000
2331.893809	4791.000000
2333.453530	4547.000000
2335.011301	4663.000000
2336.568777	4539.000000
2338.125959	4599.000000
2339.681193	4686.000000
2341.236134	4606.000000
2342.790780	4552.000000
2344.345133	4683.000000
2345.899192	4588.000000
2347.452958	4661.000000
2349.004779	4651.000000
2350.554658	4582.000000
2352.107544	4550.000000
2353.655187	4720.000000
2355.205839	4588.000000
2356.752899	4631.000000
2358.301317	4461.000000
2359.849444	4535.000000
2361.393982	4626.000000
2362.939878	4684.000000
2364.483836	4607.000000
2366.029150	4686.000000
2367.570881	4661.000000
2369.113968	4777.000000
2370.655119	4526.000000
2372.195981	4688.000000
2373.736554	4481.000000
2375.276838	4595.000000
2376.816833	4639.000000
2378.353250	4721.000000
2379.892668	4782.000000
2381.428508	4625.000000
2382.965706	4590.000000
2384.499328	4654.000000
2386.035950	4593.000000
2387.570642	4625.000000
2389.103404	4494.000000
2390.635879	4671.000000
2392.166426	4619.000000
2393.699971	4657.000000
2395.228305	4659.000000
2396.757995	4543.000000
2398.287400	4554.000000
2399.816520	4652.000000
2401.345354	4779.000000
2402.868984	4598.000000
2404.397249	4660.000000
2405.920312	4645.000000
2407.448008	4684.000000
2408.968865	4503.000000
2410.494354	4711.000000
2412.016284	4676.000000
2413.539568	4581.000000
2415.060932	4644.000000
2416.580376	4569.000000
2418.101175	4760.000000
2419.620056	4626.000000
2421.138654	4641.000000
2422.655335	4684.000000
2424.173370	4590.000000
2425.691124	4598.000000
2427.205326	4637.000000
2428.719249	4712.000000
2430.232891	4548.000000
2431.747888	4713.000000
2433.259336	4649.000000
2434.772139	4650.000000
2436.283028	4512.000000
2437.793639	4492.000000
2439.302338	4476.000000
2440.814023	4622.000000
2442.322165	4765.000000
2443.830029	4550.000000
2445.337615	4468.000000
2446.841660	4652.000000
2448.348690	4637.000000
2449.853812	4401.000000
2451.358657	4623.000000
2452.861595	4438.000000
2454.364257	4544.000000
2455.866642	4696.000000
2457.367122	4528.000000
2458.868955	4431.000000
2460.368883	4549.000000
2461.868536	4486.000000
2463.367914	4490.000000
2464.865389	4564.000000
2466.360962	4613.000000
2467.859515	4450.000000
2469.354540	4479.000000
2470.850917	4517.000000
2472.343768	4418.000000
2473.837972	4278.000000
2475.331902	4433.000000
2476.822308	4594.000000
2478.315692	4374.000000
2479.807178	4323.000000
2481.296767	4511.000000
2482.786084	4589.000000
2484.273505	4541.000000
2485.763902	4435.000000
2487.250781	4357.000000
2488.739011	4497.000000
2490.223724	4354.000000
2491.708168	4375.000000
2493.193962	4451.000000
2494.677865	4506.000000
2496.163118	4633.000000
2497.643238	4433.000000
2499.126331	4419.000000
2500.607533	4440.000000
2502.088466	4567.000000
2503.567510	4388.000000
2505.046285	4416.000000
2506.524792	4375.000000
2508.003031	4474.000000
2509.481001	4616.000000
2510.955466	4416.000000
2512.432901	4516.000000
2513.906832	4495.000000
2515.382113	4451.000000
2516.857127	4488.000000
2518.328640	4396.000000
2519.801504	4504.000000
2521.272485	4308.000000
2522.744816	4451.000000
2524.212033	4462.000000
2525.682217	4446.000000
2527.150520	4424.000000
2528.618558	4490.000000
2530.086331	4404.000000
2531.553839	4611.000000
2533.021082	4419.000000
2534.484833	4572.000000
2535.949934	4479.000000
2537.413158	4340.000000
2538.877731	4430.000000
2540.338816	4570.000000
2541.801250	4536.000000
2543.263421	4513.000000
2544.722106	4390.000000
2546.185362	4569.000000
2547.643523	4437.000000
2549.103032	4468.000000
2550.557447	4439.000000
2552.016433	4635.000000
2553.473547	4552.000000
2554.928789	4599.000000
2556.383771	4422.000000
2557.836884	4478.000000
2559.291345	4415.000000
2560.743936	4584.000000
2562.196268	4430.000000
2563.646733	4439.000000
2565.100153	4497.000000
2566.548491	4360.000000
2567.999784	4562.000000
2569.449212	4383.000000
2570.895167	4510.000000
2572.344077	4531.000000
2573.789517	4428.000000
2575.236304	4349.000000
2576.681228	4296.000000
2578.125895	4389.000000
2579.571909	4452.000000
2581.014457	4478.000000
2582.458352	4452.000000
2583.898782	4360.000000
2585.340559	4412.000000
2586.780477	4480.000000
2588.221742	4385.000000
2589.659545	4402.000000
2591.100298	4416.000000
2592.535989	4358.000000
2593.974629	4452.000000
2595.411411	4408.000000
2596.846338	4281.000000
2598.284212	4510.000000
2599.717029	4451.000000
2601.151193	4442.000000
2602.583503	4438.000000
2604.017159	4311.000000
2605.448962	4395.000000
2606.880511	4387.000000
2608.311808	4233.000000
2609.741252	4505.000000
2611.170444	4293.000000
2612.597786	4294.000000
2614.026473	4103.000000
2615.454909	4404.000000
2616.879897	4358.000000
2618.306232	4428.000000
2619.730718	4215.000000
2621.156550	4474.000000
2622.578938	4360.000000
2624.002672	4319.000000
2625.424559	4262.000000
2626.846197	4316.000000
2628.265989	4299.000000
2629.687127	4302.000000
2631.108015	4227.000000
2632.525464	4203.000000
2633.945854	4360.000000
2635.362806	4316.000000
2636.779509	4273.000000
2638.195964	4261.000000
2639.612171	4390.000000
2641.028130	4232.000000
2642.442248	4166.000000
2643.856118	4477.000000
2645.268150	4144.000000
2646.681525	4291.000000
2648.091471	4304.000000
2649.504353	4301.000000
2650.913806	4305.000000
2652.323013	4136.000000
2653.730384	4288.000000
2655.140689	4170.000000
2656.549159	4256.000000
2657.955793	4316.000000
2659.362182	4214.000000
2660.766737	4292.000000
2662.172636	4235.000000
2663.576702	4408.000000
2664.980523	4322.000000
2666.384100	4279.000000
2667.785846	4282.000000
2669.188935	4307.000000
2670.588606	4210.000000
2671.989621	4259.000000
2673.387220	4203.000000
2674.787748	4275.000000
2676.184862	4288.000000
2677.583319	4385.000000
2678.979949	4129.000000
2680.376336	4259.000000
2681.772481	4180.000000
2683.166800	4244.000000
2684.562462	4171.000000
2685.954715	4209.000000
2687.348310	4192.000000
2688.740081	4368.000000
2690.133195	4192.000000
2691.524485	4200.000000
2692.913952	4067.000000
2694.303179	4210.000000
2695.692167	4222.000000
2697.082496	4340.000000
2698.467842	4178.000000
2699.856111	4171.000000
2701.242560	4285.000000
2702.628770	4149.000000
2704.014741	4138.000000
2705.397314	4253.000000
2706.781229	4087.000000
2708.164906	4136.000000
2709.548344	4186.000000
2710.928387	4147.000000
2712.309772	4203.000000
2713.689342	4375.000000
2715.070252	4024.000000
2716.449348	4127.000000
2717.826630	4160.000000
2719.205253	4189.000000
2720.582063	4141.000000
2721.958636	4144.000000
2723.334974	4209.000000
2724.709501	4074.000000
2726.085368	4082.000000
2727.457848	4147.000000
2728.833244	4248.000000
2730.203680	4199.000000
2731.575457	4277.000000
2732.946999	4167.000000
2734.316733	4099.000000
2735.687808	4238.000000
2737.057074	4046.000000
2738.426107	4214.000000
2739.793334	4131.000000
2741.160327	4098.000000
2742.527088	4061.000000
2743.893617	4225.000000
2745.258340	4059.000000
2746.622831	4180.000000
2747.987091	4235.000000
2749.351118	4197.000000
2750.714914	4020.000000
2752.075336	4196.000000
2753.438668	4174.000000
2754.797058	4101.000000
2756.158358	4162.000000
2757.516288	4176.000000
2758.877126	4174.000000
2760.236165	4111.000000
2761.591835	4070.000000
2762.950413	4141.000000
2764.305624	3964.000000
2765.660606	3941.000000
2767.013792	3965.000000
2768.369883	4181.000000
2769.722611	4247.000000
2771.075111	4084.000000
2772.427382	3999.000000
2773.780991	4096.000000
2775.131240	3983.000000
2776.479694	4073.000000
2777.831054	3966.000000
2779.179054	4136.000000
2780.528392	4048.000000
2781.875938	4081.000000
2783.223258	3961.000000
2784.570351	4039.000000
2785.915653	3894.000000
2787.260728	4038.000000
2788.605578	4099.000000
2789.950202	4061.000000
2791.291474	4002.000000
2792.634084	3883.000000
2793.976468	4115.000000
2795.318627	4083.000000
2796.657437	3958.000000
2797.999147	3985.000000
2799.337509	3968.000000
2800.677207	3943.000000
2802.015121	3890.000000
2803.351250	4133.000000
2804.687155	3869.000000
2806.024398	4002.000000
2807.359857	3842.000000
2808.695093	3857.000000
2810.028546	4059.000000
2811.363336	3979.000000
2812.694786	4159.000000
2814.029131	4157.000000
2815.358578	4029.000000
2816.689361	3935.000000
2818.019924	3942.000000
2819.348707	4029.000000
2820.678826	4012.000000
2822.007167	3974.000000
2823.335287	4094.000000
2824.661629	3979.000000
2825.989308	3991.000000
2827.313653	4084.000000
2828.639335	4001.000000
2829.963241	3951.000000
2831.286927	3915.000000
2832.611950	3931.000000
2833.933642	3926.000000
2835.255116	3960.000000
2836.576371	3997.000000
2837.897407	4124.000000
2839.216670	3913.000000
2840.537269	4023.000000
2841.856097	3932.000000
2843.174706	3962.000000
2844.491544	3884.000000
2845.808165	4002.000000
2847.124569	3929.000000
2848.439203	4002.000000
2849.755173	3861.000000
2851.067822	3964.000000
2852.381806	4023.000000
2853.695574	4037.000000
2855.009125	3875.000000
2856.320910	3898.000000
2857.630928	3842.000000
2858.942281	4048.000000
2860.250319	4001.000000
2861.559691	3902.000000
2862.868849	4021.000000
2864.177791	3947.000000
2865.484969	4030.000000
2866.790385	4050.000000
2868.097134	3865.000000
2869.402122	3938.000000
2870.706895	3904.000000
2872.009908	3915.000000
2873.315801	3849.000000
2874.616840	3958.000000
2875.919213	3835.000000
2877.219826	4042.000000
2878.521773	3961.000000
2879.823506	4069.000000
2881.121936	3975.000000
2882.421699	4054.000000
2883.719705	3891.000000
2885.017499	3903.000000
2886.313537	3887.000000
2887.610908	4183.000000
2888.906523	4013.000000
2890.201927	4072.000000
2891.497120	3969.000000
2892.789016	3988.000000
2894.083788	3820.000000
2895.375263	3859.000000
2896.668071	3840.000000
2897.960669	3992.000000
2899.249973	3866.000000
2900.540609	3966.000000
2901.829494	3867.000000
2903.119711	3902.000000
2904.406637	3858.000000
2905.694895	3943.000000
2906.981404	3967.000000
2908.267704	4030.000000
2909.553797	3925.000000
2910.838141	3805.000000
2912.125356	3754.000000
2913.407745	3964.000000
2914.691466	4003.000000
2915.973441	4044.000000
2917.255208	3888.000000
2918.535231	4023.000000
2919.818123	3828.000000
2921.099270	3859.000000
2922.377135	3760.000000
2923.657869	3918.000000
2924.935322	3848.000000
2926.212569	3920.000000
2927.488074	3855.000000
2928.766447	3902.000000
2930.040006	3839.000000
2931.316432	3892.000000
2932.591117	3688.000000
2933.864061	3912.000000
2935.138337	3851.000000
2936.410873	3892.000000
2937.683204	3860.000000
2938.952263	3816.000000
2940.224187	3744.000000
2941.494373	3809.000000
2942.764355	3826.000000
2944.034134	3782.000000
2945.302177	3804.000000
2946.568483	3726.000000
2947.834588	3864.000000
2949.102022	3797.000000
2950.367721	3771.000000
2951.633219	3822.000000
2952.898514	3743.000000
2954.160544	3816.000000
2955.423904	3733.000000
2956.687063	4002.000000
2957.948490	3695.000000
2959.211246	3663.000000
2960.472270	3782.000000
2961.731564	3815.000000
2962.990658	3807.000000
2964.249551	3920.000000
2965.508244	3868.000000
2966.766737	3617.000000
2968.023501	3668.000000
2969.280065	3839.000000
2970.534902	3758.000000
2971.791067	3742.000000
2973.043978	3835.000000
2974.298218	3872.000000
2975.552258	3710.000000
2976.804573	3763.000000
2978.056690	3707.000000
2979.307082	3822.000000
2980.560329	3868.000000
2981.808799	3775.000000
2983.060124	3761.000000
2984.308199	3811.000000
2985.556078	3791.000000
2986.803759	3782.000000
2988.051243	3696.000000
2989.297006	3828.000000
2990.542573	3706.000000
2991.789467	3718.000000
2993.033117	3673.000000
2994.278095	3780.000000
2995.519829	3804.000000
2996.764415	3765.000000
2998.007282	3825.000000
2999.246908	3834.000000
3000.489384	3724.000000
3001.728620	3774.000000
3002.969184	3708.000000
3004.208031	3730.000000
3005.446684	3617.000000
3006.683621	3708.000000
3007.921886	3809.000000
3009.158435	3718.000000
3010.394791	3743.000000
3011.630953	3745.000000
3012.865401	3748.000000
3014.099657	3691.000000
3015.333719	3745.000000
3016.566068	3875.000000
3017.796707	3772.000000
3019.030191	3790.000000
3020.261963	3769.000000
3021.492025	3634.000000
3022.721894	3718.000000
3023.950054	3784.000000
3025.179541	3775.000000
3026.407318	3714.000000
3027.634904	3733.000000
3028.863816	3683.000000
3030.087987	3694.000000
3031.315000	3818.000000
3032.538789	3679.000000
3033.763905	3812.000000
3034.987314	3721.000000
3036.210533	3813.000000
3037.432047	3765.000000
3038.656402	3826.000000
3039.876022	3670.000000
3041.096968	3688.000000
3042.317725	3716.000000
3043.536778	3783.000000
3044.757156	3705.000000
3045.974318	3677.000000
3047.192806	3728.000000
3048.409591	3714.000000
3049.626189	3608.000000
3050.842598	3745.000000
3052.055794	3653.000000
3053.271829	3704.000000
3054.484651	3701.000000
3055.700310	3678.000000
3056.911246	3684.000000
3058.123507	3525.000000
3059.335582	3698.000000
3060.547469	3738.000000
3061.757660	3649.000000
3062.967664	3872.000000
3064.177482	3645.000000
3065.385604	3737.000000
3066.593541	3613.000000
3067.799782	3609.000000
3069.007348	3698.000000
3070.213219	3675.500000
3071.418906	3653.000000
3072.624407	3705.000000
3073.828215	3557.000000
3075.033347	3677.000000
3076.236786	3645.000000
3077.438534	3747.000000
3078.640097	3657.000000
3079.841477	3680.000000
3081.042673	3752.000000
3082.242179	3693.000000
3083.441502	3640.000000
3084.642148	3750.000000
3085.841104	3684.000000
3087.036866	3750.000000
3088.235457	3696.000000
3089.430854	3758.000000
3090.627574	3663.000000
3091.821102	3760.000000
3093.017458	3647.000000
3094.212127	3720.000000
3095.403606	3517.000000
3096.599417	3720.000000
3097.790533	3736.000000
3098.982973	3693.000000
3100.172225	3622.000000
3101.364302	3606.000000
3102.554696	3748.000000
3103.741904	3616.000000
3104.930434	3572.000000
3106.120287	3587.000000
3107.306956	3671.000000
3108.493444	3636.000000
3109.679754	3588.000000
3110.867385	3646.000000
3112.051834	3485.000000
3113.234604	3602.000000
3114.420196	3594.000000
3115.604109	3542.000000
3116.786343	3637.000000
3117.968398	3656.000000
3119.150275	3569.000000
3120.331974	3667.000000
3121.511996	3601.000000
3122.690341	3689.000000
3123.871506	3716.000000
3125.049496	3632.000000
3126.227309	3678.000000
3127.404945	3610.000000
3128.580907	3517.000000
3129.756691	3718.000000
3130.933797	3666.000000
3132.109228	3655.000000
3133.282986	3473.000000
3134.455071	3632.000000
3135.628478	3715.000000
3136.801708	3707.000000
3137.973267	3461.000000
3139.146146	3702.000000
3140.315858	3560.000000
3141.486891	3739.000000
3142.656254	3617.000000
3143.823946	3622.000000
3144.994454	3507.000000
3146.160304	3662.000000
3147.330462	3401.000000
3148.495964	3674.000000
3149.661291	3667.000000
3150.826445	3761.000000
3151.991426	3613.000000
3153.157726	3510.000000
3154.319374	3729.000000
3155.482341	3660.000000
3156.645136	3604.000000
3157.807758	3534.000000
3158.968714	3545.000000
3160.129499	3562.000000
3161.290111	3500.000000
3162.449059	3474.000000
3163.607836	3533.000000
3164.766440	3567.000000
3165.924873	3523.000000
3167.083135	3446.000000
3168.239734	3445.000000
3169.394672	3570.000000
3170.550929	3568.000000
3171.705525	3499.000000
3172.859951	3425.000000
3174.012717	3527.000000
3175.165312	3541.000000
3176.317738	3480.000000
3177.469994	3573.000000
3178.622079	3491.000000
3179.771018	3600.000000
3180.922765	3573.000000
3182.072853	3390.000000
3183.221285	3575.000000
3184.369547	3441.000000
3185.517641	3658.000000
3186.665566	3450.000000
3187.811835	3583.000000
3188.957936	3609.000000
3190.102383	3623.000000
3191.246662	3553.000000
3192.390773	3651.000000
3193.536201	3490.000000
3194.678491	3555.000000
3195.820614	3698.000000
3196.962569	3644.000000
3198.104357	3477.000000
3199.245978	3547.000000
3200.384464	3488.000000
3201.524267	3541.000000
3202.665387	3470.000000
3203.803374	3436.000000
3204.939711	3472.000000
3206.075882	3578.000000
3207.213370	3667.000000
3208.349210	3431.000000
3209.486367	3726.000000
3210.618911	3556.000000
3211.755737	3509.000000
3212.887951	3614.000000
3214.021482	3581.000000
3215.154849	3561.000000
3216.285088	3640.000000
3217.418125	3508.000000
3218.548036	3489.000000
3219.679263	3528.000000
3220.807366	3329.000000
3221.938265	3558.000000
3223.067520	3364.000000
3224.195132	3505.000000
3225.319621	3588.000000
3226.448386	3594.000000
3227.574029	3325.000000
3228.699510	3480.000000
3229.823349	3453.000000
3230.949982	3552.000000
3232.072018	3385.000000
3233.195370	3435.000000
3234.318560	3568.000000
3235.441587	3383.000000
3236.562976	3418.000000
3237.684202	3396.000000
3238.803791	3393.000000
3239.923218	3478.000000
3241.041007	3530.000000
3242.161588	3503.000000
3243.279056	3444.000000
3244.396363	3588.000000
3245.513510	3515.000000
3246.629020	3509.000000
3247.745846	3452.000000
3248.859562	3622.000000
3249.976067	3598.000000
3251.090938	3598.000000
3252.202699	3532.000000
3253.314302	3588.000000
3254.427220	3549.000000
3255.539978	3583.000000
3256.649630	3505.000000
3257.760597	3508.000000
3258.871405	3512.000000
3259.980581	3540.000000
3261.088126	3545.000000
3262.196986	3544.000000
3263.305688	3544.000000
3264.411287	3516.000000
3265.518200	3466.000000
3266.623484	3636.000000
3267.730082	3422.000000
3268.833580	3690.000000
3269.938393	3516.000000
3271.043047	3513.000000
3272.144604	3448.000000
3273.246004	3639.000000
3274.348718	3653.000000
3275.451276	3542.000000
3276.550737	3654.000000
3277.652982	3694.000000
3278.752131	3663.000000
3279.849656	3531.000000
3280.947025	3517.000000
3282.047176	3619.000000
3283.144235	3585.000000
3284.241138	3611.000000
3285.337886	3559.000000
3286.430076	3544.000000
3287.526514	3428.000000
3288.621330	3475.000000
3289.715992	3550.000000
3290.809032	3584.000000
3291.901917	3626.000000
3292.993182	3436.000000
3294.085760	3460.000000
3295.176718	3493.000000
3296.266056	3526.000000
3297.355241	3611.000000
3298.445739	3562.000000
3299.533152	3610.000000
3300.620412	3563.000000
3301.708985	3525.000000
3302.797405	3461.000000
3303.881279	3643.000000
3304.969394	3565.000000
3306.054427	3518.000000
3307.137845	3556.000000
3308.222575	3592.000000
3309.305689	3584.000000
3310.390116	3605.000000
3311.471464	3543.000000
3312.554124	3548.000000
3313.635170	3478.000000
3314.716065	3676.000000
3315.795346	3545.000000
3316.874477	3610.000000
3317.954920	3548.000000
3319.032288	3447.000000
3320.110968	3458.000000
3321.188036	3497.000000
3322.264955	3613.000000
3323.340262	3552.000000
3324.415420	3654.000000
3325.491889	3601.000000
3326.565288	3503.000000
3327.638537	3632.000000
3328.713098	3562.000000
3329.786050	3713.000000
3330.857393	3605.000000
3331.930047	3687.000000
3332.999635	3522.000000
3334.070533	3471.000000
3335.139824	3625.000000
3336.210426	3508.000000
3337.279421	3417.000000
3338.346810	3407.000000
3339.412594	3373.000000
3340.482604	3424.000000
3341.549551	3412.000000
3342.613436	3538.000000
3343.680088	3528.000000
3344.745137	3431.000000
3345.808582	3500.000000
3346.871881	3502.000000
3347.935033	3481.000000
3348.998039	3506.000000
3350.060899	3485.000000
3351.122157	3630.000000
3352.180358	3485.000000
3353.242779	3536.000000
3354.302145	3385.000000
3355.361365	3623.000000
3356.421894	3413.000000
3357.477915	3554.000000
3358.536699	3510.000000
3359.590976	3510.000000
3360.648017	3586.000000
3361.703459	3616.000000
3362.760211	3585.000000
3363.815364	3547.000000
3364.868920	3509.000000
3365.920880	3543.000000
3366.975601	3536.000000
3368.027273	3661.000000
3369.078802	3482.000000
3370.131639	3566.000000
3371.181429	3386.000000
3372.232528	3570.000000
3373.280581	3453.000000
3374.331393	3773.000000
3375.379161	3577.000000
3376.426786	3599.000000
3377.474268	3509.000000
3378.520158	3660.000000
3379.567356	3435.000000
3380.611512	3599.000000
3381.658426	3529.000000
3382.703748	3545.000000
3383.746029	3480.000000
3384.788170	3686.000000
3385.831618	3585.000000
3386.874925	3677.000000
3387.916643	3571.000000
3388.958219	3674.000000
3389.999654	3405.000000
3391.039501	3590.000000
3392.077759	3587.000000
3393.117325	3730.000000
3394.156751	3495.000000
3395.194589	3564.000000
3396.230840	3477.000000
3397.266952	3575.000000
3398.304371	3575.000000
3399.338757	3454.000000
3400.374450	3532.000000
3401.410004	3571.000000
3402.442527	3430.000000
3403.477803	3588.000000
3404.510048	3471.000000
3405.542155	3578.000000
3406.572678	3595.000000
3407.604508	3557.000000
3408.636200	3478.000000
3409.664864	3685.000000
3410.693391	3455.000000
3411.723224	3507.000000
3412.752920	3530.000000
3413.779590	3699.000000
3414.807567	3677.000000
3415.832519	3555.000000
3416.860221	3455.000000
3417.884900	3573.000000
3418.910885	3443.000000
3419.935290	3520.000000
3420.959559	3493.000000
3421.982249	3631.000000
3423.004803	3523.000000
3424.028663	3478.000000
3425.049503	3564.000000
3426.070207	3620.000000
3427.092218	3612.000000
3428.111210	3532.000000
3429.130066	3465.000000
3430.150229	3562.000000
3431.167375	3532.000000
