-116.707459	16.666667
-114.037859	21.333333
-111.371194	39.000000
-108.705281	35.000000
-106.042300	28.666667
-103.377890	-3.000000
-100.716410	-8.000000
-98.053501	5.333333
-95.395698	3.000000
-92.736466	4.333333
-90.077982	-9.000000
-87.422422	0.666667
-84.765434	-4.000000
-82.113544	20.666667
-79.460224	4.333333
-76.809823	18.000000
-74.157993	24.000000
-71.511254	26.666667
-68.863086	9.333333
-66.215660	9.000000
-63.571148	20.666667
-60.925208	-4.666667
-58.284349	11.666667
-55.642061	24.000000
-53.002682	19.000000
-50.361873	11.666667
-47.721805	2.000000
-45.086809	20.666667
-42.450385	7.666667
-39.816863	54.666667
-37.181913	12.000000
-34.552028	55.666667
-31.918551	-18.333333
-29.290136	20.333333
-26.662455	30.333333
-24.033345	23.666667
-21.409292	12.333333
-18.781650	26.000000
-16.159061	20.000000
-13.537204	45.000000
-10.916077	58.666667
-8.295680	150.333333
-5.678172	398.666667
-3.059235	1226.000000
-0.443183	2925.333333
2.172140	3554.000000
4.786736	1964.333333
7.398449	266.000000
10.011591	40.000000
12.619699	26.333333
15.231389	11.333333
17.838048	39.333333
20.446135	41.333333
23.053498	31.333333
25.655836	4.333333
28.261752	23.000000
30.862646	-1.333333
33.464968	-0.666667
36.062273	-5.333333
38.663153	37.666667
41.259018	29.666667
43.856312	8.666667
46.452886	24.000000
49.044451	35.666667
51.637444	22.333333
54.227576	43.333333
56.819136	15.000000
59.407836	42.666667
61.997963	16.333333
64.583091	25.333333
67.169647	-1.333333
69.755489	51.333333
72.338477	-7.333333
74.922891	14.000000
77.500177	22.333333
80.081029	39.333333
82.659032	5.000000
85.236325	34.333333
87.815044	14.000000
90.388781	1.666667
92.963946	-15.666667
95.536267	47.666667
98.107880	45.666667
100.676653	44.666667
103.246853	-5.666667
105.814215	38.666667
108.383002	21.000000
110.948953	79.333333
113.512069	21.333333
116.078741	50.333333
118.636192	72.333333
121.199328	130.333333
123.757504	212.000000
126.319235	461.666667
128.876009	721.333333
131.434210	819.333333
133.987457	763.000000
136.540007	780.000000
139.096107	922.333333
141.647259	1147.333333
144.197714	1408.666667
146.747471	1628.666667
149.294409	1696.666667
151.840652	1705.666667
154.388320	1718.666667
156.935292	1721.666667
159.477329	1587.333333
162.018672	1649.000000
164.559322	1676.333333
167.101398	1755.666667
169.640662	1911.333333
172.177118	2053.333333
174.712882	2200.333333
177.250072	2407.000000
179.786571	2657.000000
182.320264	2936.666667
184.851153	3421.000000
187.381355	4037.333333
189.912981	4734.666667
192.441806	5690.000000
194.967832	6986.333333
197.493172	8475.000000
200.019937	10095.333333
202.543906	11909.666667
205.067190	13073.333333
207.589789	13613.000000
210.109595	13470.000000
212.628718	12211.000000
215.147158	10697.000000
217.667022	9017.666667
220.179885	7484.666667
222.696279	6211.000000
225.211991	5369.000000
227.722813	4516.333333
230.235060	3932.000000
232.744525	3434.333333
235.253311	3167.666667
237.761418	2841.000000
240.270950	2611.333333
242.775601	2408.333333
245.279576	2299.333333
247.784975	2199.666667
250.285499	2079.000000
252.789547	2083.666667
255.286623	2044.666667
257.787223	2056.666667
260.285051	2408.333333
262.782206	2834.333333
265.278688	3390.333333
267.770307	3199.000000
270.265446	2500.666667
272.757818	1740.333333
275.249520	1477.666667
277.738459	1371.333333
280.228822	1227.333333
282.716422	1289.000000
285.201263	1187.666667
287.689619	1188.000000
290.171035	1166.666667
292.655965	1057.666667
295.136050	1109.000000
297.619647	1060.666667
300.098401	1094.333333
302.578579	1082.333333
305.056004	1043.333333
307.532766	1083.666667
310.008865	1047.000000
312.482215	1079.666667
314.954903	1096.000000
317.426930	1107.000000
319.898296	1141.666667
322.366917	1150.000000
324.834880	1173.666667
327.304264	1081.333333
329.768826	1060.666667
332.236892	1088.666667
334.700138	1083.666667
337.162726	1141.333333
339.624658	1156.333333
342.085933	1196.666667
344.544474	1255.666667
347.004437	1358.000000
349.461667	1629.000000
351.918243	2326.000000
354.374165	3408.000000
356.827357	4183.333333
359.281972	3429.333333
361.731785	2183.333333
364.185094	1540.666667
366.633605	1305.000000
369.081464	1242.333333
371.530746	1160.666667
373.975234	1202.666667
376.421144	1137.333333
378.866404	1103.333333
381.308946	1149.000000
383.750840	1208.666667
386.192087	1197.000000
388.630618	1325.000000
391.070571	1618.666667
393.507810	2017.666667
395.942337	2171.666667
398.380352	1891.666667
400.813590	1697.666667
403.248249	1763.666667
405.678136	1779.666667
408.111508	1504.666667
410.540110	1295.000000
412.968070	1265.333333
415.397452	1246.000000
417.822068	1309.333333
420.248106	1295.666667
422.673503	1351.000000
425.098260	1443.333333
427.518259	1460.333333
429.939679	1447.666667
432.358402	1581.333333
434.778546	1602.333333
437.195995	1741.333333
439.614864	1860.333333
442.031040	2085.333333
444.442468	2404.666667
446.857374	2893.333333
449.269589	3518.666667
451.681170	4633.000000
454.092117	6590.000000
456.500378	9735.333333
458.908006	15924.666667
461.315002	27145.666667
463.721367	40498.666667
466.125049	47452.333333
468.528101	41542.000000
470.930523	27807.666667
473.332315	16606.333333
475.731430	10789.666667
478.131964	7793.333333
480.531869	6037.333333
482.927051	4958.000000
485.325700	4228.000000
487.719629	3719.333333
490.112932	3314.333333
492.505609	2987.666667
494.897661	2807.000000
497.291131	2548.000000
499.679889	2476.333333
502.065981	2344.666667
504.453493	2328.333333
506.840382	2585.333333
509.224607	2836.666667
511.610250	2891.666667
513.993232	2444.333333
516.373553	2048.666667
518.755293	1866.333333
521.134374	1698.333333
523.514874	1661.666667
525.892716	1576.000000
528.267903	1593.666667
530.642472	1534.333333
533.018459	1495.666667
535.391794	1477.000000
537.766546	1442.666667
540.136613	1412.000000
542.506064	1447.000000
544.876933	1375.000000
547.243122	1404.333333
549.610729	1373.000000
551.975690	1359.333333
554.340038	1299.000000
556.703773	1327.666667
559.068926	1293.000000
561.429407	1260.000000
563.791306	1292.000000
566.150564	1284.333333
568.507185	1218.666667
570.867250	1249.333333
573.220624	1285.333333
575.577443	1259.666667
577.931627	1205.666667
580.285202	1204.000000
582.638170	1264.000000
584.988505	1219.666667
587.340258	1278.666667
589.685334	1245.666667
592.035874	1197.666667
594.379740	1270.666667
596.729068	1207.666667
599.073747	1249.666667
601.415802	1177.333333
603.759274	1195.666667
606.100123	1182.666667
608.440370	1226.000000
610.777996	1195.666667
613.119057	1172.333333
615.455480	1172.333333
617.793320	1138.666667
620.128543	1176.000000
622.461150	1128.666667
624.795173	1227.666667
627.126582	1145.000000
629.457393	1175.000000
631.787607	1122.666667
634.117222	1178.333333
636.442214	1118.666667
638.772648	1196.666667
641.098461	1198.333333
643.421666	1138.000000
645.746288	1170.666667
648.068304	1130.000000
650.389726	1165.333333
652.708546	1145.333333
655.028781	1129.333333
657.348423	1172.333333
659.665464	1122.666667
661.981913	1129.333333
664.295764	1113.666667
666.611031	1165.000000
668.923701	1119.000000
671.237786	1118.333333
673.547271	1137.000000
675.858172	1179.000000
678.166480	1143.000000
680.474200	1152.333333
682.783334	1170.333333
685.087876	1147.333333
687.391832	1178.333333
689.695202	1254.000000
691.999986	1315.333333
694.300184	1428.666667
696.601796	1529.333333
698.902823	1552.333333
701.199269	1417.333333
703.497130	1222.000000
705.794407	1243.333333
708.091101	1165.000000
710.383219	1118.666667
712.678748	1154.000000
714.969703	1190.666667
717.262073	1184.333333
719.551868	1137.666667
721.841082	1149.333333
724.129717	1108.666667
726.415779	1090.000000
728.703256	1095.333333
730.988161	1120.666667
733.272489	1072.666667
735.554248	1178.333333
737.837421	1140.666667
740.120017	1158.333333
742.398057	1120.666667
744.677512	1141.666667
746.956390	1153.333333
749.234694	1157.000000
751.508448	1156.000000
753.783615	1146.000000
756.058209	1145.666667
758.330244	1159.000000
760.603692	1181.333333
762.874582	1133.333333
765.142916	1182.333333
767.412663	1185.000000
769.679856	1151.000000
771.946478	1170.000000
774.212530	1190.333333
776.476031	1175.000000
778.740945	1186.000000
781.005289	1222.666667
783.265104	1230.000000
785.526331	1134.333333
787.786991	1287.333333
790.045105	1294.333333
792.300674	1288.333333
794.559634	1325.666667
796.812095	1339.666667
799.069922	1506.333333
801.323231	1576.333333
803.574000	1779.333333
805.826181	1955.333333
808.075823	2338.333333
810.326878	2564.666667
812.573421	2295.666667
814.821376	1945.333333
817.066797	1640.333333
819.313629	1449.666667
821.559900	1387.000000
823.801666	1356.000000
826.046816	1309.333333
828.285493	1322.000000
830.527552	1263.000000
832.765113	1300.333333
835.004086	1233.666667
837.240532	1242.000000
839.478389	1272.333333
841.713721	1246.000000
843.946530	1215.000000
846.180750	1177.333333
848.412447	1243.333333
850.643590	1286.000000
852.874178	1205.000000
855.104212	1268.333333
857.333692	1206.000000
859.558690	1162.000000
861.787063	1245.000000
864.010956	1220.333333
866.236261	1177.000000
868.457090	1135.333333
870.681291	1244.333333
872.901019	1212.333333
875.122157	1155.000000
877.342745	1161.000000
879.560824	1191.000000
881.780312	1175.666667
883.995334	1235.666667
886.209808	1277.666667
888.423735	1186.666667
890.637115	1213.000000
892.849947	1250.333333
895.062233	1227.000000
897.272016	1243.333333
899.481254	1207.000000
901.689947	1252.333333
903.896141	1229.000000
906.103744	1216.666667
908.308849	1197.000000
910.513411	1237.333333
912.715478	1241.000000
914.918954	1199.666667
917.119936	1197.666667
919.320376	1250.666667
921.522225	1247.333333
923.717683	1167.000000
925.916500	1246.000000
928.110878	1232.666667
930.308614	1186.000000
932.501914	1165.333333
934.696623	1179.333333
936.888846	1145.666667
939.080530	1139.333333
941.271677	1156.000000
943.460341	1145.000000
945.648469	1178.333333
947.834116	1150.000000
950.023115	1184.000000
952.207691	1242.333333
954.391732	1176.333333
956.579123	1176.000000
958.758210	1187.666667
960.940648	1188.333333
963.122552	1148.000000
965.301981	1179.666667
967.478938	1219.666667
969.657303	1174.333333
971.837075	1159.333333
974.010498	1158.666667
976.187267	1201.333333
978.359629	1151.666667
980.533399	1202.000000
982.702765	1134.000000
984.875475	1233.000000
987.045720	1192.666667
989.215436	1136.666667
991.384623	1183.333333
993.549413	1195.000000
995.717544	1056.000000
997.881281	1185.666667
1000.046424	1159.333333
1002.209108	1177.000000
1004.371267	1162.666667
1006.530969	1126.666667
1008.690146	1186.000000
1010.850730	1205.333333
1013.008859	1160.666667
1015.166465	1162.666667
1017.323547	1179.666667
1019.480105	1153.666667
1021.632284	1195.666667
1023.785870	1167.666667
1025.938934	1158.333333
1028.089549	1182.000000
1030.241571	1224.666667
1032.389219	1134.000000
1034.540199	1134.666667
1036.686808	1222.666667
1038.832898	1193.000000
1040.978470	1237.000000
1043.125447	1180.000000
1045.266135	1173.666667
1047.410153	1232.333333
1049.551730	1179.000000
1051.692791	1209.666667
1053.835256	1201.333333
1055.971442	1177.000000
1058.110953	1254.666667
1060.246110	1303.333333
1062.384591	1232.666667
1064.518718	1278.333333
1066.652332	1275.666667
1068.787351	1279.666667
1070.918020	1335.333333
1073.050094	1325.333333
1075.179739	1381.000000
1077.308872	1498.333333
1079.437493	1693.666667
1081.565603	1888.000000
1083.691287	1951.333333
1085.816461	1801.666667
1087.943039	1514.333333
1090.065279	1420.000000
1092.188924	1328.000000
1094.308234	1286.000000
1096.432774	1253.666667
1098.551068	1287.333333
1100.670767	1259.000000
1102.788047	1223.333333
1104.904821	1191.000000
1107.021088	1168.000000
1109.134939	1178.333333
1111.250195	1237.666667
1113.361127	1224.333333
1115.475372	1175.000000
1117.585296	1159.000000
1119.696624	1113.000000
1121.807447	1170.666667
1123.913954	1181.000000
1126.023771	1239.000000
1128.129273	1149.000000
1130.236178	1181.000000
1132.336868	1215.333333
1134.442770	1233.000000
1136.544363	1215.333333
1138.647359	1185.666667
1140.749854	1217.000000
1142.846142	1254.333333
1144.947637	1226.666667
1147.044830	1303.666667
1149.141525	1311.666667
1151.237721	1351.666667
1153.333420	1445.666667
1155.428620	1529.000000
1157.521424	1687.333333
1159.615631	1919.000000
1161.703646	2026.666667
1163.796859	1911.333333
1165.883884	1718.666667
1167.974208	1457.666667
1170.060244	1350.000000
1172.149579	1325.333333
1174.232732	1245.000000
1176.317287	1279.333333
1178.403244	1239.000000
1180.484919	1214.000000
1182.567996	1209.000000
1184.648687	1224.333333
1186.728886	1194.000000
1188.808594	1157.666667
1190.887811	1181.000000
1192.964646	1160.666667
1195.039100	1166.666667
1197.116845	1179.000000
1199.190321	1172.000000
1201.265197	1159.333333
1203.335806	1222.333333
1205.407816	1175.333333
1207.477451	1183.666667
1209.548486	1182.000000
1211.619033	1177.666667
1213.685319	1147.666667
1215.753006	1178.666667
1217.818321	1179.333333
1219.885036	1175.333333
1221.947495	1246.000000
1224.013239	1263.666667
1226.074729	1239.666667
1228.137620	1228.333333
1230.198143	1258.666667
1232.258182	1276.000000
1234.317739	1229.333333
1236.374930	1268.000000
1238.431640	1196.666667
1240.485986	1175.000000
1242.543614	1213.333333
1244.598879	1199.333333
1246.649903	1208.666667
1248.702327	1158.000000
1250.754271	1179.333333
1252.803857	1181.000000
1254.852964	1179.000000
1256.901593	1205.666667
1258.949743	1201.333333
1260.997414	1138.000000
1263.040855	1180.333333
1265.087572	1142.333333
1267.131935	1186.000000
1269.175822	1181.000000
1271.217357	1205.000000
1273.256543	1122.333333
1275.299002	1165.000000
1277.337238	1126.333333
1279.376873	1144.333333
1281.416033	1224.666667
1283.450974	1144.666667
1285.487314	1175.666667
1287.521310	1193.333333
1289.556703	1126.666667
1291.587884	1167.000000
1293.620462	1152.666667
1295.652569	1183.333333
1297.682335	1089.666667
1299.713498	1151.666667
1301.740455	1203.000000
1303.768809	1179.666667
1305.792958	1075.000000
1307.820373	1130.000000
1309.843585	1144.333333
1311.868195	1132.666667
1313.890471	1182.666667
1315.914144	1129.333333
1317.935484	1143.666667
1319.956356	1119.333333
1321.976761	1084.000000
1323.992973	1134.666667
1326.010582	1174.333333
1328.025863	1192.333333
1330.044403	1118.000000
1332.058754	1150.000000
1334.070779	1163.333333
1336.086061	1196.000000
1338.097158	1114.666667
1340.109652	1178.666667
1342.117963	1214.000000
1344.129529	1094.333333
1346.135057	1113.000000
1348.143840	1148.000000
1350.148445	1132.666667
1352.156304	1114.333333
1354.163701	1128.000000
1356.165067	1103.666667
1358.167829	1153.333333
1360.170132	1120.333333
1362.171975	1095.000000
1364.173358	1168.000000
1366.172428	1138.666667
1368.171039	1125.666667
1370.169192	1117.666667
1372.166886	1113.666667
1374.160418	1107.333333
1376.155345	1147.666667
1378.149816	1159.666667
1380.143830	1122.666667
1382.135537	1158.666667
1384.126789	1102.666667
1386.115735	1104.000000
1388.106076	1154.333333
1390.095962	1059.000000
1392.083544	1170.000000
1394.070673	1138.333333
1396.055500	1104.666667
1398.041722	1131.333333
1400.025644	1099.666667
1402.009113	1128.333333
1403.992129	1119.000000
1405.972848	1062.666667
1407.954961	1086.666667
1409.934778	1127.000000
1411.914143	1116.666667
1413.889370	1085.666667
1415.867835	1107.000000
1417.844007	1130.333333
1419.819730	1138.000000
1421.795003	1124.000000
1423.767985	1100.000000
1425.740519	1144.333333
1427.712605	1131.000000
1429.684244	1116.000000
1431.651754	1136.333333
1433.624338	1118.333333
1435.589116	1154.000000
1437.558967	1110.666667
1439.524694	1110.333333
1441.491813	1087.333333
1443.456649	1105.333333
1445.417365	1091.000000
1447.383149	1103.666667
1449.342978	1086.333333
1451.304201	1124.333333
1453.266816	1102.666667
1455.225316	1084.000000
1457.183373	1081.000000
1459.140989	1165.333333
1461.098162	1078.333333
1463.053060	1148.333333
1465.009351	1087.666667
1466.963367	1099.000000
1468.916942	1087.000000
1470.868245	1109.000000
1472.820941	1154.000000
1474.771364	1096.666667
1476.721349	1091.333333
1478.670895	1116.666667
1480.618172	1103.666667
1482.563181	1075.333333
1484.509583	1103.333333
1486.455547	1114.666667
1488.401074	1120.666667
1490.344335	1056.333333
1492.287161	1110.333333
1494.227723	1109.333333
1496.169676	1087.666667
1498.109367	1084.333333
1500.048624	1098.666667
1501.987445	1064.666667
1503.924007	1075.000000
1505.861960	1120.666667
1507.797654	1108.333333
1509.732915	1090.000000
1511.665920	1122.666667
1513.598492	1084.000000
1515.530632	1072.333333
1517.462340	1106.333333
1519.391794	1132.333333
1521.322639	1090.666667
1523.253052	1086.333333
1525.179393	1098.666667
1527.107125	1070.000000
1529.032606	1117.666667
1530.957658	1013.333333
1532.882281	1095.000000
1534.806475	1087.000000
1536.728421	1051.333333
1538.651758	1066.000000
1540.572848	1077.333333
1542.491694	1088.000000
1544.411930	1083.666667
1546.329923	1104.666667
1548.247489	1086.000000
1550.162813	1091.666667
1552.079527	1142.333333
1553.992186	1091.333333
1555.908049	1091.000000
1557.821672	1125.000000
1559.733057	1083.666667
1561.645832	1087.000000
1563.554557	1133.000000
1565.464671	1094.666667
1567.374362	1065.666667
1569.283630	1113.333333
1571.190664	1107.333333
1573.095465	1104.666667
1575.001655	1131.000000
1576.905613	1063.333333
1578.809150	1042.000000
1580.712267	1145.666667
1582.613154	1170.333333
1584.515430	1116.000000
1586.415478	1081.666667
1588.316913	1101.333333
1590.214315	1102.000000
1592.111298	1104.666667
1594.007863	1085.666667
1595.905816	1089.333333
1597.797934	1134.000000
1599.693245	1086.666667
1601.588139	1094.333333
1603.480811	1111.333333
1605.373066	1100.000000
1607.263102	1068.333333
1609.152722	1114.000000
1611.041927	1087.000000
1612.930717	1140.000000
1614.817289	1039.000000
1616.705249	1125.666667
1618.589192	1112.000000
1620.474522	1098.666667
1622.359439	1101.333333
1624.242142	1123.000000
1626.126232	1130.000000
1628.006310	1088.000000
1629.887776	1083.666667
1631.767031	1073.333333
1633.647672	1088.333333
1635.522509	1116.333333
1637.402327	1042.000000
1639.278141	1101.333333
1641.153544	1119.000000
1643.030333	1055.666667
1644.901326	1051.333333
1646.775500	1066.000000
1648.645675	1070.666667
1650.519032	1105.333333
1652.390184	1034.333333
1654.259136	1084.333333
1656.129472	1078.333333
1657.995816	1044.000000
1659.863545	1006.000000
1661.729075	1093.000000
1663.595991	1072.333333
1665.458918	1021.666667
1667.323230	1028.000000
1669.185346	1048.666667
1671.047057	1046.666667
1672.910154	1039.333333
1674.771055	1010.333333
1676.629764	1080.666667
1678.488069	1021.333333
1680.347759	1032.333333
1682.201681	1021.333333
1684.058777	1035.666667
1685.915470	1033.333333
1687.768186	1022.333333
1689.624074	1012.333333
1691.475988	1015.333333
1693.327501	992.333333
1695.178613	1011.000000
1697.029325	968.333333
1698.879635	1025.666667
1700.727762	992.333333
1702.577273	998.666667
1704.421035	1029.666667
1706.269746	1011.000000
1708.112711	1023.000000
1709.958843	1015.000000
1711.801012	979.000000
1713.646347	975.333333
1715.485941	1039.000000
1717.326919	1014.666667
1719.169280	1000.666667
1721.007685	1001.333333
1722.847473	1021.333333
1724.685086	982.333333
1726.522303	999.666667
1728.357347	971.666667
1730.193774	984.000000
1732.028029	1046.000000
1733.861889	958.000000
1735.695355	1009.333333
1737.524876	995.000000
1739.357555	934.666667
1741.186290	965.333333
1743.018182	987.000000
1744.846132	1012.000000
1746.673691	968.666667
1748.500857	985.666667
1750.327632	1003.333333
1752.154015	947.333333
1753.976462	951.000000
1755.802064	1042.000000
1757.623731	1044.333333
1759.446780	968.666667
1761.267667	984.333333
1763.088166	1008.666667
1764.910045	1038.333333
1766.726226	1001.666667
1768.545558	1005.666667
1770.360963	969.666667
1772.179518	951.000000
1773.994148	956.333333
1775.808391	968.666667
1777.622248	954.333333
1779.435718	976.666667
1781.247035	976.666667
1783.059732	978.666667
1784.872044	991.333333
1786.680438	970.666667
1788.490212	980.000000
1790.296072	958.666667
1792.105077	964.000000
1793.910169	976.000000
1795.716642	944.666667
1797.522731	950.333333
1799.324909	1001.000000
1801.130232	993.000000
1802.931646	935.000000
1804.734440	978.333333
1806.533328	963.333333
1808.333597	967.000000
1810.133484	966.000000
1811.931229	966.000000
1813.728594	966.000000
1815.525579	993.000000
1817.322183	966.666667
1819.116648	988.333333
1820.912492	949.333333
1822.702681	969.000000
1824.497767	982.666667
1826.287201	924.666667
1828.079771	934.000000
1829.870206	944.000000
1831.658507	958.000000
1833.449943	929.333333
1835.235733	931.333333
1837.022903	986.333333
1838.807941	920.333333
1840.596113	948.333333
1842.380399	933.333333
1844.162555	979.333333
1845.946091	929.000000
1847.727498	938.000000
1849.510284	923.666667
1851.289189	949.333333
1853.069474	958.333333
1854.847632	895.000000
1856.627169	898.000000
1858.404581	911.666667
1860.179869	911.666667
1861.956535	939.000000
1863.731079	919.666667
1865.507001	940.666667
1867.277302	949.000000
1869.050731	970.666667
1870.822040	905.333333
1872.592978	948.000000
1874.365294	900.666667
1876.131996	935.666667
1877.901824	963.666667
1879.667788	957.666667
1881.436875	933.000000
1883.202101	981.000000
1884.966959	908.000000
1886.733194	940.666667
1888.495570	906.333333
1890.257579	940.333333
1892.019220	918.333333
1893.780495	940.666667
1895.541402	934.666667
1897.301943	979.333333
1899.060374	909.333333
1900.818439	929.666667
1902.574397	886.666667
1904.331731	943.666667
1906.088700	900.666667
1907.843562	919.666667
1909.596320	902.000000
1911.348713	941.666667
1913.102483	916.000000
1914.854149	924.333333
1916.603713	911.666667
1918.354652	881.000000
1920.105229	905.333333
1921.851966	926.000000
1923.600080	918.333333
1925.346094	935.666667
1927.093483	869.333333
1928.838775	919.666667
1930.581969	885.666667
1932.326538	903.000000
1934.069012	943.000000
1935.811125	905.000000
1937.552878	880.000000
1939.294271	923.000000
1941.033571	920.666667
1942.772512	913.000000
1944.511094	913.666667
1946.247585	939.000000
1947.983718	942.333333
1949.721225	945.666667
1951.454910	865.666667
1953.189970	923.666667
1954.922941	890.666667
1956.655556	882.333333
1958.387815	895.000000
1960.119717	895.666667
1961.849533	890.000000
1963.577264	850.333333
1965.306370	938.666667
1967.035121	906.666667
1968.761788	940.000000
1970.488101	927.666667
1972.215787	902.666667
1973.937937	907.333333
1975.663188	847.666667
1977.384632	946.000000
1979.109177	904.333333
1980.831641	917.666667
1982.550303	918.666667
1984.272063	918.333333
1985.990021	925.333333
1987.709352	896.000000
1989.424884	918.000000
1991.145236	852.000000
1992.861790	879.000000
1994.574547	872.000000
1996.290400	917.333333
1998.004181	889.000000
1999.717612	897.000000
2001.428972	890.000000
2003.141704	925.000000
2004.850646	914.666667
2006.562680	901.666667
2008.269206	899.000000
2009.978823	852.000000
2011.686374	940.666667
2013.393576	893.333333
2015.098713	913.333333
2016.803504	893.000000
2018.509666	917.333333
2020.212046	870.666667
2021.915797	897.333333
2023.617486	838.333333
2025.318830	902.666667
2027.019828	889.666667
2028.718765	952.666667
2030.419074	914.333333
2032.115608	904.666667
2033.813513	862.000000
2035.509359	881.333333
2037.208291	871.000000
2038.901737	913.333333
2040.596554	897.333333
2042.291029	903.666667
2043.981735	887.000000
2045.675525	928.000000
2047.365548	932.000000
2049.056942	889.000000
2050.746283	893.000000
2052.436994	890.000000
2054.123942	873.000000
2055.810551	915.333333
2057.498529	878.666667
2059.182748	856.333333
2060.868338	889.000000
2062.553588	887.333333
2064.236789	891.666667
2065.921361	887.000000
2067.600470	879.000000
2069.284364	878.333333
2070.962797	851.333333
2072.644308	851.666667
2074.322067	844.333333
2075.999490	826.666667
2077.678282	834.000000
2079.355032	857.333333
2081.029740	809.666667
2082.705817	863.333333
2084.379853	842.333333
2086.053555	855.333333
2087.726921	851.666667
2089.398248	839.333333
2091.069241	845.333333
2092.739900	881.000000
2094.410225	850.666667
2096.080216	786.666667
2097.748171	847.666667
2099.415793	858.666667
2101.081380	889.333333
2102.748336	850.666667
2104.413259	823.000000
2106.077850	896.000000
2107.740409	826.333333
2109.404336	918.000000
2111.066232	842.000000
2112.727798	863.333333
2114.389032	842.333333
2116.048238	824.333333
2117.707113	871.666667
2119.365659	893.333333
2121.023874	868.333333
2122.678367	871.000000
2124.335924	814.333333
2125.993152	885.666667
2127.646658	876.666667
2129.301532	901.333333
2130.952687	846.666667
2132.606905	898.000000
2134.257406	840.000000
2135.909273	860.000000
2137.555732	828.000000
2139.206946	849.666667
2140.854446	813.666667
2142.503313	827.333333
2144.150161	840.333333
2145.796684	825.666667
2147.442881	830.000000
2149.085370	852.333333
2150.730917	803.666667
2152.372757	849.000000
2154.017654	809.000000
2155.658845	837.000000
2157.299714	826.000000
2158.940258	849.333333
2160.578790	830.333333
2162.218688	843.333333
2163.854886	798.333333
2165.492450	876.333333
2167.129692	855.000000
2168.764924	810.666667
2170.399835	844.666667
2172.034423	814.000000
2173.668691	849.333333
2175.299265	800.333333
2176.932891	846.333333
2178.562825	863.333333
2180.194124	822.000000
2181.823418	820.000000
2183.452393	818.666667
2185.081048	801.333333
2186.709384	842.000000
2188.335718	815.666667
2189.961733	759.333333
2191.585746	810.000000
2193.211125	839.000000
2194.834503	871.666667
2196.459246	796.666667
2198.080308	787.333333
2199.701053	769.000000
2201.323163	816.000000
2202.943275	805.666667
2204.561390	801.000000
2206.179190	860.333333
2207.796675	779.666667
2209.413844	790.000000
2211.030698	789.666667
2212.647236	757.000000
2214.261782	844.666667
2215.874335	752.333333
2217.488252	810.333333
2219.100178	768.000000
2220.713467	769.333333
2222.324766	778.000000
2223.934075	777.000000
2225.544748	777.333333
2227.153432	766.666667
2228.761803	788.000000
2230.368188	764.333333
2231.975936	758.666667
2233.581697	795.000000
2235.187147	786.666667
2236.790612	795.333333
2238.395440	775.666667
2239.998284	754.666667
2241.599145	807.000000
2243.201369	802.666667
2244.801611	810.333333
2246.403215	748.666667
2248.001166	772.666667
2249.600480	740.000000
2251.197814	794.000000
2252.794840	772.666667
2254.393228	756.000000
2255.987967	775.000000
2257.580729	803.000000
2259.174854	784.333333
2260.770340	750.000000
2262.362181	793.333333
2263.953716	792.333333
2265.546613	788.333333
2267.134200	752.666667
2268.726483	753.666667
2270.313460	775.666667
2271.903464	812.666667
2273.488164	794.000000
2275.077558	778.000000
2276.661650	775.666667
2278.247102	731.000000
2279.830586	799.666667
2281.417095	763.666667
2282.999971	774.000000
2284.582544	779.666667
2286.164813	748.666667
2287.743452	752.666667
2289.325116	727.333333
2290.903151	749.666667
2292.484209	723.666667
2294.061640	720.666667
2295.637108	717.666667
2297.215598	745.000000
2298.790464	751.333333
2300.365029	761.000000
2301.939294	759.333333
2303.513258	776.000000
2305.086921	760.000000
2306.660285	753.333333
2308.230030	749.000000
2309.799476	724.333333
2311.371940	751.000000
2312.939130	724.333333
2314.509338	685.000000
2316.075931	718.666667
2317.643884	740.333333
2319.209881	707.333333
2320.775581	703.000000
2322.340983	762.000000
2323.904432	702.333333
2325.469240	737.000000
2327.030440	741.000000
2328.594654	722.333333
2330.153606	773.333333
2331.715573	772.000000
2333.275588	745.666667
2334.835309	742.000000
2336.393080	768.333333
2337.950556	742.000000
2339.507738	741.000000
2341.062972	782.000000
2342.617913	733.666667
2344.172559	705.000000
2345.726912	752.333333
2347.280972	704.666667
2348.834737	744.666667
2350.386558	695.666667
2351.936437	736.000000
2353.489323	736.333333
2355.036966	717.000000
2356.587618	726.333333
2358.134678	712.333333
2359.683096	736.000000
2361.231223	719.000000
2362.775761	745.333333
2364.321657	705.000000
2365.865615	739.000000
2367.410930	712.000000
2368.952660	756.000000
2370.495747	725.000000
2372.036898	733.666667
2373.577760	732.333333
2375.118333	773.000000
2376.658617	693.666667
2378.198612	757.333333
2379.735029	724.333333
2381.274447	739.000000
2382.810287	723.000000
2384.347485	695.333333
2385.881107	726.000000
2387.417729	725.000000
2388.952421	656.000000
2390.485183	721.000000
2392.017658	692.000000
2393.548205	739.666667
2395.081750	701.333333
2396.610084	725.000000
2398.139774	681.666667
2399.669179	680.000000
2401.198299	710.666667
2402.727134	723.666667
2404.250763	703.333333
2405.779028	705.000000
2407.302091	735.000000
2408.829787	700.000000
2410.350644	680.666667
2411.876134	758.333333
2413.398063	670.666667
2414.921348	699.333333
2416.442711	685.000000
2417.962155	733.666667
2419.482954	715.666667
2421.001835	726.666667
2422.520433	682.000000
2424.037114	669.666667
2425.555149	673.666667
2427.072903	684.333333
2428.587106	726.333333
2430.101028	709.000000
2431.614670	674.666667
2433.129667	708.000000
2434.641115	673.000000
2436.153918	682.000000
2437.664807	664.000000
2439.175418	668.333333
2440.684117	649.333333
2442.195802	713.333333
2443.703944	685.000000
2445.211808	680.666667
2446.719394	668.666667
2448.223439	712.000000
2449.730469	632.000000
2451.235591	675.666667
2452.740436	706.333333
2454.243374	675.666667
2455.746036	670.333333
2457.248421	644.666667
2458.748901	691.666667
2460.250734	682.333333
2461.750662	654.666667
2463.250315	662.000000
2464.749693	650.333333
2466.247168	651.000000
2467.742741	662.666667
2469.241294	700.000000
2470.736319	610.666667
2472.232696	664.000000
2473.725547	632.000000
2475.219751	662.000000
2476.713681	624.666667
2478.204087	659.333333
2479.697471	632.000000
2481.188957	665.000000
2482.678546	660.000000
2484.167863	632.333333
2485.655284	631.666667
2487.145681	655.666667
2488.632560	643.333333
2490.120790	633.000000
2491.605503	643.333333
2493.089947	672.666667
2494.575741	630.000000
2496.059644	659.000000
2497.544897	630.666667
2499.025017	673.666667
2500.508110	625.333333
2501.989312	668.333333
2503.470245	665.666667
2504.949289	663.333333
2506.428064	682.000000
2507.906571	647.333333
2509.384810	624.666667
2510.862780	591.333333
2512.337245	642.000000
2513.814680	647.666667
2515.288611	626.666667
2516.763892	659.000000
2518.238906	638.666667
2519.710419	661.000000
2521.183283	649.666667
2522.654264	625.333333
2524.126595	613.000000
2525.593812	660.000000
2527.063996	665.666667
2528.532299	625.000000
2530.000337	684.000000
2531.468110	661.666667
2532.935618	649.000000
2534.402861	653.000000
2535.866612	662.000000
2537.331713	634.666667
2538.794937	626.333333
2540.259510	651.666667
2541.720595	636.666667
2543.183029	646.666667
2544.645200	666.000000
2546.103885	637.666667
2547.567141	604.000000
2549.025302	681.666667
2550.484811	598.333333
2551.939226	597.666667
2553.398212	620.666667
2554.855326	626.666667
2556.310569	626.000000
2557.765550	631.666667
2559.218663	587.666667
2560.673124	638.666667
2562.125715	678.000000
2563.578047	646.000000
2565.028512	643.333333
2566.481932	651.666667
2567.930270	616.333333
2569.381563	639.666667
2570.830991	620.666667
2572.276946	632.333333
2573.725856	637.333333
2575.171296	635.000000
2576.618083	653.666667
2578.063008	620.333333
2579.507674	647.333333
2580.953688	661.666667
2582.396236	598.000000
2583.840131	631.666667
2585.280561	619.666667
2586.722338	610.333333
2588.162256	595.000000
2589.603521	657.666667
2591.041324	597.666667
2592.482077	644.000000
2593.917768	659.000000
2595.356408	636.333333
2596.793190	626.666667
2598.228117	641.000000
2599.665991	627.000000
2601.098808	601.000000
2602.532972	617.000000
2603.965282	627.333333
2605.398938	615.666667
2606.830741	615.666667
2608.262290	589.333333
2609.693587	634.333333
2611.123031	621.666667
2612.552223	606.000000
2613.979565	617.666667
2615.408252	589.666667
2616.836688	598.000000
2618.261676	589.666667
2619.688011	604.666667
2621.112497	615.333333
2622.538329	603.333333
2623.960717	587.000000
2625.384451	621.333333
2626.806338	591.333333
2628.227976	610.666667
2629.647768	558.666667
2631.068906	593.333333
2632.489794	615.666667
2633.907244	581.333333
2635.327633	622.333333
2636.744585	577.333333
2638.161288	574.000000
2639.577743	612.000000
2640.993950	582.000000
2642.409909	593.333333
2643.824027	613.333333
2645.237897	588.000000
2646.649929	641.333333
2648.063304	580.000000
2649.473250	567.333333
2650.886132	591.666667
2652.295585	617.333333
2653.704792	588.333333
2655.112163	627.666667
2656.522468	556.666667
2657.930938	586.000000
2659.337572	636.333333
2660.743961	577.333333
2662.148516	593.333333
2663.554415	601.666667
2664.958481	563.333333
2666.362302	613.000000
2667.765879	618.333333
2669.167625	564.666667
2670.570714	603.000000
2671.970385	575.333333
2673.371400	614.666667
2674.768999	596.000000
2676.169527	550.666667
2677.566641	608.000000
2678.965098	570.000000
2680.361728	626.666667
2681.758115	593.000000
2683.154260	586.666667
2684.548579	602.333333
2685.944241	568.000000
2687.336494	568.000000
2688.730089	585.000000
2690.121860	547.333333
2691.514974	595.333333
2692.906264	586.000000
2694.295731	577.333333
2695.684958	576.000000
2697.073946	621.000000
2698.464275	550.666667
2699.849621	544.000000
2701.237890	574.666667
2702.624339	575.000000
2704.010549	576.000000
2705.396520	574.333333
2706.779093	534.000000
2708.163008	554.666667
2709.546685	497.333333
2710.930123	548.666667
2712.310167	543.666667
2713.691551	564.000000
2715.071121	538.333333
2716.452031	593.666667
2717.831127	529.333333
2719.208409	560.666667
2720.587032	495.333333
2721.963842	548.666667
2723.340415	523.666667
2724.716753	564.000000
2726.091280	576.666667
2727.467147	559.000000
2728.839627	528.666667
2730.215023	550.666667
2731.585459	549.666667
2732.957236	588.333333
2734.328778	607.333333
2735.698512	534.333333
2737.069587	538.333333
2738.438853	570.666667
2739.807886	539.000000
2741.175113	552.000000
2742.542106	533.666667
2743.908867	532.000000
2745.275396	560.333333
2746.640119	544.666667
2748.004610	543.333333
2749.368870	564.333333
2750.732897	523.666667
2752.096693	563.333333
2753.457115	557.000000
2754.820447	534.666667
2756.178837	507.333333
2757.540137	556.000000
2758.898067	528.000000
2760.258905	495.333333
2761.617944	522.000000
2762.973614	590.333333
2764.332192	492.000000
2765.687403	558.000000
2767.042385	523.333333
2768.395571	505.333333
2769.751662	512.666667
2771.104390	536.333333
2772.456890	513.666667
2773.809161	531.666667
2775.162770	527.666667
2776.513019	562.333333
2777.861473	527.333333
2779.212833	554.000000
2780.560833	512.333333
2781.910171	524.000000
2783.257717	534.000000
2784.605037	547.000000
2785.952130	511.333333
2787.297432	525.000000
2788.642507	498.666667
2789.987357	497.333333
2791.331981	536.666667
2792.673253	537.666667
2794.015863	476.666667
2795.358247	526.666667
2796.700406	535.000000
2798.039216	540.666667
2799.380926	508.666667
2800.719288	497.666667
2802.058986	503.000000
2803.396900	530.333333
2804.733029	479.333333
2806.068934	514.666667
2807.406177	477.666667
2808.741636	517.666667
2810.076872	507.333333
2811.410325	546.000000
2812.745115	530.666667
2814.076565	509.333333
2815.410910	540.000000
2816.740357	516.333333
2818.071141	503.666667
2819.401703	550.000000
2820.730486	501.666667
2822.060605	529.000000
2823.388946	504.000000
2824.717066	502.666667
2826.043408	474.000000
2827.371087	492.666667
2828.695432	491.333333
2830.021114	517.333333
2831.345020	487.000000
2832.668707	512.333333
2833.993729	467.000000
2835.315421	477.666667
2836.636895	512.666667
2837.958150	511.000000
2839.279186	486.000000
2840.598449	508.333333
2841.919048	490.333333
2843.237876	498.666667
2844.556485	452.000000
2845.873323	518.333333
2847.189944	507.000000
2848.506348	489.333333
2849.820982	470.666667
2851.136952	503.333333
2852.449601	481.333333
2853.763585	501.666667
2855.077353	499.666667
2856.390904	500.000000
2857.702689	455.333333
2859.012707	501.333333
2860.324060	467.666667
2861.632098	492.333333
2862.941470	446.333333
2864.250628	496.666667
2865.559570	471.666667
2866.866748	478.666667
2868.172164	495.666667
2869.478913	503.000000
2870.783901	480.000000
2872.088675	518.666667
2873.391687	468.333333
2874.697580	516.000000
2875.998619	449.000000
2877.300992	482.666667
2878.601605	483.666667
2879.903552	497.666667
2881.205285	516.666667
2882.503715	486.333333
2883.803478	433.666667
2885.101484	458.000000
2886.399278	481.666667
2887.695316	519.000000
2888.992687	529.666667
2890.288302	463.666667
2891.583706	474.333333
2892.878899	494.333333
2894.170795	466.000000
2895.465567	496.333333
2896.757042	457.000000
2898.049850	480.666667
2899.342448	463.333333
2900.631752	467.000000
2901.922388	462.666667
2903.211273	466.666667
2904.501490	487.000000
2905.788416	479.666667
2907.076674	445.666667
2908.363183	474.000000
2909.649483	505.333333
2910.935576	466.666667
2912.219920	466.666667
2913.507135	485.333333
2914.789524	491.333333
2916.073245	424.666667
2917.355220	449.000000
2918.636987	453.333333
2919.917010	412.000000
2921.199902	488.000000
2922.481049	466.333333
2923.758914	476.666667
2925.039648	455.333333
2926.317101	454.000000
2927.594348	457.666667
2928.869853	432.000000
2930.148226	418.000000
2931.421785	466.666667
2932.698211	468.000000
2933.972896	425.000000
2935.245840	459.666667
2936.520116	427.000000
2937.792652	487.666667
2939.064983	457.666667
2940.334042	466.000000
2941.605966	484.000000
2942.876152	470.000000
2944.146134	441.333333
2945.415913	453.666667
2946.683956	492.666667
2947.950262	408.666667
2949.216367	452.333333
2950.483801	472.333333
2951.749501	468.666667
2953.014998	458.666667
2954.280293	460.333333
2955.542323	429.666667
2956.805683	473.333333
2958.068842	406.000000
2959.330269	411.000000
2960.593025	487.333333
2961.854049	457.000000
2963.113343	462.333333
2964.372437	430.333333
2965.631330	434.666667
2966.890023	433.333333
2968.148516	435.000000
2969.405280	409.000000
2970.661844	409.666667
2971.916681	437.333333
2973.172846	436.333333
2974.425757	474.666667
2975.679997	415.333333
2976.934037	435.333333
2978.186353	447.000000
2979.438469	452.000000
2980.688861	431.000000
2981.942108	415.333333
2983.190578	447.000000
2984.441903	500.000000
2985.689978	443.666667
2986.937857	444.666667
2988.185538	396.000000
2989.433022	499.000000
2990.678785	441.333333
2991.924352	435.666667
2993.171246	407.000000
2994.414896	448.333333
2995.659874	427.333333
2996.901608	471.666667
2998.146194	419.000000
2999.389061	427.000000
3000.628687	412.000000
3001.871163	385.666667
3003.110399	430.000000
3004.350963	427.000000
3005.589810	401.000000
3006.828463	450.666667
3008.065400	401.000000
3009.303665	421.666667
3010.540214	413.666667
3011.776570	439.666667
3013.012732	411.000000
3014.247180	430.333333
3015.481436	396.666667
3016.715498	418.666667
3017.947848	398.666667
3019.178486	431.000000
3020.411970	430.000000
3021.643742	413.000000
3022.873804	419.000000
3024.103673	432.000000
3025.331833	394.000000
3026.561320	459.000000
3027.789097	413.666667
3029.016683	451.333333
3030.245596	433.666667
3031.469766	425.666667
3032.696779	404.000000
3033.920568	384.000000
3035.145684	452.666667
3036.369093	428.666667
3037.592312	405.000000
3038.813826	426.666667
3040.038181	406.000000
3041.257801	416.666667
3042.478747	409.666667
3043.699504	387.000000
3044.918557	379.000000
3046.138935	439.000000
3047.356097	406.666667
3048.574585	407.000000
3049.791370	376.000000
3051.007968	371.333333
3052.224377	373.666667
3053.437574	431.333333
3054.653608	369.666667
3055.866430	422.666667
3057.082089	383.333333
3058.293025	376.666667
3059.505286	389.333333
3060.717361	403.000000
3061.929248	393.666667
3063.139439	392.000000
3064.349443	373.666667
3065.559261	417.333333
3066.767383	372.666667
3067.975320	397.666667
3069.181561	414.333333
3070.389127	402.333333
3071.594998	394.166667
3072.800685	386.000000
3074.006186	386.333333
3075.209994	341.333333
3076.415126	352.333333
3077.618565	412.000000
3078.820313	404.666667
3080.021876	378.666667
3081.223256	370.333333
3082.424452	393.666667
3083.623958	373.333333
3084.823281	411.666667
3086.023927	391.333333
3087.222883	381.000000
3088.418645	421.000000
3089.617236	396.666667
3090.812633	333.333333
3092.009353	383.666667
3093.202881	393.333333
3094.399237	368.666667
3095.593907	374.333333
3096.785385	387.666667
3097.981196	344.666667
3099.172312	393.000000
3100.364752	404.666667
3101.554004	408.333333
3102.746081	416.333333
3103.936475	425.000000
3105.123683	406.000000
3106.312213	431.000000
3107.502066	377.666667
3108.688735	399.666667
3109.875223	400.000000
3111.061533	354.000000
3112.249164	363.000000
3113.433613	359.666667
3114.616383	395.333333
3115.801975	354.666667
3116.985888	381.000000
3118.168122	370.666667
3119.350177	384.000000
3120.532054	373.333333
3121.713753	407.333333
3122.893775	374.333333
3124.072120	362.000000
3125.253285	396.000000
3126.431275	380.333333
3127.609089	359.666667
3128.786725	396.666667
3129.962686	382.333333
3131.138470	363.666667
3132.315576	372.666667
3133.491007	360.000000
3134.664765	387.666667
3135.836850	377.666667
3137.010257	336.333333
3138.183487	394.666667
3139.355046	366.333333
3140.527925	344.666667
3141.697637	349.000000
3142.868670	356.666667
3144.038033	374.000000
3145.205725	342.000000
3146.376233	347.000000
3147.542083	372.000000
3148.712241	387.666667
3149.877743	363.333333
3151.043070	344.666667
3152.208224	378.666667
3153.373205	369.000000
3154.539505	350.000000
3155.701153	394.666667
3156.864120	380.000000
3158.026915	381.333333
3159.189537	367.666667
3160.350494	346.000000
3161.511278	336.333333
3162.671890	365.000000
3163.830838	347.666667
3164.989615	359.333333
3166.148220	363.666667
3167.306652	325.666667
3168.464914	355.666667
3169.621513	340.000000
3170.776451	363.666667
3171.932708	323.000000
3173.087304	316.666667
3174.241730	359.000000
3175.394496	316.333333
3176.547091	364.000000
3177.699517	318.333333
3178.851773	390.333333
3180.003858	316.000000
3181.152798	345.333333
3182.304544	374.333333
3183.454632	342.666667
3184.603064	369.666667
3185.751326	331.333333
3186.899420	337.000000
3188.047345	338.000000
3189.193614	351.666667
3190.339715	352.333333
3191.484162	357.333333
3192.628441	384.666667
3193.772552	341.666667
3194.917980	311.000000
3196.060270	319.333333
3197.202393	324.666667
3198.344348	300.000000
3199.486136	291.333333
3200.627757	346.000000
3201.766243	330.000000
3202.906046	345.333333
3204.047167	298.666667
3205.185153	327.333333
3206.321490	320.333333
3207.457661	343.333333
3208.595149	333.333333
3209.730989	316.333333
3210.868146	331.666667
3212.000690	333.666667
3213.137516	321.000000
3214.269730	310.333333
3215.403261	313.333333
3216.536628	327.333333
3217.666867	330.333333
3218.799904	342.666667
3219.929815	305.000000
3221.061042	328.000000
3222.189145	336.333333
3223.320044	346.333333
3224.449299	342.000000
3225.576911	299.333333
3226.701400	347.333333
3227.830165	320.000000
3228.955808	338.666667
3230.081289	338.000000
3231.205128	325.000000
3232.331761	282.000000
3233.453797	286.000000
3234.577149	302.000000
3235.700339	322.333333
3236.823366	328.333333
3237.944755	322.666667
3239.065981	310.000000
3240.185570	313.000000
3241.304997	283.000000
3242.422786	331.333333
3243.543367	296.666667
3244.660835	319.000000
3245.778142	325.000000
3246.895289	355.666667
3248.010800	301.333333
3249.127625	354.666667
3250.241341	324.333333
3251.357846	298.333333
3252.472717	342.666667
3253.584479	295.333333
3254.696081	299.333333
3255.808999	310.333333
3256.921757	320.666667
3258.031409	325.333333
3259.142376	350.333333
3260.253184	310.333333
3261.362360	325.000000
3262.469906	345.333333
3263.578765	314.333333
3264.687467	300.000000
3265.793066	273.000000
3266.899979	342.666667
3268.005263	320.333333
3269.111861	344.666667
3270.215359	317.666667
3271.320172	311.666667
3272.424827	327.000000
3273.526383	335.666667
3274.627783	299.333333
3275.730497	284.333333
3276.833055	307.333333
3277.932516	293.000000
3279.034761	334.333333
3280.133910	335.666667
3281.231435	316.666667
3282.328804	338.000000
3283.428955	309.333333
3284.526014	317.000000
3285.622917	316.333333
3286.719665	311.666667
3287.811855	305.333333
3288.908293	307.666667
3290.003109	258.333333
3291.097771	303.666667
3292.190811	279.666667
3293.283696	296.333333
3294.374962	276.333333
3295.467539	299.333333
3296.558497	309.000000
3297.647835	296.666667
3298.737020	285.666667
3299.827518	287.333333
3300.914931	284.333333
3302.002191	326.333333
3303.090764	330.000000
3304.179185	313.000000
3305.263058	280.333333
3306.351173	323.000000
3307.436206	322.333333
3308.519624	320.333333
3309.604354	291.666667
3310.687468	298.333333
3311.771895	323.666667
3312.853243	284.666667
3313.935903	300.000000
3315.016949	294.333333
3316.097844	315.333333
3317.177125	278.000000
3318.256256	282.000000
3319.336699	304.333333
3320.414067	290.666667
3321.492747	293.000000
3322.569815	264.333333
3323.646734	311.000000
3324.722041	315.666667
3325.797199	308.666667
3326.873668	281.333333
3327.947067	327.333333
3329.020317	285.333333
3330.094877	329.666667
3331.167829	302.000000
3332.239172	310.666667
3333.311826	281.333333
3334.381414	303.333333
3335.452312	272.666667
3336.521603	300.333333
3337.592205	269.666667
3338.661200	292.000000
3339.728589	279.333333
3340.794373	308.666667
3341.864383	303.666667
3342.931330	288.333333
3343.995215	272.666667
3345.061868	271.666667
3346.126916	256.000000
3347.190361	281.000000
3348.253660	302.000000
3349.316812	286.333333
3350.379818	291.000000
3351.442678	297.000000
3352.503936	249.333333
3353.562137	253.000000
3354.624558	288.000000
3355.683924	294.000000
3356.743144	283.000000
3357.803673	274.666667
3358.859694	277.333333
3359.918478	292.333333
3360.972755	275.000000
3362.029796	278.000000
3363.085238	238.333333
3364.141990	290.333333
3365.197143	292.333333
3366.250699	287.000000
3367.302659	246.666667
3368.357380	271.333333
3369.409052	281.000000
3370.460581	245.000000
3371.513418	232.333333
3372.563208	284.333333
3373.614307	264.000000
3374.662360	273.666667
3375.713172	294.333333
3376.760940	311.333333
3377.808565	271.666667
3378.856047	276.000000
3379.901937	286.666667
3380.949135	291.333333
3381.993291	278.000000
3383.040205	290.666667
3384.085527	240.333333
3385.127808	284.666667
3386.169949	248.666667
3387.213397	288.666667
3388.256704	271.666667
3389.298422	272.000000
3390.339998	247.666667
3391.381433	269.666667
3392.421280	262.666667
3393.459538	305.666667
3394.499104	252.333333
3395.538530	306.000000
3396.576368	255.000000
3397.612619	244.666667
3398.648731	275.333333
3399.686150	252.666667
3400.720536	254.000000
3401.756229	289.666667
3402.791783	265.333333
3403.824306	236.333333
3404.859582	262.000000
3405.891827	280.000000
3406.923934	273.666667
3407.954457	265.333333
3408.986287	276.666667
3410.017979	253.666667
3411.046643	246.333333
3412.075170	259.333333
3413.105003	232.333333
3414.134699	290.666667
3415.161369	257.333333
3416.189346	263.333333
3417.214298	259.333333
3418.242000	250.000000
3419.266679	232.000000
3420.292664	261.666667
3421.317069	276.000000
3422.341338	253.000000
3423.364028	251.333333
3424.386582	285.666667
3425.410442	246.666667
3426.431282	291.666667
3427.451986	270.333333
3428.473997	278.666667
3429.492989	254.666667
3430.511845	254.666667
3431.532008	259.333333
3432.549154	234.000000
