-116.707459	7.666667
-114.037859	9.666667
-111.371194	-1.000000
-108.705281	16.333333
-106.042300	15.000000
-103.377890	8.000000
-100.716410	29.000000
-98.053501	9.333333
-95.395698	7.000000
-92.736466	10.666667
-90.077982	13.000000
-87.422422	-6.666667
-84.765434	-16.000000
-82.113544	2.333333
-79.460224	3.333333
-76.809823	12.000000
-74.157993	9.666667
-71.511254	19.000000
-68.863086	13.666667
-66.215660	12.666667
-63.571148	17.000000
-60.925208	-22.000000
-58.284349	20.333333
-55.642061	-7.000000
-53.002682	9.000000
-50.361873	4.333333
-47.721805	-13.333333
-45.086809	20.666667
-42.450385	14.666667
-39.816863	24.000000
-37.181913	21.000000
-34.552028	31.333333
-31.918551	28.333333
-29.290136	6.666667
-26.662455	15.333333
-24.033345	15.666667
-21.409292	26.666667
-18.781650	37.000000
-16.159061	44.000000
-13.537204	45.333333
-10.916077	79.000000
-8.295680	134.666667
-5.678172	450.000000
-3.059235	1442.000000
-0.443183	3021.666667
2.172140	4014.333333
4.786736	2221.000000
7.398449	257.000000
10.011591	53.666667
12.619699	20.666667
15.231389	40.333333
17.838048	5.666667
20.446135	5.000000
23.053498	28.333333
25.655836	17.666667
28.261752	8.666667
30.862646	4.000000
33.464968	28.333333
36.062273	21.333333
38.663153	45.333333
41.259018	-2.333333
43.856312	40.333333
46.452886	30.000000
49.044451	61.000000
51.637444	24.000000
54.227576	28.000000
56.819136	46.333333
59.407836	29.333333
61.997963	10.333333
64.583091	-3.000000
67.169647	2.000000
69.755489	34.666667
72.338477	-16.666667
74.922891	-6.333333
77.500177	19.000000
80.081029	9.000000
82.659032	26.000000
85.236325	0.666667
87.815044	-9.000000
90.388781	24.333333
92.963946	26.000000
95.536267	-8.333333
98.107880	17.333333
100.676653	24.000000
103.246853	34.000000
105.814215	20.333333
108.383002	54.333333
110.948953	49.666667
113.512069	65.333333
116.078741	47.000000
118.636192	103.000000
121.199328	101.000000
123.757504	178.000000
126.319235	440.666667
128.876009	657.666667
131.434210	804.666667
133.987457	755.000000
136.540007	738.666667
139.096107	929.666667
141.647259	1159.333333
144.197714	1372.000000
146.747471	1561.333333
149.294409	1714.000000
151.840652	1671.666667
154.388320	1709.000000
156.935292	1639.000000
159.477329	1675.666667
162.018672	1628.666667
164.559322	1608.333333
167.101398	1776.666667
169.640662	1829.000000
172.177118	1965.666667
174.712882	2214.666667
177.250072	2345.333333
179.786571	2617.666667
182.320264	3024.000000
184.851153	3349.333333
187.381355	3950.333333
189.912981	4685.000000
192.441806	5626.000000
194.967832	6729.000000
197.493172	8214.000000
200.019937	9764.000000
202.543906	11492.000000
205.067190	12783.333333
207.589789	13320.000000
210.109595	12970.333333
212.628718	12002.000000
215.147158	10385.333333
217.667022	8816.666667
220.179885	7284.000000
222.696279	6064.666667
225.211991	5167.000000
227.722813	4329.000000
230.235060	3863.333333
232.744525	3467.333333
235.253311	3010.000000
237.761418	2765.000000
240.270950	2546.000000
242.775601	2377.666667
245.279576	2240.333333
247.784975	2119.666667
250.285499	2050.666667
252.789547	1978.000000
255.286623	1974.666667
257.787223	2060.000000
260.285051	2285.333333
262.782206	2844.333333
265.278688	3359.666667
267.770307	3151.000000
270.265446	2416.000000
272.757818	1760.666667
275.249520	1488.666667
277.738459	1309.000000
280.228822	1278.333333
282.716422	1250.000000
285.201263	1219.333333
287.689619	1212.000000
290.171035	1152.333333
292.655965	1157.333333
295.136050	1131.333333
297.619647	1096.000000
300.098401	1157.333333
302.578579	1108.000000
305.056004	1107.666667
307.532766	1140.000000
310.008865	1062.333333
312.482215	1051.666667
314.954903	1136.000000
317.426930	1078.000000
319.898296	1141.666667
322.366917	1168.000000
324.834880	1102.333333
327.304264	1086.666667
329.768826	1160.333333
332.236892	1063.333333
334.700138	1135.000000
337.162726	1121.666667
339.624658	1136.333333
342.085933	1203.333333
344.544474	1207.666667
347.004437	1410.333333
349.461667	1604.000000
351.918243	2315.333333
354.374165	3496.000000
356.827357	4119.666667
359.281972	3355.000000
361.731785	2113.666667
364.185094	1514.333333
366.633605	1320.333333
369.081464	1232.000000
371.530746	1183.333333
373.975234	1182.000000
376.421144	1215.666667
378.866404	1187.000000
381.308946	1168.666667
383.750840	1204.333333
386.192087	1210.000000
388.630618	1351.666667
391.070571	1609.000000
393.507810	2031.666667
395.942337	2122.000000
398.380352	1828.000000
400.813590	1694.333333
403.248249	1752.666667
405.678136	1792.000000
408.111508	1477.666667
410.540110	1324.000000
412.968070	1237.000000
415.397452	1264.000000
417.822068	1246.666667
420.248106	1337.000000
422.673503	1349.000000
425.098260	1358.000000
427.518259	1339.666667
429.939679	1450.666667
432.358402	1446.333333
434.778546	1611.000000
437.195995	1772.000000
439.614864	1838.000000
442.031040	2107.666667
444.442468	2383.000000
446.857374	2774.333333
449.269589	3483.333333
451.681170	4535.666667
454.092117	6313.666667
456.500378	9494.000000
458.908006	15574.333333
461.315002	26299.333333
463.721367	39583.000000
466.125049	46383.666667
468.528101	40352.000000
470.930523	26876.666667
473.332315	16262.333333
475.731430	10513.000000
478.131964	7540.333333
480.531869	5972.666667
482.927051	4761.333333
485.325700	4115.000000
487.719629	3550.333333
490.112932	3309.333333
492.505609	2992.000000
494.897661	2742.666667
497.291131	2595.333333
499.679889	2391.666667
502.065981	2265.333333
504.453493	2383.333333
506.840382	2518.333333
509.224607	2868.000000
511.610250	2845.666667
513.993232	2433.000000
516.373553	1995.333333
518.755293	1863.333333
521.134374	1747.000000
523.514874	1684.333333
525.892716	1647.666667
528.267903	1575.000000
530.642472	1582.000000
533.018459	1502.333333
535.391794	1496.666667
537.766546	1492.666667
540.136613	1430.000000
542.506064	1368.000000
544.876933	1404.666667
547.243122	1387.666667
549.610729	1355.000000
551.975690	1405.666667
554.340038	1407.666667
556.703773	1286.666667
559.068926	1321.666667
561.429407	1289.333333
563.791306	1300.000000
566.150564	1256.000000
568.507185	1251.000000
570.867250	1283.666667
573.220624	1251.666667
575.577443	1252.333333
577.931627	1204.000000
580.285202	1213.333333
582.638170	1283.333333
584.988505	1266.666667
587.340258	1214.000000
589.685334	1264.666667
592.035874	1233.333333
594.379740	1264.000000
596.729068	1260.333333
599.073747	1157.000000
601.415802	1252.666667
603.759274	1173.000000
606.100123	1183.666667
608.440370	1176.333333
610.777996	1267.000000
613.119057	1179.666667
615.455480	1171.000000
617.793320	1140.333333
620.128543	1143.333333
622.461150	1149.666667
624.795173	1178.666667
627.126582	1136.666667
629.457393	1150.000000
631.787607	1197.000000
634.117222	1125.333333
636.442214	1169.333333
638.772648	1171.000000
641.098461	1125.333333
643.421666	1160.333333
645.746288	1163.333333
648.068304	1164.000000
650.389726	1206.333333
652.708546	1127.000000
655.028781	1126.000000
657.348423	1117.000000
659.665464	1112.333333
661.981913	1086.333333
664.295764	1104.000000
666.611031	1093.000000
668.923701	1125.333333
671.237786	1121.333333
673.547271	1142.000000
675.858172	1180.000000
678.166480	1168.000000
680.474200	1179.333333
682.783334	1205.666667
685.087876	1188.333333
687.391832	1211.333333
689.695202	1233.000000
691.999986	1334.000000
694.300184	1396.666667
696.601796	1514.333333
698.902823	1500.333333
701.199269	1392.000000
703.497130	1292.666667
705.794407	1238.666667
708.091101	1186.333333
710.383219	1152.000000
712.678748	1144.666667
714.969703	1183.666667
717.262073	1161.666667
719.551868	1185.000000
721.841082	1145.666667
724.129717	1127.666667
726.415779	1158.333333
728.703256	1079.333333
730.988161	1121.000000
733.272489	1197.000000
735.554248	1151.333333
737.837421	1159.333333
740.120017	1123.666667
742.398057	1130.333333
744.677512	1176.333333
746.956390	1155.333333
749.234694	1196.666667
751.508448	1162.000000
753.783615	1152.666667
756.058209	1160.333333
758.330244	1194.666667
760.603692	1154.666667
762.874582	1149.000000
765.142916	1153.333333
767.412663	1198.666667
769.679856	1184.333333
771.946478	1194.333333
774.212530	1180.000000
776.476031	1164.333333
778.740945	1250.333333
781.005289	1219.000000
783.265104	1212.000000
785.526331	1266.333333
787.786991	1299.000000
790.045105	1219.000000
792.300674	1291.666667
794.559634	1368.666667
796.812095	1461.666667
799.069922	1454.666667
801.323231	1571.000000
803.574000	1692.333333
805.826181	1993.000000
808.075823	2335.666667
810.326878	2556.000000
812.573421	2352.333333
814.821376	1964.000000
817.066797	1617.000000
819.313629	1512.666667
821.559900	1392.666667
823.801666	1367.333333
826.046816	1309.000000
828.285493	1322.000000
830.527552	1258.666667
832.765113	1273.000000
835.004086	1254.333333
837.240532	1275.333333
839.478389	1252.666667
841.713721	1236.000000
843.946530	1228.000000
846.180750	1239.333333
848.412447	1286.000000
850.643590	1223.000000
852.874178	1245.000000
855.104212	1280.333333
857.333692	1256.333333
859.558690	1241.000000
861.787063	1213.666667
864.010956	1202.333333
866.236261	1225.333333
868.457090	1211.000000
870.681291	1206.333333
872.901019	1201.000000
875.122157	1200.000000
877.342745	1226.666667
879.560824	1203.666667
881.780312	1263.333333
883.995334	1161.333333
886.209808	1212.000000
888.423735	1256.666667
890.637115	1253.666667
892.849947	1247.666667
895.062233	1198.666667
897.272016	1223.666667
899.481254	1223.000000
901.689947	1251.333333
903.896141	1188.333333
906.103744	1222.333333
908.308849	1194.666667
910.513411	1173.666667
912.715478	1182.666667
914.918954	1225.333333
917.119936	1219.333333
919.320376	1254.333333
921.522225	1211.666667
923.717683	1212.000000
925.916500	1273.000000
928.110878	1279.666667
930.308614	1166.666667
932.501914	1169.000000
934.696623	1219.666667
936.888846	1192.333333
939.080530	1172.333333
941.271677	1216.000000
943.460341	1160.000000
945.648469	1179.000000
947.834116	1154.000000
950.023115	1205.000000
952.207691	1222.000000
954.391732	1217.000000
956.579123	1167.333333
958.758210	1198.333333
960.940648	1159.666667
963.122552	1215.000000
965.301981	1187.000000
967.478938	1160.666667
969.657303	1161.000000
971.837075	1180.333333
974.010498	1167.333333
976.187267	1205.666667
978.359629	1219.333333
980.533399	1237.000000
982.702765	1208.666667
984.875475	1204.000000
987.045720	1225.333333
989.215436	1181.333333
991.384623	1165.000000
993.549413	1118.333333
995.717544	1210.666667
997.881281	1159.333333
1000.046424	1170.333333
1002.209108	1170.000000
1004.371267	1178.333333
1006.530969	1185.333333
1008.690146	1184.666667
1010.850730	1214.666667
1013.008859	1176.666667
1015.166465	1211.333333
1017.323547	1158.666667
1019.480105	1175.666667
1021.632284	1212.666667
1023.785870	1183.000000
1025.938934	1187.666667
1028.089549	1211.333333
1030.241571	1179.666667
1032.389219	1227.000000
1034.540199	1216.333333
1036.686808	1132.333333
1038.832898	1165.666667
1040.978470	1166.000000
1043.125447	1237.333333
1045.266135	1182.000000
1047.410153	1200.666667
1049.551730	1207.666667
1051.692791	1244.333333
1053.835256	1189.333333
1055.971442	1214.666667
1058.110953	1234.000000
1060.246110	1234.666667
1062.384591	1255.000000
1064.518718	1242.000000
1066.652332	1337.333333
1068.787351	1278.666667
1070.918020	1302.666667
1073.050094	1334.666667
1075.179739	1408.333333
1077.308872	1518.666667
1079.437493	1663.666667
1081.565603	1889.666667
1083.691287	1951.666667
1085.816461	1794.666667
1087.943039	1565.333333
1090.065279	1401.666667
1092.188924	1294.000000
1094.308234	1263.333333
1096.432774	1254.666667
1098.551068	1189.000000
1100.670767	1274.333333
1102.788047	1231.000000
1104.904821	1248.666667
1107.021088	1224.666667
1109.134939	1190.666667
1111.250195	1171.333333
1113.361127	1158.333333
1115.475372	1199.000000
1117.585296	1241.666667
1119.696624	1182.000000
1121.807447	1210.000000
1123.913954	1212.000000
1126.023771	1185.333333
1128.129273	1183.333333
1130.236178	1218.666667
1132.336868	1177.666667
1134.442770	1190.666667
1136.544363	1216.000000
1138.647359	1218.333333
1140.749854	1224.000000
1142.846142	1178.000000
1144.947637	1251.000000
1147.044830	1286.000000
1149.141525	1267.000000
1151.237721	1371.333333
1153.333420	1428.333333
1155.428620	1540.666667
1157.521424	1732.666667
1159.615631	1859.333333
1161.703646	2003.000000
1163.796859	1822.000000
1165.883884	1607.666667
1167.974208	1488.666667
1170.060244	1325.666667
1172.149579	1285.666667
1174.232732	1263.333333
1176.317287	1262.333333
1178.403244	1209.666667
1180.484919	1187.000000
1182.567996	1192.666667
1184.648687	1141.000000
1186.728886	1160.000000
1188.808594	1122.333333
1190.887811	1184.000000
1192.964646	1204.333333
1195.039100	1155.000000
1197.116845	1147.333333
1199.190321	1177.000000
1201.265197	1168.666667
1203.335806	1189.333333
1205.407816	1164.666667
1207.477451	1169.666667
1209.548486	1187.666667
1211.619033	1210.333333
1213.685319	1205.333333
1215.753006	1173.666667
1217.818321	1254.333333
1219.885036	1212.666667
1221.947495	1240.333333
1224.013239	1204.666667
1226.074729	1224.000000
1228.137620	1256.333333
1230.198143	1243.666667
1232.258182	1233.000000
1234.317739	1209.333333
1236.374930	1244.333333
1238.431640	1239.333333
1240.485986	1235.333333
1242.543614	1199.666667
1244.598879	1168.000000
1246.649903	1130.000000
1248.702327	1170.000000
1250.754271	1176.666667
1252.803857	1151.666667
1254.852964	1201.333333
1256.901593	1192.333333
1258.949743	1174.666667
1260.997414	1208.000000
1263.040855	1179.000000
1265.087572	1140.000000
1267.131935	1175.666667
1269.175822	1171.000000
1271.217357	1201.666667
1273.256543	1138.666667
1275.299002	1180.000000
1277.337238	1154.333333
1279.376873	1197.333333
1281.416033	1168.000000
1283.450974	1142.666667
1285.487314	1156.666667
1287.521310	1171.666667
1289.556703	1148.666667
1291.587884	1133.666667
1293.620462	1143.000000
1295.652569	1149.000000
1297.682335	1197.666667
1299.713498	1201.666667
1301.740455	1119.000000
1303.768809	1184.000000
1305.792958	1172.666667
1307.820373	1150.333333
1309.843585	1132.666667
1311.868195	1096.000000
1313.890471	1146.000000
1315.914144	1129.333333
1317.935484	1129.666667
1319.956356	1136.000000
1321.976761	1136.000000
1323.992973	1166.333333
1326.010582	1122.666667
1328.025863	1164.666667
1330.044403	1155.333333
1332.058754	1118.666667
1334.070779	1054.000000
1336.086061	1154.000000
1338.097158	1094.666667
1340.109652	1132.000000
1342.117963	1130.000000
1344.129529	1103.000000
1346.135057	1175.333333
1348.143840	1160.666667
1350.148445	1143.666667
1352.156304	1141.666667
1354.163701	1108.000000
1356.165067	1134.333333
1358.167829	1107.666667
1360.170132	1135.000000
1362.171975	1154.333333
1364.173358	1070.333333
1366.172428	1114.666667
1368.171039	1135.000000
1370.169192	1117.333333
1372.166886	1110.333333
1374.160418	1107.000000
1376.155345	1105.000000
1378.149816	1079.333333
1380.143830	1118.333333
1382.135537	1144.666667
1384.126789	1110.333333
1386.115735	1148.000000
1388.106076	1100.666667
1390.095962	1086.666667
1392.083544	1107.000000
1394.070673	1104.666667
1396.055500	1120.666667
1398.041722	1087.333333
1400.025644	1051.000000
1402.009113	1090.000000
1403.992129	1134.666667
1405.972848	1060.000000
1407.954961	1082.333333
1409.934778	1063.000000
1411.914143	1103.666667
1413.889370	1102.333333
1415.867835	1102.000000
1417.844007	1101.333333
1419.819730	1087.333333
1421.795003	1065.000000
1423.767985	1114.333333
1425.740519	1143.666667
1427.712605	1115.333333
1429.684244	1117.000000
1431.651754	1086.333333
1433.624338	1147.000000
1435.589116	1122.666667
1437.558967	1149.333333
1439.524694	1143.666667
1441.491813	1095.000000
1443.456649	1136.666667
1445.417365	1075.333333
1447.383149	1115.666667
1449.342978	1103.000000
1451.304201	1081.333333
1453.266816	1132.333333
1455.225316	1122.666667
1457.183373	1078.000000
1459.140989	1098.000000
1461.098162	1086.333333
1463.053060	1102.000000
1465.009351	1073.000000
1466.963367	1099.333333
1468.916942	1098.333333
1470.868245	1088.666667
1472.820941	1094.666667
1474.771364	1057.000000
1476.721349	1105.666667
1478.670895	1080.000000
1480.618172	1087.666667
1482.563181	1054.333333
1484.509583	1063.666667
1486.455547	1083.000000
1488.401074	1069.666667
1490.344335	1085.000000
1492.287161	1105.666667
1494.227723	1082.333333
1496.169676	1115.333333
1498.109367	1084.666667
1500.048624	1102.666667
1501.987445	1076.666667
1503.924007	1095.000000
1505.861960	1117.000000
1507.797654	1093.000000
1509.732915	1128.666667
1511.665920	1101.000000
1513.598492	1096.000000
1515.530632	1164.000000
1517.462340	1065.666667
1519.391794	1061.000000
1521.322639	1097.000000
1523.253052	1111.333333
1525.179393	1069.666667
1527.107125	1073.000000
1529.032606	1065.666667
1530.957658	1124.666667
1532.882281	1095.666667
1534.806475	1048.000000
1536.728421	1069.666667
1538.651758	1069.000000
1540.572848	1118.666667
1542.491694	1120.333333
1544.411930	1074.333333
1546.329923	1067.000000
1548.247489	1138.666667
1550.162813	1079.666667
1552.079527	1118.666667
1553.992186	1052.666667
1555.908049	1130.666667
1557.821672	1084.666667
1559.733057	1141.000000
1561.645832	1047.666667
1563.554557	1123.333333
1565.464671	1115.666667
1567.374362	1121.666667
1569.283630	1072.666667
1571.190664	1110.666667
1573.095465	1114.333333
1575.001655	1159.666667
1576.905613	1075.000000
1578.809150	1099.333333
1580.712267	1061.333333
1582.613154	1155.000000
1584.515430	1096.000000
1586.415478	1106.333333
1588.316913	1108.333333
1590.214315	1139.333333
1592.111298	1081.333333
1594.007863	1125.333333
1595.905816	1072.666667
1597.797934	1120.000000
1599.693245	1070.000000
1601.588139	1079.333333
1603.480811	1041.666667
1605.373066	1108.333333
1607.263102	1027.333333
1609.152722	1099.666667
1611.041927	1082.000000
1612.930717	1114.000000
1614.817289	1134.666667
1616.705249	1113.333333
1618.589192	1089.000000
1620.474522	1056.000000
1622.359439	1054.333333
1624.242142	1078.333333
1626.126232	1098.666667
1628.006310	1066.000000
1629.887776	1113.333333
1631.767031	1083.000000
1633.647672	1073.000000
1635.522509	1041.333333
1637.402327	1030.666667
1639.278141	1064.333333
1641.153544	1039.333333
1643.030333	1061.000000
1644.901326	1035.666667
1646.775500	1057.333333
1648.645675	1040.666667
1650.519032	1128.333333
1652.390184	1057.666667
1654.259136	1054.333333
1656.129472	1071.666667
1657.995816	1044.333333
1659.863545	1047.000000
1661.729075	1040.333333
1663.595991	1033.000000
1665.458918	1053.666667
1667.323230	1020.666667
1669.185346	1072.666667
1671.047057	1036.333333
1672.910154	1009.333333
1674.771055	1048.333333
1676.629764	1065.666667
1678.488069	1019.666667
1680.347759	1017.000000
1682.201681	1040.666667
1684.058777	1006.666667
1685.915470	1047.333333
1687.768186	1019.666667
1689.624074	1025.666667
1691.475988	1007.000000
1693.327501	1027.000000
1695.178613	1016.000000
1697.029325	986.000000
1698.879635	965.666667
1700.727762	1013.333333
1702.577273	998.333333
1704.421035	1024.666667
1706.269746	1012.333333
1708.112711	997.666667
1709.958843	1018.000000
1711.801012	992.666667
1713.646347	1015.000000
1715.485941	1014.333333
1717.326919	1005.000000
1719.169280	1011.000000
1721.007685	981.666667
1722.847473	943.666667
1724.685086	944.000000
1726.522303	1001.666667
1728.357347	1047.333333
1730.193774	992.333333
1732.028029	985.333333
1733.861889	954.666667
1735.695355	967.333333
1737.524876	963.666667
1739.357555	993.000000
1741.186290	1002.000000
1743.018182	935.333333
1744.846132	974.333333
1746.673691	959.333333
1748.500857	984.666667
1750.327632	991.666667
1752.154015	967.666667
1753.976462	1009.000000
1755.802064	957.666667
1757.623731	960.666667
1759.446780	970.666667
1761.267667	995.000000
1763.088166	946.666667
1764.910045	948.000000
1766.726226	952.666667
1768.545558	970.000000
1770.360963	997.000000
1772.179518	986.666667
1773.994148	1015.333333
1775.808391	953.333333
1777.622248	1007.666667
1779.435718	958.000000
1781.247035	923.333333
1783.059732	1014.666667
1784.872044	941.333333
1786.680438	967.666667
1788.490212	960.666667
1790.296072	939.000000
1792.105077	963.666667
1793.910169	945.333333
1795.716642	944.666667
1797.522731	959.333333
1799.324909	1020.333333
1801.130232	973.666667
1802.931646	974.666667
1804.734440	954.333333
1806.533328	951.666667
1808.333597	1002.333333
1810.133484	992.333333
1811.931229	959.666667
1813.728594	978.666667
1815.525579	945.333333
1817.322183	957.000000
1819.116648	939.666667
1820.912492	966.000000
1822.702681	936.000000
1824.497767	915.333333
1826.287201	951.333333
1828.079771	952.000000
1829.870206	942.666667
1831.658507	960.666667
1833.449943	976.333333
1835.235733	907.666667
1837.022903	982.666667
1838.807941	928.333333
1840.596113	920.666667
1842.380399	930.000000
1844.162555	967.000000
1845.946091	894.000000
1847.727498	936.666667
1849.510284	937.333333
1851.289189	939.666667
1853.069474	937.666667
1854.847632	947.333333
1856.627169	926.000000
1858.404581	981.333333
1860.179869	981.333333
1861.956535	960.666667
1863.731079	935.000000
1865.507001	926.333333
1867.277302	961.333333
1869.050731	968.333333
1870.822040	906.000000
1872.592978	915.333333
1874.365294	880.333333
1876.131996	935.000000
1877.901824	924.666667
1879.667788	936.000000
1881.436875	987.333333
1883.202101	934.333333
1884.966959	913.333333
1886.733194	958.333333
1888.495570	904.333333
1890.257579	877.333333
1892.019220	931.000000
1893.780495	977.666667
1895.541402	931.000000
1897.301943	901.333333
1899.060374	960.666667
1900.818439	929.000000
1902.574397	891.000000
1904.331731	926.666667
1906.088700	902.666667
1907.843562	907.666667
1909.596320	929.666667
1911.348713	926.333333
1913.102483	876.666667
1914.854149	928.000000
1916.603713	928.000000
1918.354652	874.666667
1920.105229	899.666667
1921.851966	906.666667
1923.600080	901.333333
1925.346094	914.666667
1927.093483	941.333333
1928.838775	902.333333
1930.581969	845.333333
1932.326538	912.333333
1934.069012	915.000000
1935.811125	941.333333
1937.552878	913.666667
1939.294271	907.000000
1941.033571	885.666667
1942.772512	943.666667
1944.511094	888.333333
1946.247585	871.666667
1947.983718	882.500000
1949.721225	893.333333
1951.454910	888.333333
1953.189970	924.000000
1954.922941	924.333333
1956.655556	854.333333
1958.387815	911.000000
1960.119717	884.333333
1961.849533	846.000000
1963.577264	919.333333
1965.306370	922.666667
1967.035121	896.000000
1968.761788	929.333333
1970.488101	971.333333
1972.215787	906.666667
1973.937937	889.666667
1975.663188	905.333333
1977.384632	928.333333
1979.109177	926.333333
1980.831641	923.000000
1982.550303	897.333333
1984.272063	887.000000
1985.990021	928.000000
1987.709352	914.000000
1989.424884	927.333333
1991.145236	876.000000
1992.861790	891.000000
1994.574547	900.333333
1996.290400	924.333333
1998.004181	929.000000
1999.717612	935.000000
2001.428972	892.000000
2003.141704	871.000000
2004.850646	907.000000
2006.562680	909.333333
2008.269206	909.666667
2009.978823	898.000000
2011.686374	874.666667
2013.393576	892.666667
2015.098713	886.000000
2016.803504	872.666667
2018.509666	919.333333
2020.212046	809.000000
2021.915797	893.666667
2023.617486	891.000000
2025.318830	891.000000
2027.019828	855.000000
2028.718765	889.666667
2030.419074	879.000000
2032.115608	862.666667
2033.813513	897.000000
2035.509359	889.666667
2037.208291	910.666667
2038.901737	908.000000
2040.596554	924.666667
2042.291029	898.333333
2043.981735	880.000000
2045.675525	879.000000
2047.365548	933.000000
2049.056942	887.000000
2050.746283	879.000000
2052.436994	907.666667
2054.123942	838.000000
2055.810551	929.666667
2057.498529	862.333333
2059.182748	929.333333
2060.868338	875.000000
2062.553588	918.333333
2064.236789	824.666667
2065.921361	854.333333
2067.600470	846.666667
2069.284364	855.333333
2070.962797	849.333333
2072.644308	829.000000
2074.322067	846.666667
2075.999490	856.666667
2077.678282	838.333333
2079.355032	844.000000
2081.029740	792.666667
2082.705817	853.333333
2084.379853	879.333333
2086.053555	866.000000
2087.726921	786.666667
2089.398248	808.333333
2091.069241	874.333333
2092.739900	826.333333
2094.410225	840.000000
2096.080216	876.333333
2097.748171	827.333333
2099.415793	844.333333
2101.081380	816.666667
2102.748336	865.666667
2104.413259	817.666667
2106.077850	839.666667
2107.740409	890.333333
2109.404336	878.666667
2111.066232	844.000000
2112.727798	849.000000
2114.389032	850.000000
2116.048238	867.666667
2117.707113	844.666667
2119.365659	802.666667
2121.023874	837.333333
2122.678367	887.666667
2124.335924	840.000000
2125.993152	876.666667
2127.646658	881.666667
2129.301532	857.333333
2130.952687	827.666667
2132.606905	883.000000
2134.257406	840.333333
2135.909273	852.000000
2137.555732	862.333333
2139.206946	829.333333
2140.854446	837.333333
2142.503313	852.666667
2144.150161	838.666667
2145.796684	869.333333
2147.442881	862.333333
2149.085370	865.000000
2150.730917	855.333333
2152.372757	866.000000
2154.017654	821.666667
2155.658845	825.000000
2157.299714	859.666667
2158.940258	843.333333
2160.578790	806.000000
2162.218688	863.000000
2163.854886	854.000000
2165.492450	813.000000
2167.129692	835.000000
2168.764924	829.666667
2170.399835	837.000000
2172.034423	846.000000
2173.668691	799.333333
2175.299265	828.000000
2176.932891	856.000000
2178.562825	828.000000
2180.194124	800.000000
2181.823418	818.333333
2183.452393	861.000000
2185.081048	777.333333
2186.709384	819.333333
2188.335718	786.666667
2189.961733	786.666667
2191.585746	819.333333
2193.211125	817.666667
2194.834503	810.000000
2196.459246	757.666667
2198.080308	808.333333
2199.701053	796.666667
2201.323163	794.000000
2202.943275	788.000000
2204.561390	791.333333
2206.179190	798.666667
2207.796675	802.666667
2209.413844	799.000000
2211.030698	846.000000
2212.647236	836.000000
2214.261782	782.333333
2215.874335	781.333333
2217.488252	850.000000
2219.100178	759.666667
2220.713467	791.000000
2222.324766	802.333333
2223.934075	839.333333
2225.544748	745.333333
2227.153432	777.000000
2228.761803	741.666667
2230.368188	771.666667
2231.975936	771.666667
2233.581697	787.666667
2235.187147	768.666667
2236.790612	771.333333
2238.395440	794.333333
2239.998284	820.333333
2241.599145	780.000000
2243.201369	802.333333
2244.801611	790.333333
2246.403215	755.666667
2248.001166	789.333333
2249.600480	805.666667
2251.197814	761.333333
2252.794840	755.000000
2254.393228	795.333333
2255.987967	784.000000
2257.580729	736.333333
2259.174854	798.000000
2260.770340	735.666667
2262.362181	769.666667
2263.953716	756.333333
2265.546613	788.666667
2267.134200	803.333333
2268.726483	814.333333
2270.313460	765.000000
2271.903464	768.666667
2273.488164	786.000000
2275.077558	792.666667
2276.661650	763.333333
2278.247102	754.333333
2279.830586	778.000000
2281.417095	774.000000
2282.999971	781.666667
2284.582544	719.000000
2286.164813	765.666667
2287.743452	737.333333
2289.325116	718.333333
2290.903151	770.333333
2292.484209	777.333333
2294.061640	748.166667
2295.637108	719.000000
2297.215598	726.333333
2298.790464	729.000000
2300.365029	756.000000
2301.939294	740.333333
2303.513258	775.000000
2305.086921	731.666667
2306.660285	752.333333
2308.230030	711.666667
2309.799476	753.333333
2311.371940	743.333333
2312.939130	736.666667
2314.509338	756.000000
2316.075931	787.000000
2317.643884	722.666667
2319.209881	746.666667
2320.775581	744.333333
2322.340983	764.666667
2323.904432	693.333333
2325.469240	727.000000
2327.030440	756.666667
2328.594654	731.000000
2330.153606	742.666667
2331.715573	776.000000
2333.275588	732.000000
2334.835309	718.000000
2336.393080	740.000000
2337.950556	737.666667
2339.507738	756.333333
2341.062972	779.000000
2342.617913	736.000000
2344.172559	722.000000
2345.726912	739.666667
2347.280972	728.000000
2348.834737	732.666667
2350.386558	743.333333
2351.936437	737.333333
2353.489323	735.666667
2355.036966	752.666667
2356.587618	759.666667
2358.134678	756.000000
2359.683096	739.000000
2361.231223	725.333333
2362.775761	770.666667
2364.321657	703.000000
2365.865615	731.000000
2367.410930	744.333333
2368.952660	721.666667
2370.495747	732.000000
2372.036898	707.333333
2373.577760	773.000000
2375.118333	709.333333
2376.658617	707.666667
2378.198612	687.333333
2379.735029	680.000000
2381.274447	715.000000
2382.810287	694.666667
2384.347485	678.000000
2385.881107	676.666667
2387.417729	714.000000
2388.952421	722.666667
2390.485183	730.666667
2392.017658	683.666667
2393.548205	706.666667
2395.081750	757.000000
2396.610084	724.333333
2398.139774	734.666667
2399.669179	697.333333
2401.198299	687.000000
2402.727134	699.666667
2404.250763	696.333333
2405.779028	678.666667
2407.302091	677.333333
2408.829787	733.666667
2410.350644	714.333333
2411.876134	702.666667
2413.398063	685.333333
2414.921348	667.000000
2416.442711	699.333333
2417.962155	709.000000
2419.482954	697.000000
2421.001835	713.000000
2422.520433	703.333333
2424.037114	741.000000
2425.555149	677.000000
2427.072903	706.333333
2428.587106	708.333333
2430.101028	688.333333
2431.614670	689.333333
2433.129667	716.666667
2434.641115	693.333333
2436.153918	673.333333
2437.664807	651.666667
2439.175418	686.000000
2440.684117	682.333333
2442.195802	689.666667
2443.703944	667.000000
2445.211808	662.333333
2446.719394	687.666667
2448.223439	701.666667
2449.730469	643.333333
2451.235591	656.666667
2452.740436	716.666667
2454.243374	670.666667
2455.746036	675.666667
2457.248421	654.333333
2458.748901	656.666667
2460.250734	734.000000
2461.750662	684.000000
2463.250315	641.666667
2464.749693	678.333333
2466.247168	670.000000
2467.742741	671.666667
2469.241294	643.666667
2470.736319	643.666667
2472.232696	681.666667
2473.725547	677.666667
2475.219751	665.666667
2476.713681	641.666667
2478.204087	645.666667
2479.697471	680.666667
2481.188957	648.333333
2482.678546	641.000000
2484.167863	657.333333
2485.655284	654.333333
2487.145681	622.333333
2488.632560	667.000000
2490.120790	647.333333
2491.605503	620.666667
2493.089947	670.666667
2494.575741	659.000000
2496.059644	634.000000
2497.544897	649.000000
2499.025017	603.666667
2500.508110	630.000000
2501.989312	657.000000
2503.470245	641.666667
2504.949289	611.666667
2506.428064	660.666667
2507.906571	709.000000
2509.384810	675.333333
2510.862780	625.000000
2512.337245	643.666667
2513.814680	625.000000
2515.288611	672.000000
2516.763892	693.000000
2518.238906	658.000000
2519.710419	681.666667
2521.183283	643.666667
2522.654264	644.666667
2524.126595	706.333333
2525.593812	644.000000
2527.063996	600.333333
2528.532299	625.666667
2530.000337	644.333333
2531.468110	629.000000
2532.935618	654.666667
2534.402861	621.666667
2535.866612	634.666667
2537.331713	625.333333
2538.794937	668.333333
2540.259510	667.000000
2541.720595	614.333333
2543.183029	647.333333
2544.645200	654.000000
2546.103885	628.666667
2547.567141	646.333333
2549.025302	644.333333
2550.484811	659.000000
2551.939226	644.666667
2553.398212	624.666667
2554.855326	658.333333
2556.310569	651.333333
2557.765550	636.666667
2559.218663	647.000000
2560.673124	624.333333
2562.125715	658.333333
2563.578047	641.000000
2565.028512	645.666667
2566.481932	666.333333
2567.930270	607.000000
2569.381563	665.666667
2570.830991	669.333333
2572.276946	634.000000
2573.725856	633.666667
2575.171296	658.666667
2576.618083	600.333333
2578.063008	671.333333
2579.507674	627.666667
2580.953688	612.000000
2582.396236	635.000000
2583.840131	634.666667
2585.280561	644.333333
2586.722338	613.666667
2588.162256	561.333333
2589.603521	640.333333
2591.041324	606.000000
2592.482077	604.666667
2593.917768	595.666667
2595.356408	638.333333
2596.793190	609.333333
2598.228117	597.000000
2599.665991	625.333333
2601.098808	672.333333
2602.532972	629.666667
2603.965282	596.666667
2605.398938	610.000000
2606.830741	610.333333
2608.262290	557.000000
2609.693587	552.000000
2611.123031	637.000000
2612.552223	576.666667
2613.979565	663.666667
2615.408252	600.000000
2616.836688	591.000000
2618.261676	624.333333
2619.688011	612.000000
2621.112497	634.333333
2622.538329	607.000000
2623.960717	587.000000
2625.384451	625.333333
2626.806338	632.000000
2628.227976	600.666667
2629.647768	600.333333
2631.068906	616.333333
2632.489794	615.333333
2633.907244	586.666667
2635.327633	609.000000
2636.744585	589.666667
2638.161288	633.000000
2639.577743	595.000000
2640.993950	597.000000
2642.409909	579.333333
2643.824027	578.666667
2645.237897	569.000000
2646.649929	598.666667
2648.063304	563.000000
2649.473250	596.333333
2650.886132	606.000000
2652.295585	635.000000
2653.704792	580.666667
2655.112163	575.333333
2656.522468	579.666667
2657.930938	556.666667
2659.337572	587.666667
2660.743961	587.333333
2662.148516	591.666667
2663.554415	592.333333
2664.958481	633.000000
2666.362302	626.333333
2667.765879	593.000000
2669.167625	572.666667
2670.570714	531.333333
2671.970385	616.333333
2673.371400	606.333333
2674.768999	581.333333
2676.169527	582.000000
2677.566641	575.666667
2678.965098	585.000000
2680.361728	595.666667
2681.758115	583.333333
2683.154260	583.666667
2684.548579	563.000000
2685.944241	593.666667
2687.336494	596.666667
2688.730089	598.333333
2690.121860	565.000000
2691.514974	574.666667
2692.906264	555.000000
2694.295731	593.000000
2695.684958	541.000000
2697.073946	591.000000
2698.464275	584.000000
2699.849621	558.666667
2701.237890	575.000000
2702.624339	601.000000
2704.010549	579.666667
2705.396520	562.333333
2706.779093	556.333333
2708.163008	530.333333
2709.546685	529.666667
2710.930123	564.000000
2712.310167	541.000000
2713.691551	620.333333
2715.071121	588.000000
2716.452031	565.333333
2717.831127	553.666667
2719.208409	603.000000
2720.587032	508.666667
2721.963842	575.666667
2723.340415	565.333333
2724.716753	547.000000
2726.091280	591.000000
2727.467147	581.666667
2728.839627	574.333333
2730.215023	546.666667
2731.585459	552.000000
2732.957236	576.666667
2734.328778	523.000000
2735.698512	573.000000
2737.069587	566.666667
2738.438853	529.000000
2739.807886	535.333333
2741.175113	590.666667
2742.542106	580.666667
2743.908867	561.000000
2745.275396	536.666667
2746.640119	571.333333
2748.004610	530.000000
2749.368870	546.666667
2750.732897	532.666667
2752.096693	522.333333
2753.457115	548.333333
2754.820447	572.666667
2756.178837	561.333333
2757.540137	558.000000
2758.898067	494.000000
2760.258905	523.333333
2761.617944	523.666667
2762.973614	527.333333
2764.332192	509.666667
2765.687403	522.000000
2767.042385	525.333333
2768.395571	557.000000
2769.751662	539.666667
2771.104390	562.333333
2772.456890	527.000000
2773.809161	540.000000
2775.162770	489.333333
2776.513019	492.333333
2777.861473	547.000000
2779.212833	546.333333
2780.560833	502.000000
2781.910171	517.333333
2783.257717	521.666667
2784.605037	507.666667
2785.952130	554.333333
2787.297432	540.000000
2788.642507	530.666667
2789.987357	513.000000
2791.331981	542.333333
2792.673253	541.000000
2794.015863	516.333333
2795.358247	495.333333
2796.700406	496.666667
2798.039216	521.000000
2799.380926	543.666667
2800.719288	468.666667
2802.058986	464.666667
2803.396900	538.000000
2804.733029	483.000000
2806.068934	533.666667
2807.406177	529.000000
2808.741636	508.666667
2810.076872	511.666667
2811.410325	477.333333
2812.745115	475.333333
2814.076565	505.333333
2815.410910	502.333333
2816.740357	485.333333
2818.071141	525.666667
2819.401703	494.333333
2820.730486	496.333333
2822.060605	526.666667
2823.388946	542.000000
2824.717066	534.000000
2826.043408	501.000000
2827.371087	507.666667
2828.695432	507.000000
2830.021114	515.000000
2831.345020	472.333333
2832.668707	485.333333
2833.993729	526.333333
2835.315421	486.000000
2836.636895	500.333333
2837.958150	499.333333
2839.279186	474.000000
2840.598449	471.333333
2841.919048	494.666667
2843.237876	498.000000
2844.556485	481.666667
2845.873323	506.333333
2847.189944	459.000000
2848.506348	525.000000
2849.820982	505.000000
2851.136952	488.666667
2852.449601	468.333333
2853.763585	519.333333
2855.077353	488.333333
2856.390904	480.000000
2857.702689	469.666667
2859.012707	499.000000
2860.324060	508.000000
2861.632098	509.333333
2862.941470	465.333333
2864.250628	479.333333
2865.559570	491.000000
2866.866748	499.333333
2868.172164	542.666667
2869.478913	475.333333
2870.783901	516.000000
2872.088675	491.666667
2873.391687	533.666667
2874.697580	478.666667
2875.998619	499.000000
2877.300992	514.333333
2878.601605	496.000000
2879.903552	490.000000
2881.205285	477.333333
2882.503715	490.000000
2883.803478	464.333333
2885.101484	462.000000
2886.399278	501.000000
2887.695316	489.666667
2888.992687	473.333333
2890.288302	487.333333
2891.583706	467.666667
2892.878899	461.000000
2894.170795	483.666667
2895.465567	465.000000
2896.757042	484.666667
2898.049850	464.000000
2899.342448	488.666667
2900.631752	478.666667
2901.922388	457.000000
2903.211273	487.000000
2904.501490	487.333333
2905.788416	465.000000
2907.076674	502.000000
2908.363183	494.000000
2909.649483	443.666667
2910.935576	477.000000
2912.219920	505.666667
2913.507135	449.000000
2914.789524	463.000000
2916.073245	481.000000
2917.355220	482.000000
2918.636987	481.333333
2919.917010	464.666667
2921.199902	438.000000
2922.481049	453.000000
2923.758914	471.000000
2925.039648	443.666667
2926.317101	444.000000
2927.594348	481.000000
2928.869853	484.333333
2930.148226	465.000000
2931.421785	466.666667
2932.698211	430.666667
2933.972896	491.000000
2935.245840	455.000000
2936.520116	475.666667
2937.792652	439.333333
2939.064983	470.000000
2940.334042	471.666667
2941.605966	408.333333
2942.876152	447.333333
2944.146134	449.666667
2945.415913	439.000000
2946.683956	482.666667
2947.950262	452.333333
2949.216367	404.333333
2950.483801	449.666667
2951.749501	442.000000
2953.014998	419.000000
2954.280293	450.000000
2955.542323	430.000000
2956.805683	442.333333
2958.068842	456.333333
2959.330269	446.000000
2960.593025	436.333333
2961.854049	465.000000
2963.113343	449.666667
2964.372437	449.333333
2965.631330	469.000000
2966.890023	462.666667
2968.148516	443.333333
2969.405280	446.666667
2970.661844	422.666667
2971.916681	465.000000
2973.172846	480.000000
2974.425757	427.000000
2975.679997	434.000000
2976.934037	419.666667
2978.186353	452.333333
2979.438469	444.000000
2980.688861	414.666667
2981.942108	422.666667
2983.190578	403.333333
2984.441903	407.666667
2985.689978	417.666667
2986.937857	423.000000
2988.185538	419.333333
2989.433022	451.666667
2990.678785	441.666667
2991.924352	442.000000
2993.171246	447.333333
2994.414896	416.666667
2995.659874	422.666667
2996.901608	426.000000
2998.146194	452.000000
2999.389061	422.666667
3000.628687	393.333333
3001.871163	416.000000
3003.110399	451.000000
3004.350963	422.666667
3005.589810	424.000000
3006.828463	413.000000
3008.065400	415.000000
3009.303665	424.000000
3010.540214	424.666667
3011.776570	430.666667
3013.012732	460.333333
3014.247180	436.666667
3015.481436	459.666667
3016.715498	404.333333
3017.947848	414.666667
3019.178486	377.000000
3020.411970	391.666667
3021.643742	430.666667
3022.873804	436.666667
3024.103673	434.333333
3025.331833	434.666667
3026.561320	413.666667
3027.789097	402.666667
3029.016683	440.333333
3030.245596	431.666667
3031.469766	416.333333
3032.696779	409.333333
3033.920568	455.666667
3035.145684	427.666667
3036.369093	415.666667
3037.592312	411.666667
3038.813826	430.666667
3040.038181	426.333333
3041.257801	415.666667
3042.478747	409.000000
3043.699504	405.666667
3044.918557	395.333333
3046.138935	387.666667
3047.356097	392.666667
3048.574585	401.000000
3049.791370	411.000000
3051.007968	398.333333
3052.224377	381.333333
3053.437574	428.666667
3054.653608	354.333333
3055.866430	415.333333
3057.082089	404.000000
3058.293025	392.000000
3059.505286	377.000000
3060.717361	397.666667
3061.929248	408.000000
3063.139439	410.000000
3064.349443	392.666667
3065.559261	409.333333
3066.767383	388.666667
3067.975320	395.666667
3069.181561	381.666667
3070.389127	383.666667
3071.594998	390.666667
3072.800685	397.666667
3074.006186	432.333333
3075.209994	435.333333
3076.415126	388.000000
3077.618565	406.000000
3078.820313	366.333333
3080.021876	404.000000
3081.223256	400.000000
3082.424452	407.666667
3083.623958	377.333333
3084.823281	386.000000
3086.023927	397.000000
3087.222883	401.333333
3088.418645	373.333333
3089.617236	388.000000
3090.812633	409.666667
3092.009353	365.000000
3093.202881	369.333333
3094.399237	424.666667
3095.593907	404.333333
3096.785385	384.000000
3097.981196	408.666667
3099.172312	374.333333
3100.364752	339.333333
3101.554004	423.333333
3102.746081	405.666667
3103.936475	422.666667
3105.123683	410.333333
3106.312213	351.666667
3107.502066	420.000000
3108.688735	404.333333
3109.875223	414.000000
3111.061533	379.000000
3112.249164	387.333333
3113.433613	347.000000
3114.616383	402.000000
3115.801975	410.000000
3116.985888	363.000000
3118.168122	373.333333
3119.350177	354.666667
3120.532054	392.000000
3121.713753	380.000000
3122.893775	368.333333
3124.072120	364.000000
3125.253285	361.666667
3126.431275	370.666667
3127.609089	346.333333
3128.786725	376.000000
3129.962686	368.333333
3131.138470	373.000000
3132.315576	398.333333
3133.491007	366.666667
3134.664765	366.333333
3135.836850	375.666667
3137.010257	384.000000
3138.183487	362.333333
3139.355046	369.333333
3140.527925	328.333333
3141.697637	377.000000
3142.868670	322.000000
3144.038033	387.666667
3145.205725	330.666667
3146.376233	341.333333
3147.542083	391.333333
3148.712241	366.666667
3149.877743	362.666667
3151.043070	335.333333
3152.208224	343.000000
3153.373205	390.666667
3154.539505	355.666667
3155.701153	370.000000
3156.864120	381.333333
3158.026915	356.666667
3159.189537	316.333333
3160.350494	338.333333
3161.511278	349.333333
3162.671890	341.666667
3163.830838	358.666667
3164.989615	350.000000
3166.148220	345.666667
3167.306652	356.333333
3168.464914	350.000000
3169.621513	370.333333
3170.776451	371.666667
3171.932708	293.000000
3173.087304	313.000000
3174.241730	329.666667
3175.394496	346.666667
3176.547091	336.333333
3177.699517	330.333333
3178.851773	373.000000
3180.003858	336.333333
3181.152798	332.666667
3182.304544	341.333333
3183.454632	373.333333
3184.603064	331.000000
3185.751326	329.333333
3186.899420	342.666667
3188.047345	317.666667
3189.193614	361.000000
3190.339715	377.000000
3191.484162	372.000000
3192.628441	356.666667
3193.772552	297.333333
3194.917980	360.333333
3196.060270	321.333333
3197.202393	357.333333
3198.344348	331.333333
3199.486136	360.333333
3200.627757	333.000000
3201.766243	353.666667
3202.906046	294.000000
3204.047167	347.333333
3205.185153	334.000000
3206.321490	365.333333
3207.457661	317.000000
3208.595149	345.333333
3209.730989	309.666667
3210.868146	321.666667
3212.000690	341.333333
3213.137516	358.333333
3214.269730	374.333333
3215.403261	321.333333
3216.536628	354.333333
3217.666867	349.333333
3218.799904	320.333333
3219.929815	308.666667
3221.061042	302.000000
3222.189145	365.666667
3223.320044	265.666667
3224.449299	293.333333
3225.576911	330.333333
3226.701400	310.000000
3227.830165	322.333333
3228.955808	322.000000
3230.081289	339.666667
3231.205128	333.666667
3232.331761	376.333333
3233.453797	317.666667
3234.577149	309.000000
3235.700339	278.333333
3236.823366	324.000000
3237.944755	305.000000
3239.065981	296.666667
3240.185570	283.000000
3241.304997	293.333333
3242.422786	311.333333
3243.543367	326.333333
3244.660835	325.333333
3245.778142	328.666667
3246.895289	329.000000
3248.010800	297.000000
3249.127625	320.333333
3250.241341	312.666667
3251.357846	308.666667
3252.472717	297.666667
3253.584479	318.666667
3254.696081	317.666667
3255.808999	321.000000
3256.921757	311.000000
3258.031409	320.333333
3259.142376	310.000000
3260.253184	344.333333
3261.362360	311.666667
3262.469906	325.000000
3263.578765	318.333333
3264.687467	305.333333
3265.793066	294.333333
3266.899979	321.666667
3268.005263	324.666667
3269.111861	309.000000
3270.215359	323.333333
3271.320172	289.000000
3272.424827	369.666667
3273.526383	318.000000
3274.627783	309.000000
3275.730497	312.666667
3276.833055	334.000000
3277.932516	326.333333
3279.034761	300.333333
3280.133910	311.666667
3281.231435	304.333333
3282.328804	305.000000
3283.428955	288.333333
3284.526014	283.000000
3285.622917	339.333333
3286.719665	301.333333
3287.811855	306.000000
3288.908293	300.000000
3290.003109	303.333333
3291.097771	311.000000
3292.190811	265.333333
3293.283696	305.666667
3294.374962	273.000000
3295.467539	325.333333
3296.558497	315.333333
3297.647835	331.000000
3298.737020	300.666667
3299.827518	314.666667
3300.914931	314.666667
3302.002191	294.333333
3303.090764	311.666667
3304.179185	353.333333
3305.263058	319.333333
3306.351173	315.000000
3307.436206	273.333333
3308.519624	325.666667
3309.604354	305.666667
3310.687468	327.333333
3311.771895	323.000000
3312.853243	285.000000
3313.935903	281.333333
3315.016949	296.666667
3316.097844	313.333333
3317.177125	284.666667
3318.256256	288.000000
3319.336699	299.000000
3320.414067	284.333333
3321.492747	285.666667
3322.569815	284.666667
3323.646734	310.333333
3324.722041	305.666667
3325.797199	327.333333
3326.873668	276.333333
3327.947067	275.666667
3329.020317	292.333333
3330.094877	312.333333
3331.167829	334.000000
3332.239172	314.666667
3333.311826	270.000000
3334.381414	322.333333
3335.452312	318.000000
3336.521603	272.333333
3337.592205	297.333333
3338.661200	292.000000
3339.728589	277.000000
3340.794373	307.000000
3341.864383	308.666667
3342.931330	277.333333
3343.995215	266.333333
3345.061868	308.666667
3346.126916	290.333333
3347.190361	288.333333
3348.253660	276.000000
3349.316812	295.000000
3350.379818	300.666667
3351.442678	319.000000
3352.503936	278.333333
3353.562137	306.333333
3354.624558	267.666667
3355.683924	272.666667
3356.743144	285.666667
3357.803673	268.666667
3358.859694	290.666667
3359.918478	268.000000
3360.972755	292.333333
3362.029796	286.333333
3363.085238	222.666667
3364.141990	284.666667
3365.197143	280.666667
3366.250699	298.666667
3367.302659	276.666667
3368.357380	277.666667
3369.409052	284.333333
3370.460581	285.666667
3371.513418	250.000000
3372.563208	281.000000
3373.614307	276.333333
3374.662360	257.333333
3375.713172	280.000000
3376.760940	277.333333
3377.808565	280.000000
3378.856047	286.666667
3379.901937	237.333333
3380.949135	238.666667
3381.993291	270.000000
3383.040205	261.333333
3384.085527	268.333333
3385.127808	271.333333
3386.169949	258.666667
3387.213397	279.333333
3388.256704	255.000000
3389.298422	269.666667
3390.339998	278.000000
3391.381433	300.000000
3392.421280	292.333333
3393.459538	261.333333
3394.499104	313.000000
3395.538530	242.333333
3396.576368	267.333333
3397.612619	285.000000
3398.648731	302.333333
3399.686150	282.666667
3400.720536	236.000000
3401.756229	283.666667
3402.791783	262.666667
3403.824306	274.333333
3404.859582	273.333333
3405.891827	265.000000
3406.923934	313.666667
3407.954457	271.666667
3408.986287	247.333333
3410.017979	262.000000
3411.046643	227.666667
3412.075170	235.333333
3413.105003	279.333333
3414.134699	259.333333
3415.161369	266.666667
3416.189346	229.666667
3417.214298	227.666667
3418.242000	210.333333
3419.266679	245.333333
3420.292664	260.333333
3421.317069	278.666667
3422.341338	271.000000
3423.364028	272.333333
3424.386582	239.666667
3425.410442	224.000000
3426.431282	251.333333
3427.451986	274.333333
3428.473997	271.333333
3429.492989	252.666667
3430.511845	284.000000
3431.532008	287.666667
3432.549154	256.666667
