-116.707459	-13.333333
-114.037859	2.000000
-111.371194	59.666667
-108.705281	-3.666667
-106.042300	47.000000
-103.377890	-4.666667
-100.716410	5.333333
-98.053501	31.666667
-95.395698	29.333333
-92.736466	42.000000
-90.077982	43.333333
-87.422422	12.333333
-84.765434	16.000000
-82.113544	13.666667
-79.460224	4.333333
-76.809823	-12.666667
-74.157993	35.000000
-71.511254	-2.666667
-68.863086	30.666667
-66.215660	-5.333333
-63.571148	20.333333
-60.925208	2.333333
-58.284349	-3.000000
-55.642061	16.333333
-53.002682	3.000000
-50.361873	17.666667
-47.721805	11.666667
-45.086809	37.000000
-42.450385	5.000000
-39.816863	12.666667
-37.181913	41.333333
-34.552028	-10.666667
-31.918551	21.666667
-29.290136	40.333333
-26.662455	24.000000
-24.033345	7.000000
-21.409292	4.666667
-18.781650	26.666667
-16.159061	50.000000
-13.537204	41.666667
-10.916077	62.000000
-8.295680	125.000000
-5.678172	462.333333
-3.059235	1210.333333
-0.443183	2749.000000
2.172140	3372.666667
4.786736	2057.333333
7.398449	298.666667
10.011591	48.000000
12.619699	34.666667
15.231389	40.000000
17.838048	47.000000
20.446135	21.000000
23.053498	14.333333
25.655836	8.333333
28.261752	47.000000
30.862646	35.333333
33.464968	26.000000
36.062273	42.333333
38.663153	43.333333
41.259018	2.333333
43.856312	8.333333
46.452886	24.000000
49.044451	39.000000
51.637444	29.333333
54.227576	34.333333
56.819136	12.666667
59.407836	15.000000
61.997963	60.333333
64.583091	-31.000000
67.169647	20.000000
69.755489	72.666667
72.338477	21.333333
74.922891	1.666667
77.500177	55.666667
80.081029	11.666667
82.659032	6.000000
85.236325	33.333333
87.815044	18.333333
90.388781	-1.000000
92.963946	22.666667
95.536267	42.000000
98.107880	16.333333
100.676653	30.666667
103.246853	28.000000
105.814215	31.333333
108.383002	25.000000
110.948953	4.333333
113.512069	30.333333
116.078741	44.333333
118.636192	87.333333
121.199328	129.000000
123.757504	194.333333
126.319235	415.666667
128.876009	711.666667
131.434210	846.333333
133.987457	777.666667
136.540007	723.000000
139.096107	908.333333
141.647259	1115.000000
144.197714	1376.666667
146.747471	1594.333333
149.294409	1711.333333
151.840652	1789.666667
154.388320	1652.666667
156.935292	1686.666667
159.477329	1648.666667
162.018672	1565.000000
164.559322	1749.666667
167.101398	1724.333333
169.640662	1924.333333
172.177118	2042.000000
174.712882	2221.666667
177.250072	2476.000000
179.786571	2671.333333
182.320264	3004.333333
184.851153	3528.666667
187.381355	3918.666667
189.912981	4726.000000
192.441806	5658.666667
194.967832	6961.333333
197.493172	8554.666667
200.019937	10207.666667
202.543906	11950.666667
205.067190	13203.000000
207.589789	13681.000000
210.109595	13325.666667
212.628718	12216.666667
215.147158	10667.000000
217.667022	8903.666667
220.179885	7487.000000
222.696279	6322.333333
225.211991	5269.333333
227.722813	4529.000000
230.235060	3931.333333
232.744525	3460.333333
235.253311	3085.333333
237.761418	2754.000000
240.270950	2667.333333
242.775601	2378.000000
245.279576	2243.666667
247.784975	2123.333333
250.285499	2042.000000
252.789547	2002.666667
255.286623	2007.000000
257.787223	2081.333333
260.285051	2351.666667
262.782206	2826.666667
265.278688	3393.666667
267.770307	3277.000000
270.265446	2498.000000
272.757818	1786.666667
275.249520	1510.333333
277.738459	1384.666667
280.228822	1253.666667
282.716422	1189.333333
285.201263	1195.000000
287.689619	1203.666667
290.171035	1128.333333
292.655965	1142.000000
295.136050	1101.000000
297.619647	1110.666667
300.098401	1093.000000
302.578579	1118.666667
305.056004	1114.666667
307.532766	1033.666667
310.008865	1059.666667
312.482215	1047.333333
314.954903	1057.000000
317.426930	1063.000000
319.898296	1043.666667
322.366917	1110.000000
324.834880	1154.666667
327.304264	1114.333333
329.768826	1071.333333
332.236892	1073.333333
334.700138	1053.666667
337.162726	1101.000000
339.624658	1144.333333
342.085933	1136.666667
344.544474	1211.666667
347.004437	1318.333333
349.461667	1644.666667
351.918243	2327.000000
354.374165	3443.666667
356.827357	4010.333333
359.281972	3385.333333
361.731785	2068.000000
364.185094	1461.666667
366.633605	1271.333333
369.081464	1197.333333
371.530746	1140.666667
373.975234	1171.000000
376.421144	1121.666667
378.866404	1175.666667
381.308946	1137.333333
383.750840	1129.333333
386.192087	1194.000000
388.630618	1319.333333
391.070571	1555.666667
393.507810	1978.333333
395.942337	2129.666667
398.380352	1852.000000
400.813590	1598.666667
403.248249	1713.333333
405.678136	1792.000000
408.111508	1458.000000
410.540110	1309.000000
412.968070	1262.333333
415.397452	1212.333333
417.822068	1296.000000
420.248106	1265.333333
422.673503	1370.000000
425.098260	1363.666667
427.518259	1399.666667
429.939679	1441.000000
432.358402	1511.666667
434.778546	1638.333333
437.195995	1745.000000
439.614864	1877.000000
442.031040	2057.333333
444.442468	2351.000000
446.857374	2845.000000
449.269589	3575.000000
451.681170	4677.666667
454.092117	6438.333333
456.500378	9835.666667
458.908006	15942.000000
461.315002	26994.666667
463.721367	40497.666667
466.125049	47888.333333
468.528101	41450.333333
470.930523	27689.000000
473.332315	16525.000000
475.731430	10797.000000
478.131964	7735.666667
480.531869	5975.666667
482.927051	4898.333333
485.325700	4164.666667
487.719629	3629.333333
490.112932	3277.333333
492.505609	2998.000000
494.897661	2849.666667
497.291131	2594.666667
499.679889	2433.333333
502.065981	2311.000000
504.453493	2398.000000
506.840382	2587.333333
509.224607	2886.000000
511.610250	2947.000000
513.993232	2388.333333
516.373553	1947.333333
518.755293	1818.333333
521.134374	1725.666667
523.514874	1772.666667
525.892716	1566.000000
528.267903	1531.333333
530.642472	1509.333333
533.018459	1471.333333
535.391794	1473.333333
537.766546	1453.000000
540.136613	1426.333333
542.506064	1425.666667
544.876933	1410.000000
547.243122	1435.666667
549.610729	1367.333333
551.975690	1335.333333
554.340038	1350.666667
556.703773	1315.333333
559.068926	1285.333333
561.429407	1268.333333
563.791306	1287.666667
566.150564	1232.333333
568.507185	1277.333333
570.867250	1240.000000
573.220624	1222.000000
575.577443	1218.000000
577.931627	1204.333333
580.285202	1190.333333
582.638170	1266.666667
584.988505	1214.000000
587.340258	1240.000000
589.685334	1267.666667
592.035874	1241.000000
594.379740	1212.333333
596.729068	1191.666667
599.073747	1222.000000
601.415802	1157.000000
603.759274	1186.666667
606.100123	1229.000000
608.440370	1180.000000
610.777996	1154.666667
613.119057	1148.333333
615.455480	1093.666667
617.793320	1155.000000
620.128543	1076.333333
622.461150	1149.000000
624.795173	1136.333333
627.126582	1176.000000
629.457393	1133.000000
631.787607	1189.666667
634.117222	1162.666667
636.442214	1187.666667
638.772648	1129.000000
641.098461	1103.000000
643.421666	1145.666667
645.746288	1111.000000
648.068304	1154.000000
650.389726	1171.666667
652.708546	1097.333333
655.028781	1129.000000
657.348423	1075.000000
659.665464	1149.666667
661.981913	1051.333333
664.295764	1080.666667
666.611031	1112.333333
668.923701	1078.333333
671.237786	1160.666667
673.547271	1167.333333
675.858172	1106.666667
678.166480	1099.000000
680.474200	1122.666667
682.783334	1132.000000
685.087876	1167.333333
687.391832	1166.000000
689.695202	1249.333333
691.999986	1335.666667
694.300184	1434.666667
696.601796	1489.333333
698.902823	1432.333333
701.199269	1421.333333
703.497130	1287.666667
705.794407	1239.000000
708.091101	1129.333333
710.383219	1160.333333
712.678748	1079.000000
714.969703	1128.333333
717.262073	1106.000000
719.551868	1133.000000
721.841082	1143.333333
724.129717	1075.000000
726.415779	1147.000000
728.703256	1105.666667
730.988161	1152.666667
733.272489	1122.000000
735.554248	1136.333333
737.837421	1143.333333
740.120017	1138.666667
742.398057	1079.666667
744.677512	1093.333333
746.956390	1145.333333
749.234694	1124.000000
751.508448	1094.000000
753.783615	1119.000000
756.058209	1160.000000
758.330244	1128.666667
760.603692	1121.333333
762.874582	1147.333333
765.142916	1163.666667
767.412663	1151.000000
769.679856	1154.666667
771.946478	1107.666667
774.212530	1197.000000
776.476031	1206.666667
778.740945	1187.666667
781.005289	1139.666667
783.265104	1173.666667
785.526331	1214.000000
787.786991	1194.666667
790.045105	1304.666667
792.300674	1316.666667
794.559634	1314.000000
796.812095	1382.000000
799.069922	1425.000000
801.323231	1494.000000
803.574000	1658.333333
805.826181	1994.666667
808.075823	2415.333333
810.326878	2599.000000
812.573421	2381.333333
814.821376	1903.000000
817.066797	1628.333333
819.313629	1453.333333
821.559900	1362.000000
823.801666	1333.333333
826.046816	1340.000000
828.285493	1281.333333
830.527552	1246.000000
832.765113	1295.000000
835.004086	1243.666667
837.240532	1231.666667
839.478389	1220.333333
841.713721	1159.333333
843.946530	1276.000000
846.180750	1288.666667
848.412447	1195.000000
850.643590	1220.000000
852.874178	1230.333333
855.104212	1217.666667
857.333692	1192.666667
859.558690	1216.000000
861.787063	1164.666667
864.010956	1204.333333
866.236261	1168.666667
868.457090	1203.333333
870.681291	1176.333333
872.901019	1224.333333
875.122157	1157.333333
877.342745	1188.000000
879.560824	1198.000000
881.780312	1219.000000
883.995334	1193.000000
886.209808	1229.000000
888.423735	1212.666667
890.637115	1193.000000
892.849947	1177.000000
895.062233	1220.333333
897.272016	1175.666667
899.481254	1204.000000
901.689947	1159.666667
903.896141	1194.666667
906.103744	1139.333333
908.308849	1129.666667
910.513411	1166.333333
912.715478	1209.666667
914.918954	1184.666667
917.119936	1116.666667
919.320376	1220.000000
921.522225	1169.000000
923.717683	1182.666667
925.916500	1205.666667
928.110878	1185.000000
930.308614	1226.333333
932.501914	1167.666667
934.696623	1161.666667
936.888846	1155.666667
939.080530	1188.666667
941.271677	1174.666667
943.460341	1147.666667
945.648469	1180.666667
947.834116	1135.000000
950.023115	1153.333333
952.207691	1155.666667
954.391732	1197.333333
956.579123	1146.666667
958.758210	1130.333333
960.940648	1231.000000
963.122552	1163.000000
965.301981	1163.666667
967.478938	1129.000000
969.657303	1131.000000
971.837075	1154.000000
974.010498	1163.666667
976.187267	1160.000000
978.359629	1209.000000
980.533399	1179.333333
982.702765	1182.000000
984.875475	1156.666667
987.045720	1190.333333
989.215436	1156.333333
991.384623	1146.666667
993.549413	1163.333333
995.717544	1145.666667
997.881281	1082.333333
1000.046424	1176.333333
1002.209108	1213.000000
1004.371267	1151.333333
1006.530969	1152.000000
1008.690146	1121.000000
1010.850730	1141.000000
1013.008859	1168.000000
1015.166465	1135.333333
1017.323547	1162.666667
1019.480105	1145.000000
1021.632284	1152.666667
1023.785870	1169.000000
1025.938934	1113.666667
1028.089549	1132.333333
1030.241571	1140.000000
1032.389219	1197.666667
1034.540199	1186.333333
1036.686808	1174.333333
1038.832898	1164.666667
1040.978470	1129.000000
1043.125447	1192.000000
1045.266135	1139.000000
1047.410153	1220.333333
1049.551730	1175.333333
1051.692791	1181.666667
1053.835256	1217.000000
1055.971442	1236.000000
1058.110953	1201.666667
1060.246110	1212.666667
1062.384591	1302.333333
1064.518718	1271.000000
1066.652332	1289.000000
1068.787351	1298.666667
1070.918020	1299.666667
1073.050094	1294.666667
1075.179739	1386.333333
1077.308872	1490.333333
1079.437493	1661.333333
1081.565603	1865.333333
1083.691287	1960.333333
1085.816461	1821.000000
1087.943039	1523.333333
1090.065279	1374.333333
1092.188924	1271.666667
1094.308234	1248.000000
1096.432774	1205.333333
1098.551068	1196.666667
1100.670767	1180.000000
1102.788047	1229.333333
1104.904821	1238.666667
1107.021088	1167.000000
1109.134939	1173.000000
1111.250195	1182.000000
1113.361127	1209.666667
1115.475372	1153.666667
1117.585296	1146.000000
1119.696624	1208.333333
1121.807447	1172.333333
1123.913954	1115.333333
1126.023771	1122.000000
1128.129273	1137.666667
1130.236178	1160.000000
1132.336868	1123.666667
1134.442770	1218.000000
1136.544363	1142.000000
1138.647359	1186.000000
1140.749854	1167.333333
1142.846142	1223.000000
1144.947637	1223.666667
1147.044830	1231.333333
1149.141525	1290.666667
1151.237721	1415.333333
1153.333420	1394.333333
1155.428620	1563.666667
1157.521424	1694.000000
1159.615631	1867.333333
1161.703646	2016.000000
1163.796859	1850.000000
1165.883884	1695.333333
1167.974208	1463.333333
1170.060244	1304.000000
1172.149579	1247.666667
1174.232732	1170.666667
1176.317287	1222.666667
1178.403244	1163.666667
1180.484919	1150.333333
1182.567996	1172.000000
1184.648687	1173.666667
1186.728886	1180.000000
1188.808594	1153.666667
1190.887811	1152.333333
1192.964646	1152.666667
1195.039100	1161.666667
1197.116845	1179.666667
1199.190321	1146.333333
1201.265197	1147.666667
1203.335806	1194.000000
1205.407816	1178.333333
1207.477451	1176.333333
1209.548486	1126.000000
1211.619033	1182.666667
1213.685319	1170.000000
1215.753006	1170.666667
1217.818321	1161.666667
1219.885036	1180.666667
1221.947495	1197.333333
1224.013239	1206.666667
1226.074729	1187.000000
1228.137620	1262.666667
1230.198143	1269.333333
1232.258182	1231.666667
1234.317739	1227.000000
1236.374930	1182.000000
1238.431640	1255.333333
1240.485986	1204.000000
1242.543614	1194.000000
1244.598879	1201.000000
1246.649903	1164.666667
1248.702327	1167.666667
1250.754271	1176.000000
1252.803857	1189.333333
1254.852964	1195.333333
1256.901593	1165.000000
1258.949743	1164.333333
1260.997414	1166.000000
1263.040855	1185.666667
1265.087572	1128.666667
1267.131935	1124.000000
1269.175822	1103.000000
1271.217357	1160.333333
1273.256543	1138.000000
1275.299002	1165.333333
1277.337238	1132.666667
1279.376873	1119.000000
1281.416033	1080.000000
1283.450974	1085.666667
1285.487314	1089.666667
1287.521310	1130.000000
1289.556703	1122.333333
1291.587884	1118.666667
1293.620462	1124.333333
1295.652569	1122.333333
1297.682335	1171.333333
1299.713498	1108.333333
1301.740455	1147.666667
1303.768809	1115.666667
1305.792958	1139.333333
1307.820373	1144.666667
1309.843585	1172.333333
1311.868195	1085.333333
1313.890471	1156.666667
1315.914144	1131.000000
1317.935484	1088.000000
1319.956356	1125.666667
1321.976761	1125.000000
1323.992973	1164.333333
1326.010582	1088.000000
1328.025863	1122.333333
1330.044403	1128.000000
1332.058754	1112.000000
1334.070779	1066.666667
1336.086061	1070.333333
1338.097158	1109.000000
1340.109652	1106.666667
1342.117963	1117.333333
1344.129529	1071.333333
1346.135057	1118.666667
1348.143840	1090.333333
1350.148445	1084.333333
1352.156304	1120.333333
1354.163701	1106.000000
1356.165067	1084.000000
1358.167829	1154.000000
1360.170132	1070.666667
1362.171975	1073.333333
1364.173358	1095.666667
1366.172428	1082.000000
1368.171039	1069.000000
1370.169192	1114.333333
1372.166886	1110.666667
1374.160418	1079.000000
1376.155345	1062.000000
1378.149816	1117.666667
1380.143830	1074.333333
1382.135537	1037.000000
1384.126789	1060.000000
1386.115735	1018.333333
1388.106076	1114.333333
1390.095962	1098.000000
1392.083544	1101.666667
1394.070673	1067.666667
1396.055500	1103.666667
1398.041722	1097.666667
1400.025644	1135.000000
1402.009113	1073.000000
1403.992129	1077.333333
1405.972848	1058.666667
1407.954961	1076.333333
1409.934778	1094.666667
1411.914143	1116.333333
1413.889370	1105.333333
1415.867835	1067.333333
1417.844007	1100.666667
1419.819730	1095.666667
1421.795003	1097.666667
1423.767985	1064.666667
1425.740519	1139.000000
1427.712605	1071.000000
1429.684244	1095.333333
1431.651754	1070.000000
1433.624338	1093.333333
1435.589116	1102.666667
1437.558967	1063.333333
1439.524694	1083.666667
1441.491813	1106.666667
1443.456649	1043.333333
1445.417365	1115.333333
1447.383149	1105.000000
1449.342978	1096.333333
1451.304201	1062.666667
1453.266816	1082.666667
1455.225316	1061.666667
1457.183373	1091.000000
1459.140989	1118.000000
1461.098162	1044.333333
1463.053060	1093.000000
1465.009351	1091.000000
1466.963367	1088.666667
1468.916942	1120.666667
1470.868245	1132.666667
1472.820941	1130.666667
1474.771364	1123.666667
1476.721349	1069.666667
1478.670895	1143.333333
1480.618172	1080.666667
1482.563181	1053.666667
1484.509583	1053.333333
1486.455547	1076.000000
1488.401074	1062.333333
1490.344335	1094.333333
1492.287161	1101.000000
1494.227723	1044.666667
1496.169676	1068.333333
1498.109367	1124.666667
1500.048624	1111.666667
1501.987445	1069.333333
1503.924007	1066.666667
1505.861960	1057.333333
1507.797654	1077.000000
1509.732915	1049.666667
1511.665920	1041.000000
1513.598492	1070.333333
1515.530632	1113.333333
1517.462340	1043.666667
1519.391794	1067.666667
1521.322639	1038.666667
1523.253052	1083.000000
1525.179393	1092.666667
1527.107125	1113.333333
1529.032606	1118.666667
1530.957658	1070.000000
1532.882281	1049.000000
1534.806475	1041.666667
1536.728421	1031.000000
1538.651758	1063.333333
1540.572848	1091.000000
1542.491694	1084.333333
1544.411930	1083.000000
1546.329923	1089.333333
1548.247489	1042.333333
1550.162813	1094.333333
1552.079527	1072.333333
1553.992186	1062.333333
1555.908049	1072.666667
1557.821672	1137.666667
1559.733057	1027.333333
1561.645832	1064.000000
1563.554557	1076.666667
1565.464671	1077.333333
1567.374362	1057.000000
1569.283630	1080.666667
1571.190664	1119.666667
1573.095465	1090.000000
1575.001655	1044.333333
1576.905613	1079.666667
1578.809150	1042.333333
1580.712267	1084.333333
1582.613154	1058.000000
1584.515430	1038.666667
1586.415478	1098.333333
1588.316913	1074.333333
1590.214315	1054.000000
1592.111298	1050.666667
1594.007863	1049.666667
1595.905816	1080.000000
1597.797934	1053.000000
1599.693245	1007.333333
1601.588139	1066.333333
1603.480811	1058.666667
1605.373066	1014.333333
1607.263102	1067.333333
1609.152722	1121.666667
1611.041927	1042.000000
1612.930717	1083.666667
1614.817289	1064.333333
1616.705249	1072.333333
1618.589192	1073.333333
1620.474522	1091.000000
1622.359439	1048.000000
1624.242142	1118.333333
1626.126232	1091.000000
1628.006310	1060.666667
1629.887776	1072.333333
1631.767031	1076.000000
1633.647672	1113.666667
1635.522509	1069.333333
1637.402327	994.666667
1639.278141	1060.333333
1641.153544	1071.000000
1643.030333	1085.666667
1644.901326	1070.333333
1646.775500	1011.666667
1648.645675	1059.666667
1650.519032	1035.000000
1652.390184	1035.000000
1654.259136	1030.333333
1656.129472	1057.333333
1657.995816	1067.666667
1659.863545	1066.333333
1661.729075	1020.000000
1663.595991	1057.000000
1665.458918	1084.333333
1667.323230	1041.333333
1669.185346	1028.000000
1671.047057	1016.000000
1672.910154	1015.000000
1674.771055	1021.666667
1676.629764	1017.666667
1678.488069	946.666667
1680.347759	983.333333
1682.201681	1045.666667
1684.058777	1025.666667
1685.915470	983.333333
1687.768186	1020.000000
1689.624074	1020.000000
1691.475988	1026.666667
1693.327501	1019.333333
1695.178613	964.666667
1697.029325	996.333333
1698.879635	968.666667
1700.727762	966.666667
1702.577273	1025.333333
1704.421035	980.000000
1706.269746	984.000000
1708.112711	1011.333333
1709.958843	959.000000
1711.801012	983.000000
1713.646347	1003.000000
1715.485941	979.000000
1717.326919	971.000000
1719.169280	1013.666667
1721.007685	961.000000
1722.847473	968.666667
1724.685086	975.666667
1726.522303	954.666667
1728.357347	1021.000000
1730.193774	944.333333
1732.028029	987.333333
1733.861889	1024.000000
1735.695355	962.666667
1737.524876	959.000000
1739.357555	972.666667
1741.186290	930.666667
1743.018182	964.333333
1744.846132	976.666667
1746.673691	952.666667
1748.500857	1004.666667
1750.327632	987.000000
1752.154015	944.333333
1753.976462	919.666667
1755.802064	968.666667
1757.623731	978.000000
1759.446780	973.333333
1761.267667	913.333333
1763.088166	1003.000000
1764.910045	1001.333333
1766.726226	921.666667
1768.545558	998.333333
1770.360963	922.000000
1772.179518	922.666667
1773.994148	966.333333
1775.808391	965.666667
1777.622248	953.666667
1779.435718	928.000000
1781.247035	947.333333
1783.059732	965.333333
1784.872044	925.333333
1786.680438	945.333333
1788.490212	909.000000
1790.296072	1015.000000
1792.105077	943.666667
1793.910169	1005.000000
1795.716642	957.666667
1797.522731	947.000000
1799.324909	957.666667
1801.130232	950.000000
1802.931646	1000.333333
1804.734440	956.000000
1806.533328	934.333333
1808.333597	919.333333
1810.133484	934.666667
1811.931229	949.000000
1813.728594	950.666667
1815.525579	923.000000
1817.322183	934.333333
1819.116648	965.000000
1820.912492	944.333333
1822.702681	944.333333
1824.497767	950.666667
1826.287201	896.666667
1828.079771	899.000000
1829.870206	909.666667
1831.658507	916.333333
1833.449943	940.666667
1835.235733	934.000000
1837.022903	966.666667
1838.807941	929.333333
1840.596113	923.666667
1842.380399	916.000000
1844.162555	917.666667
1845.946091	921.000000
1847.727498	911.666667
1849.510284	931.333333
1851.289189	951.333333
1853.069474	901.333333
1854.847632	914.333333
1856.627169	870.666667
1858.404581	919.666667
1860.179869	930.666667
1861.956535	888.000000
1863.731079	928.333333
1865.507001	924.333333
1867.277302	919.333333
1869.050731	961.000000
1870.822040	899.666667
1872.592978	915.666667
1874.365294	939.666667
1876.131996	939.000000
1877.901824	997.333333
1879.667788	897.000000
1881.436875	962.666667
1883.202101	929.666667
1884.966959	902.666667
1886.733194	904.333333
1888.495570	916.333333
1890.257579	950.333333
1892.019220	892.333333
1893.780495	925.000000
1895.541402	918.666667
1897.301943	889.000000
1899.060374	900.333333
1900.818439	923.333333
1902.574397	870.000000
1904.331731	897.000000
1906.088700	940.666667
1907.843562	917.333333
1909.596320	923.333333
1911.348713	920.333333
1913.102483	898.666667
1914.854149	924.666667
1916.603713	916.333333
1918.354652	878.666667
1920.105229	927.000000
1921.851966	919.000000
1923.600080	883.000000
1925.346094	898.333333
1927.093483	906.666667
1928.838775	885.000000
1930.581969	857.333333
1932.326538	904.666667
1934.069012	889.000000
1935.811125	888.666667
1937.552878	904.000000
1939.294271	878.666667
1941.033571	911.000000
1942.772512	878.000000
1944.511094	893.333333
1946.247585	925.333333
1947.983718	889.833333
1949.721225	854.333333
1951.454910	908.000000
1953.189970	853.333333
1954.922941	860.000000
1956.655556	885.333333
1958.387815	877.666667
1960.119717	894.000000
1961.849533	938.333333
1963.577264	896.000000
1965.306370	925.000000
1967.035121	862.000000
1968.761788	846.333333
1970.488101	881.333333
1972.215787	864.666667
1973.937937	861.333333
1975.663188	900.666667
1977.384632	898.333333
1979.109177	881.666667
1980.831641	916.000000
1982.550303	932.000000
1984.272063	859.000000
1985.990021	905.000000
1987.709352	837.000000
1989.424884	926.666667
1991.145236	883.000000
1992.861790	931.000000
1994.574547	857.333333
1996.290400	905.000000
1998.004181	908.666667
1999.717612	889.000000
2001.428972	843.666667
2003.141704	877.000000
2004.850646	893.666667
2006.562680	877.666667
2008.269206	912.333333
2009.978823	896.000000
2011.686374	883.000000
2013.393576	890.666667
2015.098713	890.333333
2016.803504	915.666667
2018.509666	924.000000
2020.212046	897.000000
2021.915797	876.666667
2023.617486	858.333333
2025.318830	863.666667
2027.019828	853.000000
2028.718765	874.000000
2030.419074	876.666667
2032.115608	867.333333
2033.813513	946.666667
2035.509359	867.000000
2037.208291	863.666667
2038.901737	924.000000
2040.596554	871.000000
2042.291029	854.666667
2043.981735	879.333333
2045.675525	880.000000
2047.365548	869.000000
2049.056942	882.666667
2050.746283	869.666667
2052.436994	843.000000
2054.123942	864.666667
2055.810551	912.666667
2057.498529	836.666667
2059.182748	811.000000
2060.868338	861.666667
2062.553588	871.333333
2064.236789	853.666667
2065.921361	861.000000
2067.600470	845.666667
2069.284364	839.666667
2070.962797	829.333333
2072.644308	825.666667
2074.322067	927.000000
2075.999490	825.333333
2077.678282	840.666667
2079.355032	841.000000
2081.029740	862.666667
2082.705817	821.666667
2084.379853	863.000000
2086.053555	876.000000
2087.726921	815.666667
2089.398248	813.333333
2091.069241	860.666667
2092.739900	839.000000
2094.410225	860.333333
2096.080216	851.666667
2097.748171	834.333333
2099.415793	841.333333
2101.081380	842.000000
2102.748336	810.000000
2104.413259	831.000000
2106.077850	798.666667
2107.740409	851.666667
2109.404336	862.666667
2111.066232	812.000000
2112.727798	839.333333
2114.389032	830.333333
2116.048238	866.000000
2117.707113	894.666667
2119.365659	845.666667
2121.023874	804.666667
2122.678367	848.666667
2124.335924	870.666667
2125.993152	831.000000
2127.646658	876.000000
2129.301532	872.000000
2130.952687	891.000000
2132.606905	845.666667
2134.257406	820.666667
2135.909273	829.666667
2137.555732	838.333333
2139.206946	830.333333
2140.854446	847.666667
2142.503313	862.000000
2144.150161	803.000000
2145.796684	807.666667
2147.442881	846.000000
2149.085370	830.333333
2150.730917	836.333333
2152.372757	852.666667
2154.017654	843.333333
2155.658845	848.000000
2157.299714	819.333333
2158.940258	806.666667
2160.578790	809.000000
2162.218688	791.666667
2163.854886	856.666667
2165.492450	860.666667
2167.129692	791.333333
2168.764924	793.000000
2170.399835	818.666667
2172.034423	821.333333
2173.668691	801.333333
2175.299265	807.000000
2176.932891	783.333333
2178.562825	791.000000
2180.194124	790.000000
2181.823418	787.333333
2183.452393	799.333333
2185.081048	798.666667
2186.709384	818.000000
2188.335718	836.666667
2189.961733	805.666667
2191.585746	817.000000
2193.211125	808.666667
2194.834503	802.000000
2196.459246	821.666667
2198.080308	814.333333
2199.701053	784.666667
2201.323163	807.666667
2202.943275	751.666667
2204.561390	799.666667
2206.179190	784.666667
2207.796675	810.666667
2209.413844	789.666667
2211.030698	792.333333
2212.647236	760.666667
2214.261782	751.666667
2215.874335	783.000000
2217.488252	792.666667
2219.100178	801.000000
2220.713467	815.333333
2222.324766	798.000000
2223.934075	763.333333
2225.544748	783.666667
2227.153432	748.333333
2228.761803	791.333333
2230.368188	798.333333
2231.975936	819.333333
2233.581697	776.333333
2235.187147	733.333333
2236.790612	789.333333
2238.395440	735.333333
2239.998284	801.666667
2241.599145	779.666667
2243.201369	791.000000
2244.801611	795.333333
2246.403215	750.333333
2248.001166	794.666667
2249.600480	739.333333
2251.197814	768.666667
2252.794840	776.666667
2254.393228	798.666667
2255.987967	755.666667
2257.580729	816.666667
2259.174854	757.666667
2260.770340	765.000000
2262.362181	761.666667
2263.953716	778.000000
2265.546613	773.333333
2267.134200	751.666667
2268.726483	753.666667
2270.313460	749.666667
2271.903464	758.000000
2273.488164	745.000000
2275.077558	765.000000
2276.661650	757.666667
2278.247102	784.333333
2279.830586	747.666667
2281.417095	751.333333
2282.999971	742.333333
2284.582544	729.333333
2286.164813	738.333333
2287.743452	786.000000
2289.325116	732.666667
2290.903151	749.666667
2292.484209	748.000000
2294.061640	746.000000
2295.637108	744.000000
2297.215598	725.000000
2298.790464	771.666667
2300.365029	733.000000
2301.939294	723.333333
2303.513258	766.333333
2305.086921	790.333333
2306.660285	752.333333
2308.230030	740.000000
2309.799476	704.666667
2311.371940	703.666667
2312.939130	722.666667
2314.509338	718.666667
2316.075931	727.666667
2317.643884	778.000000
2319.209881	747.000000
2320.775581	703.000000
2322.340983	726.333333
2323.904432	729.333333
2325.469240	767.333333
2327.030440	744.666667
2328.594654	725.666667
2330.153606	781.000000
2331.715573	695.666667
2333.275588	702.666667
2334.835309	707.666667
2336.393080	725.666667
2337.950556	707.333333
2339.507738	738.000000
2341.062972	769.666667
2342.617913	729.000000
2344.172559	733.000000
2345.726912	752.666667
2347.280972	755.333333
2348.834737	725.333333
2350.386558	746.000000
2351.936437	718.666667
2353.489323	745.000000
2355.036966	760.000000
2356.587618	663.000000
2358.134678	774.333333
2359.683096	706.333333
2361.231223	705.666667
2362.775761	697.666667
2364.321657	705.000000
2365.865615	731.666667
2367.410930	749.000000
2368.952660	747.333333
2370.495747	726.000000
2372.036898	713.333333
2373.577760	710.333333
2375.118333	727.333333
2376.658617	725.000000
2378.198612	693.000000
2379.735029	741.000000
2381.274447	750.333333
2382.810287	721.000000
2384.347485	676.000000
2385.881107	650.666667
2387.417729	720.333333
2388.952421	712.666667
2390.485183	667.000000
2392.017658	694.000000
2393.548205	681.666667
2395.081750	724.000000
2396.610084	723.333333
2398.139774	656.666667
2399.669179	716.666667
2401.198299	692.666667
2402.727134	710.333333
2404.250763	684.333333
2405.779028	691.000000
2407.302091	722.333333
2408.829787	680.666667
2410.350644	725.666667
2411.876134	728.000000
2413.398063	714.333333
2414.921348	650.666667
2416.442711	677.333333
2417.962155	721.666667
2419.482954	677.000000
2421.001835	695.333333
2422.520433	682.000000
2424.037114	675.000000
2425.555149	697.666667
2427.072903	678.333333
2428.587106	647.000000
2430.101028	661.333333
2431.614670	663.666667
2433.129667	694.000000
2434.641115	678.666667
2436.153918	695.666667
2437.664807	669.000000
2439.175418	702.333333
2440.684117	684.000000
2442.195802	727.666667
2443.703944	746.000000
2445.211808	685.666667
2446.719394	687.666667
2448.223439	659.666667
2449.730469	660.000000
2451.235591	680.000000
2452.740436	694.333333
2454.243374	638.000000
2455.746036	684.333333
2457.248421	670.000000
2458.748901	674.333333
2460.250734	701.000000
2461.750662	674.000000
2463.250315	658.333333
2464.749693	656.000000
2466.247168	646.333333
2467.742741	646.000000
2469.241294	680.666667
2470.736319	655.000000
2472.232696	650.333333
2473.725547	663.000000
2475.219751	652.000000
2476.713681	678.333333
2478.204087	641.666667
2479.697471	666.000000
2481.188957	628.333333
2482.678546	646.333333
2484.167863	685.000000
2485.655284	624.666667
2487.145681	591.333333
2488.632560	663.666667
2490.120790	637.666667
2491.605503	619.666667
2493.089947	641.333333
2494.575741	648.666667
2496.059644	661.333333
2497.544897	637.666667
2499.025017	613.666667
2500.508110	650.333333
2501.989312	642.000000
2503.470245	688.000000
2504.949289	643.666667
2506.428064	617.666667
2507.906571	635.000000
2509.384810	648.666667
2510.862780	687.333333
2512.337245	672.000000
2513.814680	654.666667
2515.288611	668.000000
2516.763892	635.000000
2518.238906	669.000000
2519.710419	636.333333
2521.183283	658.666667
2522.654264	655.000000
2524.126595	634.333333
2525.593812	652.333333
2527.063996	655.666667
2528.532299	689.666667
2530.000337	637.666667
2531.468110	649.000000
2532.935618	636.333333
2534.402861	649.000000
2535.866612	653.666667
2537.331713	655.333333
2538.794937	617.666667
2540.259510	641.666667
2541.720595	667.666667
2543.183029	647.000000
2544.645200	652.333333
2546.103885	622.666667
2547.567141	668.666667
2549.025302	671.666667
2550.484811	659.666667
2551.939226	669.000000
2553.398212	625.666667
2554.855326	654.666667
2556.310569	612.000000
2557.765550	651.666667
2559.218663	616.666667
2560.673124	594.000000
2562.125715	638.666667
2563.578047	644.000000
2565.028512	627.333333
2566.481932	638.666667
2567.930270	641.333333
2569.381563	643.000000
2570.830991	646.000000
2572.276946	632.000000
2573.725856	625.000000
2575.171296	641.333333
2576.618083	657.333333
2578.063008	612.333333
2579.507674	638.333333
2580.953688	594.000000
2582.396236	645.666667
2583.840131	616.333333
2585.280561	619.333333
2586.722338	599.000000
2588.162256	627.666667
2589.603521	582.666667
2591.041324	595.333333
2592.482077	592.666667
2593.917768	622.333333
2595.356408	625.333333
2596.793190	599.333333
2598.228117	600.666667
2599.665991	616.666667
2601.098808	630.333333
2602.532972	620.000000
2603.965282	594.000000
2605.398938	624.000000
2606.830741	586.000000
2608.262290	610.666667
2609.693587	589.333333
2611.123031	632.333333
2612.552223	594.000000
2613.979565	612.666667
2615.408252	623.333333
2616.836688	614.000000
2618.261676	586.000000
2619.688011	622.000000
2621.112497	601.333333
2622.538329	599.000000
2623.960717	615.000000
2625.384451	615.000000
2626.806338	578.000000
2628.227976	600.000000
2629.647768	633.666667
2631.068906	597.333333
2632.489794	585.000000
2633.907244	560.666667
2635.327633	572.666667
2636.744585	596.333333
2638.161288	570.000000
2639.577743	580.000000
2640.993950	562.666667
2642.409909	646.333333
2643.824027	599.333333
2645.237897	554.000000
2646.649929	585.000000
2648.063304	560.000000
2649.473250	605.333333
2650.886132	604.666667
2652.295585	577.333333
2653.704792	561.000000
2655.112163	566.333333
2656.522468	629.666667
2657.930938	595.666667
2659.337572	638.333333
2660.743961	620.000000
2662.148516	548.666667
2663.554415	571.000000
2664.958481	551.666667
2666.362302	598.000000
2667.765879	596.666667
2669.167625	580.666667
2670.570714	566.666667
2671.970385	552.333333
2673.371400	569.666667
2674.768999	550.666667
2676.169527	580.666667
2677.566641	591.333333
2678.965098	610.666667
2680.361728	585.333333
2681.758115	580.333333
2683.154260	567.333333
2684.548579	588.333333
2685.944241	583.000000
2687.336494	593.666667
2688.730089	548.000000
2690.121860	567.333333
2691.514974	595.000000
2692.906264	598.333333
2694.295731	555.333333
2695.684958	564.333333
2697.073946	601.333333
2698.464275	601.666667
2699.849621	547.666667
2701.237890	590.666667
2702.624339	606.333333
2704.010549	578.333333
2705.396520	573.333333
2706.779093	572.333333
2708.163008	554.333333
2709.546685	565.333333
2710.930123	573.333333
2712.310167	549.666667
2713.691551	560.666667
2715.071121	584.333333
2716.452031	540.000000
2717.831127	565.000000
2719.208409	547.000000
2720.587032	585.666667
2721.963842	519.333333
2723.340415	549.000000
2724.716753	564.666667
2726.091280	540.000000
2727.467147	537.666667
2728.839627	561.666667
2730.215023	516.666667
2731.585459	594.000000
2732.957236	550.000000
2734.328778	576.000000
2735.698512	516.666667
2737.069587	560.000000
2738.438853	568.000000
2739.807886	552.666667
2741.175113	553.666667
2742.542106	514.000000
2743.908867	537.333333
2745.275396	539.000000
2746.640119	523.000000
2748.004610	535.666667
2749.368870	554.000000
2750.732897	530.333333
2752.096693	476.333333
2753.457115	543.333333
2754.820447	527.000000
2756.178837	528.000000
2757.540137	572.666667
2758.898067	542.333333
2760.258905	542.000000
2761.617944	533.000000
2762.973614	539.666667
2764.332192	549.333333
2765.687403	519.333333
2767.042385	529.333333
2768.395571	528.666667
2769.751662	578.666667
2771.104390	528.333333
2772.456890	528.666667
2773.809161	503.333333
2775.162770	499.333333
2776.513019	506.333333
2777.861473	503.666667
2779.212833	537.666667
2780.560833	502.000000
2781.910171	539.333333
2783.257717	535.333333
2784.605037	508.000000
2785.952130	532.333333
2787.297432	492.666667
2788.642507	508.000000
2789.987357	493.333333
2791.331981	501.666667
2792.673253	516.666667
2794.015863	566.000000
2795.358247	521.000000
2796.700406	543.666667
2798.039216	512.666667
2799.380926	526.666667
2800.719288	513.666667
2802.058986	468.000000
2803.396900	526.000000
2804.733029	520.333333
2806.068934	518.333333
2807.406177	540.333333
2808.741636	525.666667
2810.076872	513.000000
2811.410325	513.666667
2812.745115	501.000000
2814.076565	484.000000
2815.410910	478.333333
2816.740357	490.000000
2818.071141	520.000000
2819.401703	481.666667
2820.730486	484.333333
2822.060605	442.000000
2823.388946	472.666667
2824.717066	519.333333
2826.043408	500.333333
2827.371087	518.000000
2828.695432	484.333333
2830.021114	468.666667
2831.345020	556.666667
2832.668707	506.000000
2833.993729	530.000000
2835.315421	509.666667
2836.636895	513.000000
2837.958150	444.666667
2839.279186	520.000000
2840.598449	498.666667
2841.919048	503.333333
2843.237876	483.000000
2844.556485	515.333333
2845.873323	471.000000
2847.189944	489.333333
2848.506348	494.666667
2849.820982	514.333333
2851.136952	458.000000
2852.449601	498.333333
2853.763585	493.000000
2855.077353	484.333333
2856.390904	464.666667
2857.702689	468.333333
2859.012707	413.000000
2860.324060	475.333333
2861.632098	436.333333
2862.941470	562.666667
2864.250628	459.666667
2865.559570	503.666667
2866.866748	488.666667
2868.172164	489.666667
2869.478913	513.000000
2870.783901	499.333333
2872.088675	493.666667
2873.391687	503.333333
2874.697580	490.333333
2875.998619	517.666667
2877.300992	476.000000
2878.601605	510.666667
2879.903552	482.000000
2881.205285	471.666667
2882.503715	472.666667
2883.803478	487.666667
2885.101484	517.000000
2886.399278	472.666667
2887.695316	462.000000
2888.992687	480.000000
2890.288302	459.333333
2891.583706	497.666667
2892.878899	451.000000
2894.170795	484.666667
2895.465567	499.333333
2896.757042	503.333333
2898.049850	478.000000
2899.342448	481.333333
2900.631752	478.666667
2901.922388	491.000000
2903.211273	461.666667
2904.501490	470.000000
2905.788416	484.666667
2907.076674	456.333333
2908.363183	447.000000
2909.649483	452.333333
2910.935576	424.000000
2912.219920	461.666667
2913.507135	494.000000
2914.789524	505.333333
2916.073245	489.000000
2917.355220	439.666667
2918.636987	498.666667
2919.917010	459.666667
2921.199902	441.666667
2922.481049	459.333333
2923.758914	490.333333
2925.039648	444.333333
2926.317101	472.000000
2927.594348	454.666667
2928.869853	440.666667
2930.148226	487.666667
2931.421785	443.000000
2932.698211	472.666667
2933.972896	401.666667
2935.245840	476.666667
2936.520116	423.000000
2937.792652	474.333333
2939.064983	427.666667
2940.334042	446.666667
2941.605966	458.333333
2942.876152	460.666667
2944.146134	452.666667
2945.415913	423.666667
2946.683956	460.000000
2947.950262	441.333333
2949.216367	448.666667
2950.483801	495.333333
2951.749501	440.666667
2953.014998	466.666667
2954.280293	523.333333
2955.542323	411.666667
2956.805683	434.333333
2958.068842	493.666667
2959.330269	457.666667
2960.593025	444.000000
2961.854049	456.000000
2963.113343	435.666667
2964.372437	451.000000
2965.631330	466.000000
2966.890023	449.000000
2968.148516	447.000000
2969.405280	432.000000
2970.661844	437.000000
2971.916681	426.666667
2973.172846	464.666667
2974.425757	424.000000
2975.679997	468.666667
2976.934037	419.666667
2978.186353	439.333333
2979.438469	446.000000
2980.688861	426.666667
2981.942108	448.666667
2983.190578	427.666667
2984.441903	389.000000
2985.689978	461.666667
2986.937857	438.666667
2988.185538	415.666667
2989.433022	407.000000
2990.678785	424.000000
2991.924352	430.333333
2993.171246	430.000000
2994.414896	454.000000
2995.659874	430.000000
2996.901608	453.333333
2998.146194	413.333333
2999.389061	437.000000
3000.628687	382.000000
3001.871163	419.000000
3003.110399	434.666667
3004.350963	445.666667
3005.589810	450.666667
3006.828463	430.666667
3008.065400	461.000000
3009.303665	415.333333
3010.540214	431.000000
3011.776570	405.000000
3013.012732	425.666667
3014.247180	451.000000
3015.481436	412.666667
3016.715498	427.333333
3017.947848	406.666667
3019.178486	425.333333
3020.411970	412.333333
3021.643742	427.333333
3022.873804	435.000000
3024.103673	444.666667
3025.331833	400.000000
3026.561320	415.666667
3027.789097	460.000000
3029.016683	412.333333
3030.245596	440.333333
3031.469766	399.000000
3032.696779	435.000000
3033.920568	421.333333
3035.145684	407.333333
3036.369093	439.333333
3037.592312	427.000000
3038.813826	375.333333
3040.038181	417.666667
3041.257801	404.000000
3042.478747	415.666667
3043.699504	421.666667
3044.918557	374.333333
3046.138935	424.666667
3047.356097	378.333333
3048.574585	407.333333
3049.791370	421.666667
3051.007968	417.000000
3052.224377	409.333333
3053.437574	386.000000
3054.653608	406.666667
3055.866430	390.333333
3057.082089	379.333333
3058.293025	393.000000
3059.505286	420.000000
3060.717361	365.666667
3061.929248	423.666667
3063.139439	413.666667
3064.349443	386.333333
3065.559261	422.666667
3066.767383	400.333333
3067.975320	409.666667
3069.181561	391.666667
3070.389127	448.666667
3071.594998	421.166667
3072.800685	393.666667
3074.006186	409.333333
3075.209994	405.666667
3076.415126	404.333333
3077.618565	394.666667
3078.820313	404.000000
3080.021876	394.333333
3081.223256	391.000000
3082.424452	375.000000
3083.623958	408.000000
3084.823281	394.333333
3086.023927	404.333333
3087.222883	381.000000
3088.418645	401.333333
3089.617236	336.333333
3090.812633	392.666667
3092.009353	381.666667
3093.202881	406.666667
3094.399237	418.666667
3095.593907	347.666667
3096.785385	387.666667
3097.981196	424.000000
3099.172312	368.000000
3100.364752	397.333333
3101.554004	381.333333
3102.746081	375.333333
3103.936475	350.666667
3105.123683	393.666667
3106.312213	362.000000
3107.502066	337.000000
3108.688735	422.333333
3109.875223	344.333333
3111.061533	396.666667
3112.249164	346.000000
3113.433613	367.000000
3114.616383	381.666667
3115.801975	384.666667
3116.985888	387.666667
3118.168122	342.333333
3119.350177	355.000000
3120.532054	380.000000
3121.713753	332.666667
3122.893775	379.666667
3124.072120	376.666667
3125.253285	377.000000
3126.431275	397.666667
3127.609089	362.000000
3128.786725	403.333333
3129.962686	350.666667
3131.138470	376.333333
3132.315576	324.000000
3133.491007	349.000000
3134.664765	365.333333
3135.836850	380.333333
3137.010257	360.333333
3138.183487	373.666667
3139.355046	385.333333
3140.527925	385.000000
3141.697637	355.333333
3142.868670	341.333333
3144.038033	393.333333
3145.205725	390.333333
3146.376233	353.666667
3147.542083	349.000000
3148.712241	354.000000
3149.877743	346.000000
3151.043070	409.000000
3152.208224	372.666667
3153.373205	386.000000
3154.539505	389.000000
3155.701153	362.333333
3156.864120	359.666667
3158.026915	386.666667
3159.189537	365.666667
3160.350494	327.666667
3161.511278	356.333333
3162.671890	350.666667
3163.830838	400.333333
3164.989615	331.666667
3166.148220	304.000000
3167.306652	321.666667
3168.464914	345.333333
3169.621513	341.666667
3170.776451	376.333333
3171.932708	323.666667
3173.087304	369.000000
3174.241730	345.000000
3175.394496	346.333333
3176.547091	328.000000
3177.699517	338.000000
3178.851773	362.666667
3180.003858	341.333333
3181.152798	301.666667
3182.304544	345.000000
3183.454632	351.000000
3184.603064	373.333333
3185.751326	359.333333
3186.899420	374.333333
3188.047345	353.666667
3189.193614	318.666667
3190.339715	376.666667
3191.484162	334.666667
3192.628441	362.666667
3193.772552	395.666667
3194.917980	355.000000
3196.060270	329.333333
3197.202393	353.000000
3198.344348	325.333333
3199.486136	318.000000
3200.627757	368.000000
3201.766243	337.000000
3202.906046	332.333333
3204.047167	333.000000
3205.185153	318.666667
3206.321490	339.000000
3207.457661	339.000000
3208.595149	329.000000
3209.730989	333.000000
3210.868146	283.000000
3212.000690	316.000000
3213.137516	339.000000
3214.269730	305.333333
3215.403261	304.333333
3216.536628	323.666667
3217.666867	328.666667
3218.799904	357.666667
3219.929815	308.333333
3221.061042	324.000000
3222.189145	371.333333
3223.320044	337.000000
3224.449299	319.333333
3225.576911	321.666667
3226.701400	305.000000
3227.830165	321.000000
3228.955808	305.666667
3230.081289	345.666667
3231.205128	334.000000
3232.331761	339.333333
3233.453797	309.666667
3234.577149	308.000000
3235.700339	325.333333
3236.823366	319.000000
3237.944755	326.666667
3239.065981	333.000000
3240.185570	281.000000
3241.304997	335.333333
3242.422786	330.666667
3243.543367	337.333333
3244.660835	297.333333
3245.778142	294.666667
3246.895289	320.333333
3248.010800	300.000000
3249.127625	298.000000
3250.241341	325.000000
3251.357846	323.333333
3252.472717	329.000000
3253.584479	320.666667
3254.696081	304.666667
3255.808999	316.333333
3256.921757	310.333333
3258.031409	303.333333
3259.142376	316.666667
3260.253184	344.000000
3261.362360	316.666667
3262.469906	309.333333
3263.578765	351.666667
3264.687467	283.333333
3265.793066	329.333333
3266.899979	302.333333
3268.005263	323.666667
3269.111861	306.666667
3270.215359	315.333333
3271.320172	324.333333
3272.424827	297.333333
3273.526383	314.666667
3274.627783	367.333333
3275.730497	310.000000
3276.833055	321.666667
3277.932516	328.333333
3279.034761	332.666667
3280.133910	339.333333
3281.231435	337.000000
3282.328804	300.000000
3283.428955	327.666667
3284.526014	322.333333
3285.622917	322.000000
3286.719665	326.666667
3287.811855	315.000000
3288.908293	332.000000
3290.003109	292.000000
3291.097771	312.666667
3292.190811	322.333333
3293.283696	320.666667
3294.374962	311.666667
3295.467539	304.666667
3296.558497	294.000000
3297.647835	254.000000
3298.737020	295.000000
3299.827518	312.000000
3300.914931	282.333333
3302.002191	299.000000
3303.090764	287.333333
3304.179185	291.666667
3305.263058	284.000000
3306.351173	297.333333
3307.436206	265.666667
3308.519624	312.666667
3309.604354	318.666667
3310.687468	315.666667
3311.771895	310.000000
3312.853243	344.000000
3313.935903	280.000000
3315.016949	337.666667
3316.097844	283.666667
3317.177125	313.333333
3318.256256	270.333333
3319.336699	299.666667
3320.414067	316.000000
3321.492747	345.666667
3322.569815	287.000000
3323.646734	298.666667
3324.722041	248.333333
3325.797199	293.333333
3326.873668	324.000000
3327.947067	299.333333
3329.020317	295.666667
3330.094877	270.666667
3331.167829	294.000000
3332.239172	296.000000
3333.311826	323.333333
3334.381414	289.333333
3335.452312	325.333333
3336.521603	332.000000
3337.592205	283.666667
3338.661200	274.333333
3339.728589	309.000000
3340.794373	252.666667
3341.864383	262.666667
3342.931330	288.000000
3343.995215	302.666667
3345.061868	260.666667
3346.126916	286.666667
3347.190361	292.000000
3348.253660	300.666667
3349.316812	271.666667
3350.379818	300.666667
3351.442678	264.333333
3352.503936	309.000000
3353.562137	270.000000
3354.624558	281.333333
3355.683924	315.000000
3356.743144	293.333333
3357.803673	269.333333
3358.859694	275.333333
3359.918478	283.333333
3360.972755	273.666667
3362.029796	291.666667
3363.085238	288.333333
3364.141990	300.333333
3365.197143	285.000000
3366.250699	298.333333
3367.302659	277.333333
3368.357380	262.000000
3369.409052	312.000000
3370.460581	270.000000
3371.513418	310.000000
3372.563208	291.666667
3373.614307	233.333333
3374.662360	295.000000
3375.713172	280.666667
3376.760940	294.000000
3377.808565	273.000000
3378.856047	278.000000
3379.901937	269.333333
3380.949135	264.000000
3381.993291	278.333333
3383.040205	290.666667
3384.085527	249.000000
3385.127808	239.000000
3386.169949	256.333333
3387.213397	274.666667
3388.256704	264.666667
3389.298422	256.000000
3390.339998	265.000000
3391.381433	249.666667
3392.421280	251.000000
3393.459538	259.333333
3394.499104	272.666667
3395.538530	260.333333
3396.576368	282.000000
3397.612619	271.666667
3398.648731	264.333333
3399.686150	268.666667
3400.720536	274.000000
3401.756229	282.666667
3402.791783	260.000000
3403.824306	258.333333
3404.859582	283.000000
3405.891827	273.333333
3406.923934	272.333333
3407.954457	239.333333
3408.986287	286.333333
3410.017979	265.666667
3411.046643	275.000000
3412.075170	277.666667
3413.105003	259.666667
3414.134699	257.666667
3415.161369	269.666667
3416.189346	279.000000
3417.214298	273.666667
3418.242000	278.666667
3419.266679	310.000000
3420.292664	267.000000
3421.317069	269.333333
3422.341338	249.333333
3423.364028	291.000000
3424.386582	284.333333
3425.410442	273.333333
3426.431282	266.333333
3427.451986	271.666667
3428.473997	265.333333
3429.492989	242.666667
3430.511845	259.666667
3431.532008	261.666667
3432.549154	302.000000
