-116.707459	6.000000
-114.037859	2.666667
-111.371194	10.333333
-108.705281	13.000000
-106.042300	37.333333
-103.377890	-3.666667
-100.716410	-11.333333
-98.053501	3.000000
-95.395698	11.333333
-92.736466	40.666667
-90.077982	18.666667
-87.422422	14.333333
-84.765434	2.666667
-82.113544	-9.666667
-79.460224	26.333333
-76.809823	16.000000
-74.157993	43.666667
-71.511254	35.000000
-68.863086	39.000000
-66.215660	26.000000
-63.571148	40.666667
-60.925208	21.000000
-58.284349	-14.666667
-55.642061	20.000000
-53.002682	44.333333
-50.361873	12.333333
-47.721805	53.000000
-45.086809	30.000000
-42.450385	-4.000000
-39.816863	37.000000
-37.181913	26.000000
-34.552028	-4.000000
-31.918551	22.666667
-29.290136	31.666667
-26.662455	13.666667
-24.033345	13.666667
-21.409292	21.000000
-18.781650	38.000000
-16.159061	31.666667
-13.537204	72.666667
-10.916077	58.666667
-8.295680	101.000000
-5.678172	362.666667
-3.059235	1114.000000
-0.443183	2833.000000
2.172140	3554.000000
4.786736	1783.666667
7.398449	247.666667
10.011591	59.333333
12.619699	2.333333
15.231389	28.666667
17.838048	14.666667
20.446135	21.666667
23.053498	3.333333
25.655836	48.666667
28.261752	8.333333
30.862646	-4.000000
33.464968	24.333333
36.062273	65.000000
38.663153	13.666667
41.259018	17.666667
43.856312	27.666667
46.452886	4.333333
49.044451	-19.333333
51.637444	37.000000
54.227576	-2.000000
56.819136	22.333333
59.407836	-4.000000
61.997963	31.333333
64.583091	28.000000
67.169647	48.333333
69.755489	30.000000
72.338477	32.000000
74.922891	-5.333333
77.500177	30.333333
80.081029	0.000000
82.659032	30.333333
85.236325	21.333333
87.815044	33.000000
90.388781	28.333333
92.963946	41.000000
95.536267	9.666667
98.107880	59.000000
100.676653	16.666667
103.246853	39.666667
105.814215	37.666667
108.383002	40.333333
110.948953	34.333333
113.512069	40.000000
116.078741	69.000000
118.636192	95.000000
121.199328	102.333333
123.757504	224.000000
126.319235	400.000000
128.876009	711.000000
131.434210	783.000000
133.987457	741.333333
136.540007	748.000000
139.096107	825.333333
141.647259	1136.333333
144.197714	1371.333333
146.747471	1492.000000
149.294409	1701.333333
151.840652	1672.000000
154.388320	1636.333333
156.935292	1635.000000
159.477329	1541.666667
162.018672	1548.666667
164.559322	1648.000000
167.101398	1662.000000
169.640662	1850.666667
172.177118	1952.000000
174.712882	2103.000000
177.250072	2307.000000
179.786571	2622.666667
182.320264	2965.666667
184.851153	3408.333333
187.381355	4001.666667
189.912981	4755.000000
192.441806	5853.666667
194.967832	7099.333333
197.493172	8621.000000
200.019937	10344.333333
202.543906	12116.000000
205.067190	13350.000000
207.589789	13865.333333
210.109595	13602.666667
212.628718	12361.000000
215.147158	10785.333333
217.667022	9122.333333
220.179885	7552.666667
222.696279	6145.000000
225.211991	5233.666667
227.722813	4450.666667
230.235060	3896.666667
232.744525	3364.333333
235.253311	3006.333333
237.761418	2788.666667
240.270950	2509.666667
242.775601	2357.000000
245.279576	2185.666667
247.784975	2155.333333
250.285499	1992.666667
252.789547	1954.000000
255.286623	1953.000000
257.787223	1964.000000
260.285051	2297.333333
262.782206	2797.666667
265.278688	3320.333333
267.770307	3245.000000
270.265446	2451.666667
272.757818	1665.000000
275.249520	1346.000000
277.738459	1260.333333
280.228822	1191.000000
282.716422	1141.333333
285.201263	1108.000000
287.689619	1126.666667
290.171035	1080.000000
292.655965	1020.000000
295.136050	996.333333
297.619647	978.000000
300.098401	1035.333333
302.578579	971.666667
305.056004	996.000000
307.532766	953.000000
310.008865	948.666667
312.482215	945.333333
314.954903	990.333333
317.426930	947.333333
319.898296	998.666667
322.366917	998.333333
324.834880	1072.333333
327.304264	999.333333
329.768826	997.333333
332.236892	1020.666667
334.700138	1030.333333
337.162726	987.333333
339.624658	1028.000000
342.085933	1041.666667
344.544474	1132.333333
347.004437	1222.666667
349.461667	1540.666667
351.918243	2230.000000
354.374165	3467.666667
356.827357	4114.666667
359.281972	3357.000000
361.731785	2004.333333
364.185094	1430.666667
366.633605	1149.333333
369.081464	1118.333333
371.530746	1088.666667
373.975234	1051.666667
376.421144	1026.666667
378.866404	1032.666667
381.308946	978.666667
383.750840	1030.000000
386.192087	1105.000000
388.630618	1186.000000
391.070571	1478.666667
393.507810	1939.666667
395.942337	1990.666667
398.380352	1829.333333
400.813590	1600.000000
403.248249	1759.333333
405.678136	1671.000000
408.111508	1398.666667
410.540110	1244.000000
412.968070	1176.666667
415.397452	1140.000000
417.822068	1201.000000
420.248106	1209.000000
422.673503	1180.333333
425.098260	1262.666667
427.518259	1358.000000
429.939679	1387.000000
432.358402	1437.000000
434.778546	1480.333333
437.195995	1629.000000
439.614864	1791.666667
442.031040	1981.000000
444.442468	2368.666667
446.857374	2738.333333
449.269589	3461.333333
451.681170	4630.333333
454.092117	6490.333333
456.500378	9781.000000
458.908006	16287.666667
461.315002	27851.666667
463.721367	41420.000000
466.125049	48851.333333
468.528101	42696.000000
470.930523	27933.333333
473.332315	16774.333333
475.731430	10896.000000
478.131964	7797.000000
480.531869	6035.333333
482.927051	4846.000000
485.325700	4222.666667
487.719629	3643.000000
490.112932	3229.666667
492.505609	3010.000000
494.897661	2671.000000
497.291131	2473.000000
499.679889	2406.333333
502.065981	2236.333333
504.453493	2300.666667
506.840382	2516.666667
509.224607	2856.666667
511.610250	2878.000000
513.993232	2375.000000
516.373553	1905.000000
518.755293	1698.666667
521.134374	1583.000000
523.514874	1563.000000
525.892716	1483.666667
528.267903	1491.666667
530.642472	1416.333333
533.018459	1438.666667
535.391794	1307.333333
537.766546	1353.333333
540.136613	1369.000000
542.506064	1365.333333
544.876933	1315.333333
547.243122	1261.000000
549.610729	1222.000000
551.975690	1252.666667
554.340038	1204.666667
556.703773	1258.000000
559.068926	1131.666667
561.429407	1202.666667
563.791306	1198.666667
566.150564	1147.333333
568.507185	1124.333333
570.867250	1119.000000
573.220624	1112.666667
575.577443	1130.333333
577.931627	1086.333333
580.285202	1083.000000
582.638170	1079.333333
584.988505	1107.333333
587.340258	1115.666667
589.685334	1095.333333
592.035874	1089.000000
594.379740	1109.000000
596.729068	1075.333333
599.073747	1079.666667
601.415802	1080.666667
603.759274	1124.333333
606.100123	1049.000000
608.440370	1087.666667
610.777996	1100.333333
613.119057	1023.000000
615.455480	1033.333333
617.793320	1091.333333
620.128543	1035.000000
622.461150	1051.333333
624.795173	1013.333333
627.126582	1071.000000
629.457393	1045.333333
631.787607	1034.000000
634.117222	962.333333
636.442214	1029.333333
638.772648	1016.000000
641.098461	1057.666667
643.421666	1059.000000
645.746288	1045.666667
648.068304	1042.666667
650.389726	1028.333333
652.708546	1005.000000
655.028781	1056.000000
657.348423	1018.000000
659.665464	988.000000
661.981913	978.000000
664.295764	1013.000000
666.611031	945.000000
668.923701	964.000000
671.237786	937.333333
673.547271	1035.000000
675.858172	1016.666667
678.166480	1042.333333
680.474200	1018.000000
682.783334	1054.333333
685.087876	1021.333333
687.391832	1045.666667
689.695202	1136.666667
691.999986	1185.666667
694.300184	1290.333333
696.601796	1384.000000
698.902823	1341.000000
701.199269	1278.333333
703.497130	1128.666667
705.794407	1101.666667
708.091101	1026.333333
710.383219	1026.666667
712.678748	1012.666667
714.969703	1040.000000
717.262073	996.333333
719.551868	1011.666667
721.841082	1020.333333
724.129717	1032.333333
726.415779	981.333333
728.703256	945.333333
730.988161	961.666667
733.272489	1051.333333
735.554248	1019.666667
737.837421	954.666667
740.120017	981.000000
742.398057	989.333333
744.677512	980.666667
746.956390	990.333333
749.234694	1040.000000
751.508448	1052.333333
753.783615	1038.000000
756.058209	1048.333333
758.330244	1048.666667
760.603692	1003.000000
762.874582	1007.666667
765.142916	1021.333333
767.412663	935.000000
769.679856	1058.666667
771.946478	1001.000000
774.212530	1077.000000
776.476031	1016.333333
778.740945	1082.000000
781.005289	1076.666667
783.265104	1111.666667
785.526331	1073.000000
787.786991	1090.000000
790.045105	1108.333333
792.300674	1140.666667
794.559634	1180.000000
796.812095	1251.666667
799.069922	1320.000000
801.323231	1466.666667
803.574000	1576.333333
805.826181	1885.333333
808.075823	2233.666667
810.326878	2520.000000
812.573421	2158.000000
814.821376	1815.666667
817.066797	1524.000000
819.313629	1297.333333
821.559900	1235.000000
823.801666	1197.666667
826.046816	1149.000000
828.285493	1172.666667
830.527552	1112.333333
832.765113	1130.333333
835.004086	1143.000000
837.240532	1151.666667
839.478389	1134.666667
841.713721	1139.333333
843.946530	1148.000000
846.180750	1104.333333
848.412447	1112.000000
850.643590	1118.333333
852.874178	1100.000000
855.104212	1088.333333
857.333692	1139.666667
859.558690	1112.000000
861.787063	1110.000000
864.010956	1111.000000
866.236261	1026.000000
868.457090	1050.333333
870.681291	1063.333333
872.901019	1080.000000
875.122157	1025.000000
877.342745	1095.333333
879.560824	1054.666667
881.780312	1044.333333
883.995334	1058.333333
886.209808	1109.666667
888.423735	1071.666667
890.637115	1119.333333
892.849947	1125.000000
895.062233	1135.333333
897.272016	1079.333333
899.481254	1038.666667
901.689947	1041.000000
903.896141	1089.333333
906.103744	1092.666667
908.308849	1106.333333
910.513411	1066.333333
912.715478	1060.333333
914.918954	1050.000000
917.119936	1070.666667
919.320376	1099.000000
921.522225	1127.666667
923.717683	1079.333333
925.916500	1115.666667
928.110878	1065.333333
930.308614	1073.000000
932.501914	1037.666667
934.696623	1014.666667
936.888846	1058.000000
939.080530	1060.666667
941.271677	1014.666667
943.460341	1052.000000
945.648469	1010.000000
947.834116	1092.666667
950.023115	1001.666667
952.207691	1064.333333
954.391732	1065.333333
956.579123	1026.333333
958.758210	1041.666667
960.940648	1054.666667
963.122552	1008.333333
965.301981	1064.666667
967.478938	1024.666667
969.657303	1056.000000
971.837075	1042.666667
974.010498	1043.666667
976.187267	1039.666667
978.359629	1053.333333
980.533399	1034.666667
982.702765	960.333333
984.875475	1024.333333
987.045720	1096.666667
989.215436	1012.000000
991.384623	1053.000000
993.549413	1070.000000
995.717544	1043.000000
997.881281	1021.000000
1000.046424	1050.000000
1002.209108	1050.000000
1004.371267	1074.333333
1006.530969	1025.333333
1008.690146	1063.000000
1010.850730	1010.666667
1013.008859	1025.333333
1015.166465	1059.333333
1017.323547	1038.000000
1019.480105	992.000000
1021.632284	1041.333333
1023.785870	1019.666667
1025.938934	1047.000000
1028.089549	1043.000000
1030.241571	1027.666667
1032.389219	992.333333
1034.540199	1050.333333
1036.686808	1031.666667
1038.832898	1011.000000
1040.978470	1096.000000
1043.125447	1088.666667
1045.266135	1084.000000
1047.410153	1029.000000
1049.551730	1045.666667
1051.692791	1097.000000
1053.835256	1044.000000
1055.971442	1100.666667
1058.110953	1069.000000
1060.246110	1091.000000
1062.384591	1135.000000
1064.518718	1150.333333
1066.652332	1196.000000
1068.787351	1168.333333
1070.918020	1163.000000
1073.050094	1208.000000
1075.179739	1246.333333
1077.308872	1423.666667
1079.437493	1548.666667
1081.565603	1817.000000
1083.691287	1846.000000
1085.816461	1661.000000
1087.943039	1465.666667
1090.065279	1184.000000
1092.188924	1209.000000
1094.308234	1159.333333
1096.432774	1067.000000
1098.551068	1126.000000
1100.670767	1089.666667
1102.788047	1082.000000
1104.904821	1081.333333
1107.021088	1094.666667
1109.134939	1073.666667
1111.250195	1040.333333
1113.361127	1072.333333
1115.475372	1054.333333
1117.585296	1042.666667
1119.696624	1077.000000
1121.807447	1072.666667
1123.913954	1080.333333
1126.023771	1062.666667
1128.129273	1072.333333
1130.236178	1067.000000
1132.336868	1058.000000
1134.442770	1046.000000
1136.544363	1050.333333
1138.647359	1052.000000
1140.749854	1097.333333
1142.846142	1101.000000
1144.947637	1120.000000
1147.044830	1101.666667
1149.141525	1126.000000
1151.237721	1205.333333
1153.333420	1278.000000
1155.428620	1363.000000
1157.521424	1584.000000
1159.615631	1799.666667
1161.703646	1878.333333
1163.796859	1749.000000
1165.883884	1534.333333
1167.974208	1341.666667
1170.060244	1245.333333
1172.149579	1169.666667
1174.232732	1116.000000
1176.317287	1108.666667
1178.403244	1053.000000
1180.484919	1040.333333
1182.567996	1072.333333
1184.648687	1025.333333
1186.728886	1063.666667
1188.808594	1025.333333
1190.887811	1024.333333
1192.964646	1046.333333
1195.039100	1028.000000
1197.116845	1034.000000
1199.190321	1114.000000
1201.265197	1041.666667
1203.335806	1020.333333
1205.407816	1020.333333
1207.477451	1057.000000
1209.548486	1019.000000
1211.619033	1043.000000
1213.685319	1064.666667
1215.753006	1056.000000
1217.818321	1050.666667
1219.885036	1090.666667
1221.947495	980.000000
1224.013239	1088.333333
1226.074729	1109.000000
1228.137620	1176.000000
1230.198143	1077.000000
1232.258182	1130.333333
1234.317739	1123.000000
1236.374930	1130.666667
1238.431640	1079.333333
1240.485986	1089.666667
1242.543614	1121.666667
1244.598879	1100.666667
1246.649903	1034.333333
1248.702327	1030.000000
1250.754271	989.000000
1252.803857	1041.666667
1254.852964	1060.000000
1256.901593	1015.000000
1258.949743	997.666667
1260.997414	1012.000000
1263.040855	1040.333333
1265.087572	1025.666667
1267.131935	1026.000000
1269.175822	1018.666667
1271.217357	1060.333333
1273.256543	1014.333333
1275.299002	986.000000
1277.337238	1045.666667
1279.376873	1036.333333
1281.416033	1043.333333
1283.450974	1007.000000
1285.487314	1039.666667
1287.521310	985.000000
1289.556703	1057.000000
1291.587884	990.666667
1293.620462	1051.333333
1295.652569	978.333333
1297.682335	1001.000000
1299.713498	1004.666667
1301.740455	983.000000
1303.768809	982.666667
1305.792958	1035.666667
1307.820373	1002.666667
1309.843585	1004.333333
1311.868195	1016.000000
1313.890471	1058.666667
1315.914144	1002.000000
1317.935484	1014.666667
1319.956356	956.666667
1321.976761	959.666667
1323.992973	967.333333
1326.010582	983.000000
1328.025863	988.666667
1330.044403	989.000000
1332.058754	969.000000
1334.070779	967.666667
1336.086061	1003.666667
1338.097158	973.333333
1340.109652	983.333333
1342.117963	984.000000
1344.129529	1004.666667
1346.135057	995.666667
1348.143840	961.666667
1350.148445	1000.000000
1352.156304	987.000000
1354.163701	982.666667
1356.165067	975.000000
1358.167829	993.000000
1360.170132	968.333333
1362.171975	1005.000000
1364.173358	921.333333
1366.172428	1038.666667
1368.171039	948.000000
1370.169192	948.000000
1372.166886	959.000000
1374.160418	949.333333
1376.155345	953.333333
1378.149816	989.333333
1380.143830	920.666667
1382.135537	978.000000
1384.126789	1004.333333
1386.115735	943.333333
1388.106076	981.333333
1390.095962	944.000000
1392.083544	954.333333
1394.070673	947.666667
1396.055500	954.666667
1398.041722	982.666667
1400.025644	977.000000
1402.009113	987.000000
1403.992129	933.000000
1405.972848	1011.000000
1407.954961	953.000000
1409.934778	992.000000
1411.914143	983.000000
1413.889370	937.000000
1415.867835	978.333333
1417.844007	945.000000
1419.819730	967.333333
1421.795003	954.000000
1423.767985	951.333333
1425.740519	999.666667
1427.712605	981.666667
1429.684244	978.333333
1431.651754	955.333333
1433.624338	942.666667
1435.589116	959.666667
1437.558967	951.333333
1439.524694	904.000000
1441.491813	974.000000
1443.456649	945.333333
1445.417365	973.333333
1447.383149	958.333333
1449.342978	979.000000
1451.304201	972.000000
1453.266816	936.666667
1455.225316	939.333333
1457.183373	956.333333
1459.140989	1008.333333
1461.098162	970.333333
1463.053060	968.333333
1465.009351	960.666667
1466.963367	950.333333
1468.916942	1010.666667
1470.868245	938.333333
1472.820941	990.666667
1474.771364	999.666667
1476.721349	956.666667
1478.670895	993.333333
1480.618172	969.666667
1482.563181	950.000000
1484.509583	936.000000
1486.455547	939.333333
1488.401074	973.666667
1490.344335	973.666667
1492.287161	895.333333
1494.227723	980.000000
1496.169676	1028.666667
1498.109367	947.000000
1500.048624	1010.666667
1501.987445	932.333333
1503.924007	924.666667
1505.861960	971.333333
1507.797654	966.000000
1509.732915	936.000000
1511.665920	972.000000
1513.598492	975.666667
1515.530632	936.666667
1517.462340	920.333333
1519.391794	980.666667
1521.322639	946.666667
1523.253052	955.000000
1525.179393	952.666667
1527.107125	953.000000
1529.032606	950.333333
1530.957658	928.666667
1532.882281	921.000000
1534.806475	962.333333
1536.728421	944.333333
1538.651758	932.666667
1540.572848	983.000000
1542.491694	951.000000
1544.411930	959.000000
1546.329923	952.666667
1548.247489	938.000000
1550.162813	956.666667
1552.079527	945.333333
1553.992186	964.333333
1555.908049	938.333333
1557.821672	947.666667
1559.733057	950.333333
1561.645832	990.666667
1563.554557	970.666667
1565.464671	943.000000
1567.374362	940.666667
1569.283630	944.666667
1571.190664	936.666667
1573.095465	934.333333
1575.001655	929.333333
1576.905613	958.333333
1578.809150	935.000000
1580.712267	954.666667
1582.613154	979.333333
1584.515430	992.333333
1586.415478	964.333333
1588.316913	948.666667
1590.214315	923.000000
1592.111298	923.333333
1594.007863	956.666667
1595.905816	944.666667
1597.797934	922.333333
1599.693245	984.666667
1601.588139	978.666667
1603.480811	983.333333
1605.373066	983.000000
1607.263102	982.333333
1609.152722	976.666667
1611.041927	953.000000
1612.930717	961.000000
1614.817289	965.333333
1616.705249	954.000000
1618.589192	966.000000
1620.474522	917.333333
1622.359439	964.333333
1624.242142	927.000000
1626.126232	936.333333
1628.006310	953.000000
1629.887776	953.666667
1631.767031	971.333333
1633.647672	948.000000
1635.522509	896.000000
1637.402327	955.333333
1639.278141	919.666667
1641.153544	984.333333
1643.030333	905.333333
1644.901326	968.000000
1646.775500	965.000000
1648.645675	944.666667
1650.519032	925.333333
1652.390184	973.666667
1654.259136	940.666667
1656.129472	936.333333
1657.995816	938.333333
1659.863545	924.000000
1661.729075	856.000000
1663.595991	886.666667
1665.458918	908.333333
1667.323230	987.333333
1669.185346	950.000000
1671.047057	934.333333
1672.910154	915.666667
1674.771055	908.000000
1676.629764	903.666667
1678.488069	942.333333
1680.347759	930.333333
1682.201681	925.333333
1684.058777	905.333333
1685.915470	886.666667
1687.768186	871.333333
1689.624074	913.000000
1691.475988	880.000000
1693.327501	902.333333
1695.178613	864.666667
1697.029325	929.333333
1698.879635	890.000000
1700.727762	882.333333
1702.577273	870.333333
1704.421035	875.333333
1706.269746	888.333333
1708.112711	865.666667
1709.958843	861.333333
1711.801012	862.333333
1713.646347	889.666667
1715.485941	873.666667
1717.326919	849.333333
1719.169280	867.000000
1721.007685	842.333333
1722.847473	909.333333
1724.685086	890.333333
1726.522303	886.000000
1728.357347	876.000000
1730.193774	915.333333
1732.028029	894.000000
1733.861889	843.333333
1735.695355	843.666667
1737.524876	868.333333
1739.357555	817.000000
1741.186290	886.000000
1743.018182	839.000000
1744.846132	868.333333
1746.673691	860.000000
1748.500857	894.333333
1750.327632	828.666667
1752.154015	849.666667
1753.976462	863.333333
1755.802064	808.666667
1757.623731	845.666667
1759.446780	900.333333
1761.267667	816.666667
1763.088166	875.000000
1764.910045	834.000000
1766.726226	830.000000
1768.545558	872.666667
1770.360963	862.000000
1772.179518	826.000000
1773.994148	833.666667
1775.808391	865.666667
1777.622248	902.000000
1779.435718	877.000000
1781.247035	862.000000
1783.059732	824.666667
1784.872044	900.333333
1786.680438	833.333333
1788.490212	837.666667
1790.296072	887.000000
1792.105077	847.333333
1793.910169	847.000000
1795.716642	849.000000
1797.522731	849.333333
1799.324909	832.000000
1801.130232	797.333333
1802.931646	849.000000
1804.734440	893.666667
1806.533328	818.333333
1808.333597	833.666667
1810.133484	890.333333
1811.931229	859.333333
1813.728594	898.666667
1815.525579	832.333333
1817.322183	869.000000
1819.116648	773.333333
1820.912492	841.333333
1822.702681	816.000000
1824.497767	835.000000
1826.287201	826.666667
1828.079771	849.333333
1829.870206	842.666667
1831.658507	840.333333
1833.449943	831.333333
1835.235733	814.333333
1837.022903	809.333333
1838.807941	850.666667
1840.596113	815.000000
1842.380399	830.666667
1844.162555	843.666667
1845.946091	820.000000
1847.727498	786.000000
1849.510284	794.333333
1851.289189	821.000000
1853.069474	811.333333
1854.847632	798.000000
1856.627169	814.666667
1858.404581	808.666667
1860.179869	830.000000
1861.956535	804.333333
1863.731079	794.666667
1865.507001	759.333333
1867.277302	817.000000
1869.050731	807.000000
1870.822040	846.666667
1872.592978	816.000000
1874.365294	838.666667
1876.131996	845.000000
1877.901824	857.666667
1879.667788	802.000000
1881.436875	848.333333
1883.202101	821.666667
1884.966959	803.333333
1886.733194	806.666667
1888.495570	811.000000
1890.257579	788.333333
1892.019220	795.666667
1893.780495	798.333333
1895.541402	800.666667
1897.301943	788.666667
1899.060374	811.000000
1900.818439	799.666667
1902.574397	788.333333
1904.331731	781.333333
1906.088700	847.000000
1907.843562	791.000000
1909.596320	820.333333
1911.348713	845.666667
1913.102483	811.333333
1914.854149	765.000000
1916.603713	800.666667
1918.354652	747.333333
1920.105229	773.666667
1921.851966	792.666667
1923.600080	852.333333
1925.346094	798.333333
1927.093483	781.666667
1928.838775	799.666667
1930.581969	792.666667
1932.326538	756.666667
1934.069012	792.000000
1935.811125	764.333333
1937.552878	821.666667
1939.294271	762.333333
1941.033571	821.333333
1942.772512	761.666667
1944.511094	826.333333
1946.247585	779.333333
1947.983718	794.666667
1949.721225	810.000000
1951.454910	803.333333
1953.189970	772.666667
1954.922941	798.000000
1956.655556	778.666667
1958.387815	803.666667
1960.119717	766.000000
1961.849533	819.333333
1963.577264	796.000000
1965.306370	766.000000
1967.035121	789.333333
1968.761788	803.333333
1970.488101	784.333333
1972.215787	828.666667
1973.937937	787.000000
1975.663188	825.333333
1977.384632	797.000000
1979.109177	743.333333
1980.831641	793.333333
1982.550303	772.333333
1984.272063	770.666667
1985.990021	812.000000
1987.709352	778.333333
1989.424884	831.000000
1991.145236	791.333333
1992.861790	827.000000
1994.574547	824.000000
1996.290400	806.666667
1998.004181	776.000000
1999.717612	799.000000
2001.428972	774.333333
2003.141704	843.000000
2004.850646	783.333333
2006.562680	849.666667
2008.269206	795.000000
2009.978823	802.333333
2011.686374	797.000000
2013.393576	774.666667
2015.098713	782.333333
2016.803504	806.666667
2018.509666	775.333333
2020.212046	809.666667
2021.915797	792.666667
2023.617486	769.666667
2025.318830	789.333333
2027.019828	792.666667
2028.718765	730.666667
2030.419074	781.666667
2032.115608	805.666667
2033.813513	780.333333
2035.509359	745.000000
2037.208291	786.000000
2038.901737	777.000000
2040.596554	777.333333
2042.291029	798.333333
2043.981735	786.333333
2045.675525	789.333333
2047.365548	800.666667
2049.056942	795.333333
2050.746283	769.333333
2052.436994	806.666667
2054.123942	789.333333
2055.810551	786.000000
2057.498529	723.000000
2059.182748	765.333333
2060.868338	808.000000
2062.553588	799.666667
2064.236789	760.333333
2065.921361	757.000000
2067.600470	764.666667
2069.284364	779.000000
2070.962797	744.000000
2072.644308	749.333333
2074.322067	728.000000
2075.999490	746.666667
2077.678282	763.333333
2079.355032	739.000000
2081.029740	757.000000
2082.705817	732.000000
2084.379853	754.000000
2086.053555	728.333333
2087.726921	739.000000
2089.398248	747.333333
2091.069241	731.000000
2092.739900	736.666667
2094.410225	790.666667
2096.080216	759.333333
2097.748171	715.000000
2099.415793	739.333333
2101.081380	737.333333
2102.748336	732.333333
2104.413259	735.333333
2106.077850	727.333333
2107.740409	767.333333
2109.404336	752.000000
2111.066232	772.666667
2112.727798	753.333333
2114.389032	813.000000
2116.048238	764.333333
2117.707113	743.333333
2119.365659	742.000000
2121.023874	754.000000
2122.678367	720.000000
2124.335924	760.666667
2125.993152	764.666667
2127.646658	727.666667
2129.301532	717.000000
2130.952687	746.333333
2132.606905	734.333333
2134.257406	746.000000
2135.909273	714.000000
2137.555732	774.333333
2139.206946	758.666667
2140.854446	763.000000
2142.503313	755.333333
2144.150161	752.666667
2145.796684	780.000000
2147.442881	753.666667
2149.085370	758.666667
2150.730917	764.000000
2152.372757	758.333333
2154.017654	749.000000
2155.658845	750.333333
2157.299714	772.666667
2158.940258	681.333333
2160.578790	725.000000
2162.218688	737.333333
2163.854886	720.000000
2165.492450	697.666667
2167.129692	742.666667
2168.764924	732.666667
2170.399835	755.333333
2172.034423	683.000000
2173.668691	709.000000
2175.299265	666.000000
2176.932891	694.666667
2178.562825	697.000000
2180.194124	709.000000
2181.823418	699.000000
2183.452393	714.000000
2185.081048	690.000000
2186.709384	743.000000
2188.335718	666.666667
2189.961733	752.666667
2191.585746	687.000000
2193.211125	690.000000
2194.834503	719.666667
2196.459246	691.000000
2198.080308	690.666667
2199.701053	768.333333
2201.323163	710.666667
2202.943275	721.666667
2204.561390	688.000000
2206.179190	746.666667
2207.796675	677.000000
2209.413844	707.333333
2211.030698	706.666667
2212.647236	700.000000
2214.261782	672.000000
2215.874335	708.666667
2217.488252	685.666667
2219.100178	746.000000
2220.713467	685.000000
2222.324766	713.666667
2223.934075	700.000000
2225.544748	651.000000
2227.153432	673.333333
2228.761803	718.333333
2230.368188	656.333333
2231.975936	678.333333
2233.581697	656.666667
2235.187147	642.333333
2236.790612	698.333333
2238.395440	686.000000
2239.998284	733.666667
2241.599145	657.000000
2243.201369	706.666667
2244.801611	666.333333
2246.403215	697.333333
2248.001166	667.333333
2249.600480	650.000000
2251.197814	671.666667
2252.794840	683.000000
2254.393228	695.666667
2255.987967	678.333333
2257.580729	703.666667
2259.174854	652.666667
2260.770340	683.666667
2262.362181	668.333333
2263.953716	658.666667
2265.546613	672.666667
2267.134200	686.666667
2268.726483	638.333333
2270.313460	632.333333
2271.903464	685.333333
2273.488164	691.666667
2275.077558	655.333333
2276.661650	663.666667
2278.247102	666.000000
2279.830586	697.000000
2281.417095	627.000000
2282.999971	647.666667
2284.582544	659.000000
2286.164813	662.000000
2287.743452	677.666667
2289.325116	653.333333
2290.903151	610.666667
2292.484209	676.333333
2294.061640	661.666667
2295.637108	647.000000
2297.215598	642.000000
2298.790464	677.000000
2300.365029	659.000000
2301.939294	687.333333
2303.513258	647.666667
2305.086921	674.666667
2306.660285	640.000000
2308.230030	649.666667
2309.799476	634.333333
2311.371940	678.000000
2312.939130	608.333333
2314.509338	614.000000
2316.075931	605.333333
2317.643884	627.333333
2319.209881	613.333333
2320.775581	643.333333
2322.340983	648.000000
2323.904432	646.000000
2325.469240	654.666667
2327.030440	655.000000
2328.594654	635.666667
2330.153606	641.333333
2331.715573	647.000000
2333.275588	655.000000
2334.835309	604.000000
2336.393080	663.666667
2337.950556	610.000000
2339.507738	599.333333
2341.062972	644.666667
2342.617913	655.000000
2344.172559	607.666667
2345.726912	663.000000
2347.280972	638.000000
2348.834737	630.666667
2350.386558	570.666667
2351.936437	652.000000
2353.489323	634.666667
2355.036966	676.333333
2356.587618	632.666667
2358.134678	637.666667
2359.683096	634.666667
2361.231223	620.000000
2362.775761	641.000000
2364.321657	621.000000
2365.865615	627.333333
2367.410930	633.666667
2368.952660	675.333333
2370.495747	643.000000
2372.036898	633.000000
2373.577760	648.333333
2375.118333	623.666667
2376.658617	579.333333
2378.198612	598.333333
2379.735029	612.666667
2381.274447	604.333333
2382.810287	676.000000
2384.347485	640.333333
2385.881107	591.000000
2387.417729	615.333333
2388.952421	610.000000
2390.485183	638.000000
2392.017658	630.666667
2393.548205	640.333333
2395.081750	647.666667
2396.610084	586.000000
2398.139774	604.000000
2399.669179	605.333333
2401.198299	645.666667
2402.727134	636.333333
2404.250763	618.666667
2405.779028	598.000000
2407.302091	611.333333
2408.829787	598.666667
2410.350644	638.666667
2411.876134	586.666667
2413.398063	632.000000
2414.921348	617.666667
2416.442711	663.333333
2417.962155	618.333333
2419.482954	610.333333
2421.001835	644.666667
2422.520433	627.333333
2424.037114	580.333333
2425.555149	573.000000
2427.072903	615.000000
2428.587106	604.666667
2430.101028	602.666667
2431.614670	636.666667
2433.129667	614.333333
2434.641115	642.666667
2436.153918	593.000000
2437.664807	631.000000
2439.175418	630.333333
2440.684117	586.666667
2442.195802	609.333333
2443.703944	655.666667
2445.211808	619.333333
2446.719394	637.666667
2448.223439	577.000000
2449.730469	596.333333
2451.235591	601.666667
2452.740436	595.666667
2454.243374	598.000000
2455.746036	618.000000
2457.248421	556.000000
2458.748901	576.666667
2460.250734	598.333333
2461.750662	566.000000
2463.250315	594.333333
2464.749693	644.666667
2466.247168	571.666667
2467.742741	585.000000
2469.241294	567.666667
2470.736319	632.333333
2472.232696	555.666667
2473.725547	592.666667
2475.219751	566.333333
2476.713681	637.000000
2478.204087	530.000000
2479.697471	546.666667
2481.188957	550.000000
2482.678546	586.666667
2484.167863	566.666667
2485.655284	588.333333
2487.145681	538.333333
2488.632560	568.666667
2490.120790	499.000000
2491.605503	598.333333
2493.089947	531.000000
2494.575741	532.333333
2496.059644	583.666667
2497.544897	600.666667
2499.025017	576.333333
2500.508110	598.333333
2501.989312	583.000000
2503.470245	587.666667
2504.949289	569.333333
2506.428064	610.000000
2507.906571	544.000000
2509.384810	582.333333
2510.862780	552.000000
2512.337245	572.000000
2513.814680	587.666667
2515.288611	577.666667
2516.763892	555.333333
2518.238906	563.333333
2519.710419	571.666667
2521.183283	589.666667
2522.654264	596.000000
2524.126595	569.666667
2525.593812	555.666667
2527.063996	588.333333
2528.532299	523.333333
2530.000337	608.666667
2531.468110	588.000000
2532.935618	547.000000
2534.402861	572.333333
2535.866612	579.666667
2537.331713	549.000000
2538.794937	560.000000
2540.259510	567.000000
2541.720595	565.333333
2543.183029	532.666667
2544.645200	602.333333
2546.103885	593.333333
2547.567141	560.000000
2549.025302	584.666667
2550.484811	558.000000
2551.939226	584.000000
2553.398212	586.000000
2554.855326	522.000000
2556.310569	588.333333
2557.765550	567.333333
2559.218663	594.000000
2560.673124	546.333333
2562.125715	538.000000
2563.578047	565.000000
2565.028512	555.333333
2566.481932	553.666667
2567.930270	578.666667
2569.381563	542.000000
2570.830991	612.000000
2572.276946	518.666667
2573.725856	530.000000
2575.171296	533.333333
2576.618083	541.666667
2578.063008	539.333333
2579.507674	542.333333
2580.953688	552.333333
2582.396236	537.666667
2583.840131	560.000000
2585.280561	526.333333
2586.722338	537.333333
2588.162256	533.333333
2589.603521	582.666667
2591.041324	555.666667
2592.482077	530.666667
2593.917768	560.333333
2595.356408	532.333333
2596.793190	548.000000
2598.228117	573.000000
2599.665991	540.000000
2601.098808	566.666667
2602.532972	571.333333
2603.965282	500.666667
2605.398938	554.333333
2606.830741	530.666667
2608.262290	551.333333
2609.693587	542.000000
2611.123031	546.000000
2612.552223	476.000000
2613.979565	534.000000
2615.408252	507.666667
2616.836688	537.666667
2618.261676	539.000000
2619.688011	523.000000
2621.112497	529.000000
2622.538329	567.333333
2623.960717	517.333333
2625.384451	512.666667
2626.806338	531.333333
2628.227976	500.333333
2629.647768	526.000000
2631.068906	524.666667
2632.489794	520.000000
2633.907244	538.000000
2635.327633	552.666667
2636.744585	518.000000
2638.161288	500.666667
2639.577743	539.000000
2640.993950	501.666667
2642.409909	485.000000
2643.824027	542.000000
2645.237897	499.000000
2646.649929	511.666667
2648.063304	506.666667
2649.473250	565.000000
2650.886132	534.333333
2652.295585	534.666667
2653.704792	557.333333
2655.112163	539.666667
2656.522468	526.666667
2657.930938	520.666667
2659.337572	517.333333
2660.743961	492.000000
2662.148516	519.000000
2663.554415	504.333333
2664.958481	520.333333
2666.362302	487.333333
2667.765879	515.666667
2669.167625	540.666667
2670.570714	498.666667
2671.970385	502.333333
2673.371400	538.666667
2674.768999	492.333333
2676.169527	538.333333
2677.566641	490.000000
2678.965098	559.666667
2680.361728	480.000000
2681.758115	505.000000
2683.154260	500.000000
2684.548579	522.666667
2685.944241	515.333333
2687.336494	505.666667
2688.730089	510.666667
2690.121860	504.000000
2691.514974	508.000000
2692.906264	466.666667
2694.295731	519.000000
2695.684958	503.333333
2697.073946	513.000000
2698.464275	537.666667
2699.849621	516.333333
2701.237890	513.666667
2702.624339	482.000000
2704.010549	522.333333
2705.396520	504.333333
2706.779093	491.666667
2708.163008	508.666667
2709.546685	492.333333
2710.930123	473.666667
2712.310167	494.000000
2713.691551	487.000000
2715.071121	471.666667
2716.452031	485.666667
2717.831127	507.333333
2719.208409	471.333333
2720.587032	499.000000
2721.963842	473.666667
2723.340415	485.000000
2724.716753	466.333333
2726.091280	517.000000
2727.467147	483.000000
2728.839627	527.666667
2730.215023	477.666667
2731.585459	501.000000
2732.957236	500.333333
2734.328778	525.000000
2735.698512	442.666667
2737.069587	483.333333
2738.438853	459.666667
2739.807886	492.333333
2741.175113	508.000000
2742.542106	505.666667
2743.908867	479.333333
2745.275396	526.333333
2746.640119	488.333333
2748.004610	499.333333
2749.368870	494.333333
2750.732897	492.333333
2752.096693	488.333333
2753.457115	465.333333
2754.820447	460.000000
2756.178837	465.000000
2757.540137	496.666667
2758.898067	472.333333
2760.258905	462.000000
2761.617944	477.666667
2762.973614	451.333333
2764.332192	463.000000
2765.687403	435.666667
2767.042385	500.666667
2768.395571	470.000000
2769.751662	480.000000
2771.104390	438.000000
2772.456890	466.333333
2773.809161	485.000000
2775.162770	483.333333
2776.513019	448.000000
2777.861473	483.000000
2779.212833	444.000000
2780.560833	455.000000
2781.910171	437.666667
2783.257717	479.333333
2784.605037	435.000000
2785.952130	438.333333
2787.297432	472.666667
2788.642507	478.666667
2789.987357	397.666667
2791.331981	455.333333
2792.673253	445.666667
2794.015863	480.666667
2795.358247	445.333333
2796.700406	477.000000
2798.039216	390.333333
2799.380926	481.333333
2800.719288	386.000000
2802.058986	426.666667
2803.396900	419.000000
2804.733029	432.333333
2806.068934	498.333333
2807.406177	463.000000
2808.741636	403.333333
2810.076872	444.000000
2811.410325	428.000000
2812.745115	489.666667
2814.076565	430.666667
2815.410910	415.666667
2816.740357	472.000000
2818.071141	438.666667
2819.401703	448.666667
2820.730486	470.333333
2822.060605	453.000000
2823.388946	440.666667
2824.717066	438.666667
2826.043408	461.666667
2827.371087	442.333333
2828.695432	422.333333
2830.021114	389.000000
2831.345020	418.000000
2832.668707	439.666667
2833.993729	454.000000
2835.315421	429.000000
2836.636895	429.666667
2837.958150	439.666667
2839.279186	463.333333
2840.598449	443.000000
2841.919048	432.666667
2843.237876	432.000000
2844.556485	479.333333
2845.873323	425.666667
2847.189944	447.000000
2848.506348	413.000000
2849.820982	452.666667
2851.136952	412.333333
2852.449601	454.333333
2853.763585	429.666667
2855.077353	433.666667
2856.390904	421.000000
2857.702689	459.333333
2859.012707	394.000000
2860.324060	451.333333
2861.632098	445.333333
2862.941470	449.333333
2864.250628	431.000000
2865.559570	448.333333
2866.866748	439.666667
2868.172164	424.666667
2869.478913	425.333333
2870.783901	446.000000
2872.088675	407.333333
2873.391687	462.666667
2874.697580	419.666667
2875.998619	442.000000
2877.300992	417.666667
2878.601605	427.333333
2879.903552	430.000000
2881.205285	435.666667
2882.503715	405.000000
2883.803478	467.666667
2885.101484	418.666667
2886.399278	448.000000
2887.695316	451.666667
2888.992687	424.000000
2890.288302	370.666667
2891.583706	399.666667
2892.878899	393.666667
2894.170795	433.333333
2895.465567	387.666667
2896.757042	402.666667
2898.049850	386.333333
2899.342448	422.000000
2900.631752	414.666667
2901.922388	452.333333
2903.211273	395.666667
2904.501490	415.666667
2905.788416	439.000000
2907.076674	424.000000
2908.363183	436.666667
2909.649483	437.666667
2910.935576	409.000000
2912.219920	412.666667
2913.507135	401.000000
2914.789524	393.333333
2916.073245	376.000000
2917.355220	390.333333
2918.636987	368.666667
2919.917010	442.333333
2921.199902	414.333333
2922.481049	421.666667
2923.758914	394.666667
2925.039648	386.666667
2926.317101	419.000000
2927.594348	395.333333
2928.869853	399.333333
2930.148226	384.333333
2931.421785	411.666667
2932.698211	422.666667
2933.972896	374.000000
2935.245840	406.666667
2936.520116	359.000000
2937.792652	399.666667
2939.064983	375.666667
2940.334042	433.000000
2941.605966	432.000000
2942.876152	422.666667
2944.146134	378.000000
2945.415913	416.333333
2946.683956	391.333333
2947.950262	408.000000
2949.216367	355.333333
2950.483801	393.333333
2951.749501	374.333333
2953.014998	384.666667
2954.280293	361.333333
2955.542323	411.666667
2956.805683	424.666667
2958.068842	423.666667
2959.330269	345.666667
2960.593025	420.333333
2961.854049	393.000000
2963.113343	412.666667
2964.372437	401.000000
2965.631330	442.000000
2966.890023	372.333333
2968.148516	385.666667
2969.405280	391.666667
2970.661844	398.000000
2971.916681	413.000000
2973.172846	427.333333
2974.425757	381.333333
2975.679997	398.333333
2976.934037	401.666667
2978.186353	364.333333
2979.438469	406.333333
2980.688861	380.333333
2981.942108	410.666667
2983.190578	391.666667
2984.441903	382.000000
2985.689978	394.000000
2986.937857	380.666667
2988.185538	400.666667
2989.433022	373.333333
2990.678785	374.666667
2991.924352	403.333333
2993.171246	362.000000
2994.414896	391.000000
2995.659874	373.666667
2996.901608	381.000000
2998.146194	382.000000
2999.389061	440.666667
3000.628687	378.666667
3001.871163	364.666667
3003.110399	378.333333
3004.350963	392.333333
3005.589810	342.666667
3006.828463	358.666667
3008.065400	381.666667
3009.303665	389.000000
3010.540214	371.000000
3011.776570	375.000000
3013.012732	363.000000
3014.247180	366.333333
3015.481436	393.666667
3016.715498	397.333333
3017.947848	401.000000
3019.178486	366.666667
3020.411970	393.000000
3021.643742	358.333333
3022.873804	406.666667
3024.103673	328.333333
3025.331833	380.666667
3026.561320	369.666667
3027.789097	332.666667
3029.016683	372.000000
3030.245596	364.000000
3031.469766	354.333333
3032.696779	373.000000
3033.920568	339.666667
3035.145684	341.666667
3036.369093	339.666667
3037.592312	380.666667
3038.813826	374.666667
3040.038181	406.333333
3041.257801	345.333333
3042.478747	339.666667
3043.699504	359.666667
3044.918557	346.333333
3046.138935	377.666667
3047.356097	358.000000
3048.574585	322.000000
3049.791370	359.666667
3051.007968	353.333333
3052.224377	351.333333
3053.437574	359.000000
3054.653608	405.333333
3055.866430	382.000000
3057.082089	402.666667
3058.293025	357.666667
3059.505286	358.000000
3060.717361	354.333333
3061.929248	383.666667
3063.139439	333.333333
3064.349443	357.333333
3065.559261	315.000000
3066.767383	353.666667
3067.975320	376.000000
3069.181561	353.333333
3070.389127	340.000000
3071.594998	336.000000
3072.800685	332.000000
3074.006186	367.333333
3075.209994	321.666667
3076.415126	356.333333
3077.618565	355.333333
3078.820313	335.000000
3080.021876	321.333333
3081.223256	369.000000
3082.424452	311.333333
3083.623958	314.666667
3084.823281	351.000000
3086.023927	373.000000
3087.222883	329.666667
3088.418645	363.666667
3089.617236	343.333333
3090.812633	368.666667
3092.009353	320.000000
3093.202881	331.333333
3094.399237	343.333333
3095.593907	336.666667
3096.785385	320.333333
3097.981196	354.333333
3099.172312	311.333333
3100.364752	343.666667
3101.554004	359.666667
3102.746081	344.666667
3103.936475	308.666667
3105.123683	371.666667
3106.312213	315.000000
3107.502066	346.666667
3108.688735	299.000000
3109.875223	329.666667
3111.061533	324.666667
3112.249164	350.000000
3113.433613	327.666667
3114.616383	309.666667
3115.801975	334.333333
3116.985888	372.666667
3118.168122	339.666667
3119.350177	353.000000
3120.532054	332.000000
3121.713753	341.666667
3122.893775	311.000000
3124.072120	324.666667
3125.253285	301.333333
3126.431275	291.666667
3127.609089	317.333333
3128.786725	308.333333
3129.962686	303.000000
3131.138470	321.000000
3132.315576	337.666667
3133.491007	367.000000
3134.664765	284.000000
3135.836850	330.333333
3137.010257	321.333333
3138.183487	354.000000
3139.355046	332.666667
3140.527925	364.000000
3141.697637	321.000000
3142.868670	321.333333
3144.038033	299.333333
3145.205725	347.666667
3146.376233	324.000000
3147.542083	364.333333
3148.712241	271.333333
3149.877743	300.333333
3151.043070	319.000000
3152.208224	322.333333
3153.373205	312.666667
3154.539505	374.000000
3155.701153	283.333333
3156.864120	324.666667
3158.026915	316.000000
3159.189537	299.000000
3160.350494	315.666667
3161.511278	346.333333
3162.671890	339.000000
3163.830838	327.666667
3164.989615	293.000000
3166.148220	296.333333
3167.306652	263.000000
3168.464914	319.000000
3169.621513	271.333333
3170.776451	310.333333
3171.932708	262.000000
3173.087304	312.666667
3174.241730	291.666667
3175.394496	306.000000
3176.547091	327.333333
3177.699517	348.000000
3178.851773	289.000000
3180.003858	318.000000
3181.152798	317.666667
3182.304544	332.333333
3183.454632	242.666667
3184.603064	346.666667
3185.751326	294.333333
3186.899420	327.333333
3188.047345	285.333333
3189.193614	295.000000
3190.339715	316.666667
3191.484162	331.666667
3192.628441	311.333333
3193.772552	317.666667
3194.917980	314.333333
3196.060270	353.000000
3197.202393	283.000000
3198.344348	349.666667
3199.486136	287.333333
3200.627757	294.333333
3201.766243	332.666667
3202.906046	307.333333
3204.047167	324.333333
3205.185153	317.000000
3206.321490	313.000000
3207.457661	298.333333
3208.595149	317.333333
3209.730989	318.666667
3210.868146	264.000000
3212.000690	316.333333
3213.137516	288.666667
3214.269730	310.333333
3215.403261	282.666667
3216.536628	257.333333
3217.666867	306.333333
3218.799904	268.666667
3219.929815	276.666667
3221.061042	252.000000
3222.189145	285.333333
3223.320044	289.000000
3224.449299	278.333333
3225.576911	312.333333
3226.701400	290.333333
3227.830165	297.000000
3228.955808	286.000000
3230.081289	286.000000
3231.205128	263.666667
3232.331761	299.666667
3233.453797	261.000000
3234.577149	302.000000
3235.700339	276.333333
3236.823366	283.333333
3237.944755	268.666667
3239.065981	278.666667
3240.185570	280.333333
3241.304997	253.666667
3242.422786	285.333333
3243.543367	283.666667
3244.660835	264.000000
3245.778142	268.666667
3246.895289	270.666667
3248.010800	248.000000
3249.127625	272.333333
3250.241341	306.666667
3251.357846	260.666667
3252.472717	307.000000
3253.584479	267.666667
3254.696081	287.333333
3255.808999	275.333333
3256.921757	290.666667
3258.031409	289.666667
3259.142376	288.000000
3260.253184	268.666667
3261.362360	321.333333
3262.469906	290.000000
3263.578765	286.666667
3264.687467	256.333333
3265.793066	294.666667
3266.899979	266.666667
3268.005263	290.333333
3269.111861	286.333333
3270.215359	266.333333
3271.320172	247.666667
3272.424827	303.666667
3273.526383	268.333333
3274.627783	219.000000
3275.730497	306.666667
3276.833055	294.333333
3277.932516	311.666667
3279.034761	277.666667
3280.133910	279.666667
3281.231435	286.666667
3282.328804	266.333333
3283.428955	248.333333
3284.526014	230.000000
3285.622917	301.333333
3286.719665	289.333333
3287.811855	301.666667
3288.908293	257.666667
3290.003109	275.666667
3291.097771	240.666667
3292.190811	288.333333
3293.283696	257.666667
3294.374962	285.333333
3295.467539	246.000000
3296.558497	265.000000
3297.647835	272.000000
3298.737020	261.000000
3299.827518	235.000000
3300.914931	271.000000
3302.002191	260.666667
3303.090764	269.333333
3304.179185	230.000000
3305.263058	263.333333
3306.351173	264.666667
3307.436206	286.333333
3308.519624	276.000000
3309.604354	276.000000
3310.687468	254.333333
3311.771895	294.666667
3312.853243	238.333333
3313.935903	261.333333
3315.016949	255.666667
3316.097844	262.333333
3317.177125	248.666667
3318.256256	256.333333
3319.336699	261.666667
3320.414067	277.666667
3321.492747	285.333333
3322.569815	254.666667
3323.646734	252.000000
3324.722041	266.666667
3325.797199	227.666667
3326.873668	273.333333
3327.947067	289.000000
3329.020317	291.666667
3330.094877	279.333333
3331.167829	256.000000
3332.239172	236.000000
3333.311826	256.333333
3334.381414	246.000000
3335.452312	262.333333
3336.521603	249.666667
3337.592205	249.333333
3338.661200	271.000000
3339.728589	254.333333
3340.794373	260.666667
3341.864383	254.333333
3342.931330	229.333333
3343.995215	258.000000
3345.061868	245.666667
3346.126916	244.666667
3347.190361	236.333333
3348.253660	238.333333
3349.316812	214.333333
3350.379818	225.000000
3351.442678	279.000000
3352.503936	285.000000
3353.562137	261.333333
3354.624558	269.333333
3355.683924	237.000000
3356.743144	250.000000
3357.803673	222.666667
3358.859694	252.000000
3359.918478	252.666667
3360.972755	238.333333
3362.029796	236.666667
3363.085238	250.333333
3364.141990	266.000000
3365.197143	260.333333
3366.250699	214.333333
3367.302659	259.666667
3368.357380	249.333333
3369.409052	262.333333
3370.460581	237.000000
3371.513418	254.333333
3372.563208	241.666667
3373.614307	263.000000
3374.662360	260.000000
3375.713172	257.000000
3376.760940	253.666667
3377.808565	230.666667
3378.856047	236.000000
3379.901937	235.666667
3380.949135	235.333333
3381.993291	248.666667
3383.040205	234.000000
3384.085527	249.333333
3385.127808	285.333333
3386.169949	258.000000
3387.213397	238.333333
3388.256704	228.000000
3389.298422	246.000000
3390.339998	219.333333
3391.381433	225.666667
3392.421280	236.333333
3393.459538	258.000000
3394.499104	279.333333
3395.538530	233.333333
3396.576368	220.333333
3397.612619	272.333333
3398.648731	242.333333
3399.686150	250.666667
3400.720536	223.666667
3401.756229	224.333333
3402.791783	255.666667
3403.824306	266.000000
3404.859582	238.333333
3405.891827	230.333333
3406.923934	271.666667
3407.954457	214.666667
3408.986287	231.000000
3410.017979	226.333333
3411.046643	223.000000
3412.075170	232.000000
3413.105003	234.000000
3414.134699	229.000000
3415.161369	234.000000
3416.189346	250.000000
3417.214298	250.000000
3418.242000	225.666667
3419.266679	241.333333
3420.292664	259.666667
3421.317069	238.000000
3422.341338	219.000000
3423.364028	259.000000
3424.386582	202.000000
3425.410442	264.000000
3426.431282	201.000000
3427.451986	203.000000
3428.473997	194.000000
3429.492989	253.333333
3430.511845	237.666667
3431.532008	224.333333
3432.549154	228.000000
