-116.707459	24.000000
-114.037859	20.333333
-111.371194	-11.666667
-108.705281	40.333333
-106.042300	39.666667
-103.377890	15.666667
-100.716410	11.666667
-98.053501	13.000000
-95.395698	17.000000
-92.736466	8.666667
-90.077982	-12.666667
-87.422422	33.333333
-84.765434	26.333333
-82.113544	2.333333
-79.460224	11.666667
-76.809823	6.666667
-74.157993	-0.666667
-71.511254	19.333333
-68.863086	12.666667
-66.215660	25.333333
-63.571148	-21.333333
-60.925208	31.666667
-58.284349	3.666667
-55.642061	39.000000
-53.002682	-21.000000
-50.361873	38.000000
-47.721805	17.000000
-45.086809	23.000000
-42.450385	31.000000
-39.816863	21.000000
-37.181913	31.000000
-34.552028	11.333333
-31.918551	11.333333
-29.290136	-12.000000
-26.662455	-0.666667
-24.033345	23.333333
-21.409292	-4.000000
-18.781650	56.666667
-16.159061	44.666667
-13.537204	51.333333
-10.916077	77.000000
-8.295680	164.333333
-5.678172	425.666667
-3.059235	1318.000000
-0.443183	3078.000000
2.172140	3541.333333
4.786736	2170.333333
7.398449	266.000000
10.011591	27.666667
12.619699	55.666667
15.231389	24.000000
17.838048	35.666667
20.446135	5.666667
23.053498	20.000000
25.655836	29.333333
28.261752	2.666667
30.862646	7.666667
33.464968	21.666667
36.062273	37.000000
38.663153	19.000000
41.259018	-12.333333
43.856312	7.666667
46.452886	4.000000
49.044451	18.666667
51.637444	-34.666667
54.227576	14.000000
56.819136	58.000000
59.407836	-2.666667
61.997963	14.666667
64.583091	51.000000
67.169647	-1.333333
69.755489	77.666667
72.338477	15.666667
74.922891	31.000000
77.500177	13.000000
80.081029	20.333333
82.659032	-0.666667
85.236325	3.333333
87.815044	22.666667
90.388781	31.333333
92.963946	37.333333
95.536267	42.333333
98.107880	21.666667
100.676653	46.333333
103.246853	6.000000
105.814215	52.666667
108.383002	24.000000
110.948953	27.000000
113.512069	58.333333
116.078741	82.333333
118.636192	47.666667
121.199328	102.000000
123.757504	171.666667
126.319235	394.666667
128.876009	729.000000
131.434210	824.666667
133.987457	768.333333
136.540007	732.333333
139.096107	868.000000
141.647259	1116.666667
144.197714	1346.000000
146.747471	1487.000000
149.294409	1653.000000
151.840652	1607.333333
154.388320	1617.333333
156.935292	1612.666667
159.477329	1483.333333
162.018672	1536.000000
164.559322	1602.666667
167.101398	1670.000000
169.640662	1866.666667
172.177118	1968.666667
174.712882	2123.666667
177.250072	2290.000000
179.786571	2581.000000
182.320264	2944.000000
184.851153	3361.333333
187.381355	3907.333333
189.912981	4674.666667
192.441806	5657.666667
194.967832	7007.000000
197.493172	8374.000000
200.019937	10124.000000
202.543906	11927.333333
205.067190	13136.000000
207.589789	13904.333333
210.109595	13402.000000
212.628718	12358.666667
215.147158	10599.666667
217.667022	9114.333333
220.179885	7479.000000
222.696279	6133.666667
225.211991	5265.666667
227.722813	4493.666667
230.235060	3862.000000
232.744525	3435.000000
235.253311	3004.000000
237.761418	2722.666667
240.270950	2527.000000
242.775601	2390.000000
245.279576	2161.000000
247.784975	2146.666667
250.285499	1998.666667
252.789547	1953.666667
255.286623	1899.333333
257.787223	2038.000000
260.285051	2249.000000
262.782206	2750.000000
265.278688	3407.000000
267.770307	3223.000000
270.265446	2459.666667
272.757818	1717.333333
275.249520	1390.000000
277.738459	1275.666667
280.228822	1183.666667
282.716422	1145.666667
285.201263	1063.333333
287.689619	1126.333333
290.171035	1029.333333
292.655965	1047.000000
295.136050	998.333333
297.619647	968.333333
300.098401	960.000000
302.578579	1006.000000
305.056004	960.333333
307.532766	1001.000000
310.008865	967.000000
312.482215	946.333333
314.954903	977.000000
317.426930	990.333333
319.898296	1005.333333
322.366917	1049.000000
324.834880	1054.666667
327.304264	992.000000
329.768826	1020.666667
332.236892	985.000000
334.700138	1000.000000
337.162726	1022.000000
339.624658	979.333333
342.085933	1054.333333
344.544474	1096.000000
347.004437	1253.333333
349.461667	1487.666667
351.918243	2194.666667
354.374165	3428.666667
356.827357	4156.000000
359.281972	3318.333333
361.731785	1970.000000
364.185094	1393.333333
366.633605	1199.000000
369.081464	1109.666667
371.530746	1057.666667
373.975234	1043.333333
376.421144	1013.666667
378.866404	998.000000
381.308946	1053.666667
383.750840	1042.666667
386.192087	1102.666667
388.630618	1151.000000
391.070571	1477.666667
393.507810	1843.333333
395.942337	1932.666667
398.380352	1761.666667
400.813590	1575.666667
403.248249	1695.666667
405.678136	1634.333333
408.111508	1391.666667
410.540110	1243.333333
412.968070	1137.333333
415.397452	1159.666667
417.822068	1201.666667
420.248106	1213.000000
422.673503	1216.000000
425.098260	1304.000000
427.518259	1259.333333
429.939679	1381.666667
432.358402	1478.000000
434.778546	1462.666667
437.195995	1607.333333
439.614864	1793.666667
442.031040	2073.000000
444.442468	2374.666667
446.857374	2738.333333
449.269589	3530.000000
451.681170	4494.333333
454.092117	6298.000000
456.500378	9685.333333
458.908006	16127.000000
461.315002	27124.333333
463.721367	40993.333333
466.125049	48170.666667
468.528101	42290.333333
470.930523	28251.333333
473.332315	16814.000000
475.731430	10790.666667
478.131964	7728.000000
480.531869	6010.666667
482.927051	4881.333333
485.325700	4220.333333
487.719629	3669.666667
490.112932	3212.666667
492.505609	2872.000000
494.897661	2770.000000
497.291131	2476.333333
499.679889	2338.333333
502.065981	2258.000000
504.453493	2328.666667
506.840382	2460.000000
509.224607	2825.666667
511.610250	2860.333333
513.993232	2356.666667
516.373553	1915.666667
518.755293	1726.666667
521.134374	1631.000000
523.514874	1553.666667
525.892716	1483.000000
528.267903	1452.666667
530.642472	1437.000000
533.018459	1451.666667
535.391794	1387.666667
537.766546	1366.000000
540.136613	1365.333333
542.506064	1316.333333
544.876933	1270.000000
547.243122	1277.333333
549.610729	1265.333333
551.975690	1258.000000
554.340038	1211.666667
556.703773	1188.000000
559.068926	1218.666667
561.429407	1184.666667
563.791306	1158.000000
566.150564	1127.666667
568.507185	1139.666667
570.867250	1108.000000
573.220624	1109.333333
575.577443	1150.333333
577.931627	1118.000000
580.285202	1059.333333
582.638170	1057.666667
584.988505	1081.666667
587.340258	1137.333333
589.685334	1149.333333
592.035874	1140.000000
594.379740	1077.000000
596.729068	1152.333333
599.073747	1047.666667
601.415802	1062.000000
603.759274	1096.333333
606.100123	1108.000000
608.440370	1103.000000
610.777996	1075.000000
613.119057	1038.000000
615.455480	1044.333333
617.793320	1042.000000
620.128543	1001.333333
622.461150	1032.333333
624.795173	1024.666667
627.126582	1031.666667
629.457393	1039.666667
631.787607	1052.333333
634.117222	1037.000000
636.442214	1008.000000
638.772648	1042.333333
641.098461	1028.000000
643.421666	1054.000000
645.746288	1074.666667
648.068304	1052.000000
650.389726	1018.000000
652.708546	1017.333333
655.028781	1019.000000
657.348423	996.000000
659.665464	1004.000000
661.981913	1007.666667
664.295764	972.333333
666.611031	1046.333333
668.923701	996.000000
671.237786	946.333333
673.547271	989.666667
675.858172	967.666667
678.166480	1032.000000
680.474200	1021.000000
682.783334	1018.666667
685.087876	1046.333333
687.391832	1076.666667
689.695202	1161.000000
691.999986	1157.333333
694.300184	1259.666667
696.601796	1418.000000
698.902823	1427.000000
701.199269	1295.000000
703.497130	1151.666667
705.794407	1110.000000
708.091101	1063.000000
710.383219	1066.333333
712.678748	985.666667
714.969703	1021.333333
717.262073	1042.000000
719.551868	994.666667
721.841082	991.000000
724.129717	993.000000
726.415779	980.000000
728.703256	1018.000000
730.988161	1029.666667
733.272489	990.000000
735.554248	995.333333
737.837421	1030.666667
740.120017	1036.000000
742.398057	994.000000
744.677512	1016.000000
746.956390	1071.333333
749.234694	1000.000000
751.508448	993.000000
753.783615	991.333333
756.058209	1026.000000
758.330244	1023.000000
760.603692	1037.000000
762.874582	1000.666667
765.142916	998.666667
767.412663	1012.666667
769.679856	1030.666667
771.946478	1036.666667
774.212530	1038.000000
776.476031	1044.333333
778.740945	1002.000000
781.005289	1040.333333
783.265104	1073.000000
785.526331	1101.666667
787.786991	1115.333333
790.045105	1150.333333
792.300674	1155.000000
794.559634	1201.666667
796.812095	1293.666667
799.069922	1298.333333
801.323231	1384.666667
803.574000	1562.333333
805.826181	1883.666667
808.075823	2259.000000
810.326878	2422.666667
812.573421	2275.666667
814.821376	1877.333333
817.066797	1561.333333
819.313629	1317.000000
821.559900	1264.333333
823.801666	1162.333333
826.046816	1167.333333
828.285493	1104.333333
830.527552	1092.666667
832.765113	1071.000000
835.004086	1154.000000
837.240532	1143.333333
839.478389	1127.666667
841.713721	1096.333333
843.946530	1142.000000
846.180750	1088.333333
848.412447	1113.666667
850.643590	1115.333333
852.874178	1165.666667
855.104212	1118.333333
857.333692	1078.666667
859.558690	1058.666667
861.787063	1109.000000
864.010956	1062.666667
866.236261	1077.666667
868.457090	1087.000000
870.681291	1064.000000
872.901019	1092.666667
875.122157	1048.000000
877.342745	1084.333333
879.560824	1092.666667
881.780312	1098.000000
883.995334	1138.666667
886.209808	1054.333333
888.423735	1095.666667
890.637115	1088.000000
892.849947	1111.666667
895.062233	1063.000000
897.272016	1132.333333
899.481254	1095.666667
901.689947	1087.000000
903.896141	1034.333333
906.103744	1067.666667
908.308849	1076.666667
910.513411	1051.000000
912.715478	1039.666667
914.918954	1076.000000
917.119936	1036.333333
919.320376	1157.666667
921.522225	1072.666667
923.717683	1072.666667
925.916500	1100.000000
928.110878	1061.666667
930.308614	1075.000000
932.501914	1047.333333
934.696623	1057.333333
936.888846	1051.333333
939.080530	1087.000000
941.271677	1043.000000
943.460341	1033.666667
945.648469	1058.000000
947.834116	1041.000000
950.023115	1059.000000
952.207691	1049.666667
954.391732	1043.666667
956.579123	1111.333333
958.758210	1057.666667
960.940648	1037.000000
963.122552	1065.000000
965.301981	1039.666667
967.478938	1050.333333
969.657303	1059.666667
971.837075	1032.000000
974.010498	1074.666667
976.187267	1011.333333
978.359629	1038.000000
980.533399	1018.333333
982.702765	1009.333333
984.875475	1068.666667
987.045720	1016.000000
989.215436	1046.000000
991.384623	988.666667
993.549413	1030.666667
995.717544	1057.666667
997.881281	1009.000000
1000.046424	1042.666667
1002.209108	987.000000
1004.371267	1031.333333
1006.530969	1051.000000
1008.690146	1037.666667
1010.850730	1021.333333
1013.008859	1007.000000
1015.166465	1043.666667
1017.323547	1038.333333
1019.480105	1040.666667
1021.632284	1020.666667
1023.785870	1050.000000
1025.938934	1016.333333
1028.089549	1054.666667
1030.241571	1017.666667
1032.389219	1019.666667
1034.540199	1020.666667
1036.686808	1017.666667
1038.832898	1038.333333
1040.978470	1079.666667
1043.125447	1032.666667
1045.266135	1065.333333
1047.410153	1022.333333
1049.551730	1111.000000
1051.692791	1053.333333
1053.835256	1071.333333
1055.971442	1055.000000
1058.110953	1127.666667
1060.246110	1123.000000
1062.384591	1139.000000
1064.518718	1140.666667
1066.652332	1164.000000
1068.787351	1151.333333
1070.918020	1211.333333
1073.050094	1202.000000
1075.179739	1167.666667
1077.308872	1405.333333
1079.437493	1571.666667
1081.565603	1763.000000
1083.691287	1868.333333
1085.816461	1658.333333
1087.943039	1439.333333
1090.065279	1238.666667
1092.188924	1206.666667
1094.308234	1087.000000
1096.432774	1087.333333
1098.551068	1063.666667
1100.670767	1086.666667
1102.788047	1079.000000
1104.904821	1072.000000
1107.021088	1021.333333
1109.134939	1061.000000
1111.250195	1024.666667
1113.361127	1039.333333
1115.475372	1008.666667
1117.585296	1087.000000
1119.696624	993.000000
1121.807447	1030.000000
1123.913954	1019.666667
1126.023771	1072.000000
1128.129273	1051.666667
1130.236178	1048.000000
1132.336868	1010.333333
1134.442770	1006.000000
1136.544363	1036.000000
1138.647359	1029.333333
1140.749854	1012.000000
1142.846142	1053.666667
1144.947637	1014.000000
1147.044830	1116.000000
1149.141525	1103.333333
1151.237721	1239.333333
1153.333420	1310.333333
1155.428620	1419.666667
1157.521424	1592.333333
1159.615631	1774.333333
1161.703646	1857.333333
1163.796859	1785.333333
1165.883884	1548.000000
1167.974208	1285.666667
1170.060244	1212.333333
1172.149579	1127.333333
1174.232732	1116.666667
1176.317287	1095.333333
1178.403244	1073.333333
1180.484919	1066.000000
1182.567996	1033.666667
1184.648687	1044.000000
1186.728886	1059.666667
1188.808594	1044.666667
1190.887811	1025.000000
1192.964646	1034.333333
1195.039100	982.666667
1197.116845	1025.000000
1199.190321	1024.000000
1201.265197	1034.666667
1203.335806	1021.333333
1205.407816	1059.000000
1207.477451	1060.666667
1209.548486	1021.333333
1211.619033	1048.666667
1213.685319	1018.666667
1215.753006	1046.000000
1217.818321	1039.666667
1219.885036	1082.000000
1221.947495	1104.666667
1224.013239	1079.000000
1226.074729	1085.000000
1228.137620	1128.000000
1230.198143	1113.000000
1232.258182	1090.666667
1234.317739	1213.333333
1236.374930	1066.666667
1238.431640	1097.000000
1240.485986	1063.666667
1242.543614	1036.333333
1244.598879	1051.333333
1246.649903	1069.666667
1248.702327	1008.666667
1250.754271	1052.666667
1252.803857	1107.666667
1254.852964	1095.000000
1256.901593	1014.666667
1258.949743	1053.000000
1260.997414	1007.666667
1263.040855	1076.666667
1265.087572	972.333333
1267.131935	1000.333333
1269.175822	967.000000
1271.217357	1040.000000
1273.256543	997.000000
1275.299002	1028.333333
1277.337238	1004.666667
1279.376873	1013.000000
1281.416033	994.000000
1283.450974	1021.333333
1285.487314	996.000000
1287.521310	999.333333
1289.556703	1004.666667
1291.587884	1011.666667
1293.620462	987.333333
1295.652569	1008.333333
1297.682335	988.333333
1299.713498	986.666667
1301.740455	1038.333333
1303.768809	1019.000000
1305.792958	975.000000
1307.820373	1012.333333
1309.843585	1007.666667
1311.868195	1000.333333
1313.890471	972.666667
1315.914144	1019.333333
1317.935484	976.333333
1319.956356	1023.666667
1321.976761	967.000000
1323.992973	1006.333333
1326.010582	978.000000
1328.025863	985.000000
1330.044403	960.000000
1332.058754	1015.666667
1334.070779	991.000000
1336.086061	1004.000000
1338.097158	999.666667
1340.109652	985.333333
1342.117963	1019.000000
1344.129529	1004.333333
1346.135057	937.000000
1348.143840	986.333333
1350.148445	942.000000
1352.156304	980.333333
1354.163701	975.666667
1356.165067	1031.666667
1358.167829	1020.000000
1360.170132	994.666667
1362.171975	987.666667
1364.173358	927.333333
1366.172428	988.000000
1368.171039	935.000000
1370.169192	939.333333
1372.166886	951.000000
1374.160418	925.333333
1376.155345	974.000000
1378.149816	936.333333
1380.143830	998.333333
1382.135537	925.666667
1384.126789	978.666667
1386.115735	925.333333
1388.106076	917.666667
1390.095962	949.333333
1392.083544	922.333333
1394.070673	928.666667
1396.055500	910.333333
1398.041722	959.666667
1400.025644	942.666667
1402.009113	936.000000
1403.992129	942.666667
1405.972848	877.000000
1407.954961	909.000000
1409.934778	977.666667
1411.914143	957.666667
1413.889370	954.333333
1415.867835	964.666667
1417.844007	920.666667
1419.819730	937.000000
1421.795003	965.000000
1423.767985	1007.333333
1425.740519	981.333333
1427.712605	993.333333
1429.684244	951.333333
1431.651754	964.333333
1433.624338	945.666667
1435.589116	966.666667
1437.558967	945.333333
1439.524694	918.666667
1441.491813	963.666667
1443.456649	1008.333333
1445.417365	926.666667
1447.383149	938.666667
1449.342978	958.000000
1451.304201	986.666667
1453.266816	981.333333
1455.225316	923.000000
1457.183373	968.333333
1459.140989	996.666667
1461.098162	963.333333
1463.053060	1004.333333
1465.009351	957.333333
1466.963367	966.333333
1468.916942	912.666667
1470.868245	1030.000000
1472.820941	983.666667
1474.771364	983.333333
1476.721349	953.333333
1478.670895	992.333333
1480.618172	951.333333
1482.563181	972.666667
1484.509583	960.000000
1486.455547	1004.666667
1488.401074	939.000000
1490.344335	946.000000
1492.287161	944.000000
1494.227723	957.666667
1496.169676	939.666667
1498.109367	952.666667
1500.048624	938.000000
1501.987445	930.333333
1503.924007	917.333333
1505.861960	944.333333
1507.797654	920.333333
1509.732915	964.666667
1511.665920	914.000000
1513.598492	951.000000
1515.530632	955.000000
1517.462340	988.333333
1519.391794	939.000000
1521.322639	934.333333
1523.253052	976.333333
1525.179393	941.000000
1527.107125	961.333333
1529.032606	941.000000
1530.957658	908.000000
1532.882281	930.333333
1534.806475	925.000000
1536.728421	961.000000
1538.651758	940.666667
1540.572848	932.333333
1542.491694	944.666667
1544.411930	967.000000
1546.329923	957.666667
1548.247489	933.333333
1550.162813	917.000000
1552.079527	965.000000
1553.992186	921.333333
1555.908049	957.666667
1557.821672	983.333333
1559.733057	944.000000
1561.645832	947.666667
1563.554557	940.333333
1565.464671	941.000000
1567.374362	928.333333
1569.283630	966.666667
1571.190664	924.333333
1573.095465	964.666667
1575.001655	986.666667
1576.905613	945.000000
1578.809150	959.333333
1580.712267	906.000000
1582.613154	966.333333
1584.515430	966.666667
1586.415478	958.666667
1588.316913	981.000000
1590.214315	959.666667
1592.111298	973.000000
1594.007863	899.000000
1595.905816	929.000000
1597.797934	978.333333
1599.693245	948.000000
1601.588139	878.333333
1603.480811	954.333333
1605.373066	934.666667
1607.263102	895.333333
1609.152722	920.333333
1611.041927	936.000000
1612.930717	939.000000
1614.817289	934.000000
1616.705249	931.666667
1618.589192	941.666667
1620.474522	981.666667
1622.359439	990.333333
1624.242142	970.333333
1626.126232	915.000000
1628.006310	928.333333
1629.887776	917.000000
1631.767031	898.666667
1633.647672	951.333333
1635.522509	931.000000
1637.402327	901.666667
1639.278141	947.666667
1641.153544	919.333333
1643.030333	900.333333
1644.901326	922.333333
1646.775500	939.000000
1648.645675	949.333333
1650.519032	929.666667
1652.390184	903.666667
1654.259136	946.000000
1656.129472	925.333333
1657.995816	908.666667
1659.863545	886.333333
1661.729075	892.666667
1663.595991	900.333333
1665.458918	863.666667
1667.323230	907.666667
1669.185346	903.666667
1671.047057	929.000000
1672.910154	870.000000
1674.771055	925.333333
1676.629764	904.333333
1678.488069	868.666667
1680.347759	856.666667
1682.201681	858.000000
1684.058777	907.000000
1685.915470	865.666667
1687.768186	851.333333
1689.624074	907.333333
1691.475988	893.666667
1693.327501	860.333333
1695.178613	849.000000
1697.029325	845.333333
1698.879635	895.333333
1700.727762	908.666667
1702.577273	909.666667
1704.421035	854.000000
1706.269746	903.000000
1708.112711	838.000000
1709.958843	863.000000
1711.801012	880.333333
1713.646347	846.000000
1715.485941	818.666667
1717.326919	841.000000
1719.169280	827.000000
1721.007685	845.666667
1722.847473	874.666667
1724.685086	836.666667
1726.522303	864.666667
1728.357347	861.666667
1730.193774	881.333333
1732.028029	884.333333
1733.861889	844.000000
1735.695355	861.333333
1737.524876	847.333333
1739.357555	855.333333
1741.186290	884.000000
1743.018182	868.000000
1744.846132	839.666667
1746.673691	838.000000
1748.500857	851.333333
1750.327632	849.333333
1752.154015	808.333333
1753.976462	853.666667
1755.802064	830.000000
1757.623731	871.666667
1759.446780	834.000000
1761.267667	848.000000
1763.088166	874.000000
1764.910045	850.000000
1766.726226	815.333333
1768.545558	852.666667
1770.360963	893.000000
1772.179518	858.000000
1773.994148	794.000000
1775.808391	833.000000
1777.622248	852.000000
1779.435718	848.333333
1781.247035	821.000000
1783.059732	853.000000
1784.872044	895.333333
1786.680438	850.333333
1788.490212	797.666667
1790.296072	828.666667
1792.105077	840.666667
1793.910169	876.000000
1795.716642	795.000000
1797.522731	828.333333
1799.324909	854.000000
1801.130232	839.666667
1802.931646	796.000000
1804.734440	868.333333
1806.533328	861.666667
1808.333597	825.666667
1810.133484	818.666667
1811.931229	839.666667
1813.728594	811.666667
1815.525579	848.333333
1817.322183	851.000000
1819.116648	819.333333
1820.912492	808.333333
1822.702681	812.666667
1824.497767	826.000000
1826.287201	819.666667
1828.079771	821.666667
1829.870206	805.000000
1831.658507	822.000000
1833.449943	802.000000
1835.235733	781.333333
1837.022903	798.666667
1838.807941	834.333333
1840.596113	803.666667
1842.380399	829.333333
1844.162555	790.666667
1845.946091	787.666667
1847.727498	860.666667
1849.510284	855.333333
1851.289189	828.333333
1853.069474	835.666667
1854.847632	827.333333
1856.627169	833.000000
1858.404581	839.333333
1860.179869	794.333333
1861.956535	818.000000
1863.731079	796.333333
1865.507001	796.333333
1867.277302	816.666667
1869.050731	844.000000
1870.822040	764.666667
1872.592978	784.666667
1874.365294	825.333333
1876.131996	821.000000
1877.901824	833.333333
1879.667788	808.000000
1881.436875	785.000000
1883.202101	854.666667
1884.966959	809.666667
1886.733194	795.000000
1888.495570	813.000000
1890.257579	776.333333
1892.019220	822.666667
1893.780495	845.000000
1895.541402	811.666667
1897.301943	793.333333
1899.060374	761.333333
1900.818439	834.666667
1902.574397	764.000000
1904.331731	818.333333
1906.088700	806.333333
1907.843562	742.666667
1909.596320	784.000000
1911.348713	763.666667
1913.102483	776.333333
1914.854149	820.666667
1916.603713	769.000000
1918.354652	794.333333
1920.105229	753.666667
1921.851966	791.000000
1923.600080	755.333333
1925.346094	841.000000
1927.093483	776.000000
1928.838775	770.333333
1930.581969	814.000000
1932.326538	835.666667
1934.069012	813.000000
1935.811125	815.666667
1937.552878	756.666667
1939.294271	744.000000
1941.033571	828.333333
1942.772512	806.666667
1944.511094	798.666667
1946.247585	791.666667
1947.983718	799.666667
1949.721225	807.666667
1951.454910	806.666667
1953.189970	806.333333
1954.922941	812.333333
1956.655556	725.666667
1958.387815	763.333333
1960.119717	795.000000
1961.849533	750.666667
1963.577264	770.333333
1965.306370	786.000000
1967.035121	782.666667
1968.761788	778.000000
1970.488101	779.333333
1972.215787	760.333333
1973.937937	786.000000
1975.663188	754.666667
1977.384632	800.666667
1979.109177	796.333333
1980.831641	778.333333
1982.550303	768.333333
1984.272063	783.000000
1985.990021	786.333333
1987.709352	768.666667
1989.424884	806.000000
1991.145236	790.666667
1992.861790	747.666667
1994.574547	766.000000
1996.290400	759.333333
1998.004181	763.666667
1999.717612	797.333333
2001.428972	764.000000
2003.141704	766.000000
2004.850646	770.333333
2006.562680	756.000000
2008.269206	822.333333
2009.978823	778.666667
2011.686374	775.000000
2013.393576	697.000000
2015.098713	807.333333
2016.803504	764.000000
2018.509666	774.000000
2020.212046	725.333333
2021.915797	778.333333
2023.617486	737.000000
2025.318830	787.333333
2027.019828	767.333333
2028.718765	756.666667
2030.419074	812.000000
2032.115608	754.333333
2033.813513	786.333333
2035.509359	773.666667
2037.208291	777.000000
2038.901737	729.666667
2040.596554	768.666667
2042.291029	764.000000
2043.981735	741.666667
2045.675525	825.333333
2047.365548	773.333333
2049.056942	738.000000
2050.746283	776.333333
2052.436994	778.333333
2054.123942	747.333333
2055.810551	767.333333
2057.498529	719.000000
2059.182748	727.333333
2060.868338	773.333333
2062.553588	746.333333
2064.236789	747.333333
2065.921361	778.666667
2067.600470	739.000000
2069.284364	731.333333
2070.962797	720.666667
2072.644308	747.333333
2074.322067	707.666667
2075.999490	732.333333
2077.678282	724.000000
2079.355032	761.333333
2081.029740	738.333333
2082.705817	754.333333
2084.379853	699.000000
2086.053555	753.333333
2087.726921	795.333333
2089.398248	739.333333
2091.069241	729.000000
2092.739900	738.666667
2094.410225	733.000000
2096.080216	729.000000
2097.748171	681.666667
2099.415793	760.333333
2101.081380	717.666667
2102.748336	771.000000
2104.413259	751.666667
2106.077850	749.000000
2107.740409	727.666667
2109.404336	784.666667
2111.066232	700.000000
2112.727798	747.333333
2114.389032	721.000000
2116.048238	720.000000
2117.707113	727.000000
2119.365659	774.666667
2121.023874	760.000000
2122.678367	756.666667
2124.335924	719.333333
2125.993152	758.666667
2127.646658	738.000000
2129.301532	702.333333
2130.952687	754.000000
2132.606905	708.333333
2134.257406	729.333333
2135.909273	701.666667
2137.555732	728.333333
2139.206946	726.333333
2140.854446	722.333333
2142.503313	761.000000
2144.150161	752.333333
2145.796684	757.333333
2147.442881	732.000000
2149.085370	749.333333
2150.730917	677.333333
2152.372757	723.000000
2154.017654	748.000000
2155.658845	715.333333
2157.299714	728.333333
2158.940258	731.333333
2160.578790	742.333333
2162.218688	722.333333
2163.854886	703.666667
2165.492450	720.666667
2167.129692	707.666667
2168.764924	684.666667
2170.399835	709.333333
2172.034423	724.000000
2173.668691	753.000000
2175.299265	724.666667
2176.932891	689.666667
2178.562825	706.333333
2180.194124	722.333333
2181.823418	732.666667
2183.452393	704.000000
2185.081048	671.333333
2186.709384	704.333333
2188.335718	724.666667
2189.961733	700.333333
2191.585746	685.666667
2193.211125	671.666667
2194.834503	701.000000
2196.459246	664.000000
2198.080308	704.333333
2199.701053	712.000000
2201.323163	690.000000
2202.943275	675.000000
2204.561390	704.666667
2206.179190	657.666667
2207.796675	692.666667
2209.413844	678.000000
2211.030698	647.666667
2212.647236	675.333333
2214.261782	669.000000
2215.874335	720.666667
2217.488252	671.333333
2219.100178	668.000000
2220.713467	682.000000
2222.324766	647.333333
2223.934075	687.666667
2225.544748	746.000000
2227.153432	678.333333
2228.761803	654.000000
2230.368188	719.666667
2231.975936	654.000000
2233.581697	665.000000
2235.187147	680.666667
2236.790612	653.666667
2238.395440	663.000000
2239.998284	684.333333
2241.599145	629.333333
2243.201369	633.333333
2244.801611	682.333333
2246.403215	675.666667
2248.001166	639.000000
2249.600480	654.666667
2251.197814	694.000000
2252.794840	659.666667
2254.393228	682.000000
2255.987967	711.666667
2257.580729	635.000000
2259.174854	675.333333
2260.770340	683.000000
2262.362181	691.333333
2263.953716	648.666667
2265.546613	671.333333
2267.134200	632.666667
2268.726483	672.000000
2270.313460	668.666667
2271.903464	669.333333
2273.488164	625.666667
2275.077558	656.000000
2276.661650	646.000000
2278.247102	682.000000
2279.830586	632.333333
2281.417095	683.333333
2282.999971	672.666667
2284.582544	696.666667
2286.164813	678.666667
2287.743452	724.333333
2289.325116	633.000000
2290.903151	654.000000
2292.484209	643.666667
2294.061640	641.666667
2295.637108	639.666667
2297.215598	618.666667
2298.790464	661.666667
2300.365029	660.000000
2301.939294	617.000000
2303.513258	631.000000
2305.086921	608.333333
2306.660285	607.666667
2308.230030	635.333333
2309.799476	662.333333
2311.371940	610.333333
2312.939130	626.000000
2314.509338	616.666667
2316.075931	655.666667
2317.643884	609.000000
2319.209881	662.666667
2320.775581	620.333333
2322.340983	638.666667
2323.904432	606.666667
2325.469240	651.000000
2327.030440	635.000000
2328.594654	621.000000
2330.153606	666.666667
2331.715573	640.000000
2333.275588	668.333333
2334.835309	625.333333
2336.393080	657.333333
2337.950556	649.666667
2339.507738	656.000000
2341.062972	633.000000
2342.617913	578.000000
2344.172559	636.333333
2345.726912	619.000000
2347.280972	638.333333
2348.834737	636.666667
2350.386558	638.333333
2351.936437	603.333333
2353.489323	603.666667
2355.036966	617.000000
2356.587618	635.333333
2358.134678	639.666667
2359.683096	640.333333
2361.231223	635.333333
2362.775761	639.333333
2364.321657	601.333333
2365.865615	608.666667
2367.410930	583.666667
2368.952660	649.666667
2370.495747	562.333333
2372.036898	603.666667
2373.577760	604.333333
2375.118333	660.000000
2376.658617	614.666667
2378.198612	632.000000
2379.735029	626.333333
2381.274447	615.333333
2382.810287	625.333333
2384.347485	591.666667
2385.881107	618.666667
2387.417729	636.666667
2388.952421	611.000000
2390.485183	563.666667
2392.017658	607.000000
2393.548205	630.333333
2395.081750	615.000000
2396.610084	659.333333
2398.139774	600.666667
2399.669179	633.666667
2401.198299	658.000000
2402.727134	614.666667
2404.250763	596.666667
2405.779028	581.666667
2407.302091	613.666667
2408.829787	596.666667
2410.350644	583.333333
2411.876134	626.000000
2413.398063	566.666667
2414.921348	597.666667
2416.442711	589.000000
2417.962155	615.000000
2419.482954	611.000000
2421.001835	587.666667
2422.520433	611.666667
2424.037114	638.666667
2425.555149	638.666667
2427.072903	601.666667
2428.587106	609.000000
2430.101028	603.333333
2431.614670	598.000000
2433.129667	609.000000
2434.641115	639.000000
2436.153918	607.666667
2437.664807	587.333333
2439.175418	599.333333
2440.684117	594.666667
2442.195802	600.333333
2443.703944	656.000000
2445.211808	564.666667
2446.719394	607.666667
2448.223439	562.000000
2449.730469	589.333333
2451.235591	620.000000
2452.740436	591.000000
2454.243374	573.666667
2455.746036	557.000000
2457.248421	599.333333
2458.748901	589.333333
2460.250734	566.333333
2461.750662	585.333333
2463.250315	609.000000
2464.749693	582.666667
2466.247168	548.333333
2467.742741	570.000000
2469.241294	594.000000
2470.736319	552.666667
2472.232696	572.666667
2473.725547	546.000000
2475.219751	538.666667
2476.713681	557.000000
2478.204087	589.000000
2479.697471	575.000000
2481.188957	552.333333
2482.678546	542.333333
2484.167863	548.666667
2485.655284	582.000000
2487.145681	584.000000
2488.632560	599.333333
2490.120790	522.666667
2491.605503	613.333333
2493.089947	530.333333
2494.575741	568.333333
2496.059644	596.000000
2497.544897	578.666667
2499.025017	567.333333
2500.508110	520.000000
2501.989312	587.666667
2503.470245	576.666667
2504.949289	551.666667
2506.428064	539.666667
2507.906571	533.000000
2509.384810	549.333333
2510.862780	557.333333
2512.337245	578.666667
2513.814680	537.666667
2515.288611	513.000000
2516.763892	580.666667
2518.238906	566.000000
2519.710419	575.333333
2521.183283	535.000000
2522.654264	550.333333
2524.126595	588.333333
2525.593812	564.000000
2527.063996	542.666667
2528.532299	542.333333
2530.000337	542.666667
2531.468110	594.666667
2532.935618	559.666667
2534.402861	544.666667
2535.866612	599.666667
2537.331713	544.666667
2538.794937	571.000000
2540.259510	520.000000
2541.720595	580.666667
2543.183029	534.000000
2544.645200	584.666667
2546.103885	562.000000
2547.567141	565.333333
2549.025302	531.000000
2550.484811	553.333333
2551.939226	558.666667
2553.398212	570.666667
2554.855326	511.333333
2556.310569	570.666667
2557.765550	574.000000
2559.218663	543.333333
2560.673124	574.333333
2562.125715	549.000000
2563.578047	557.666667
2565.028512	553.000000
2566.481932	553.666667
2567.930270	580.000000
2569.381563	530.000000
2570.830991	536.666667
2572.276946	537.333333
2573.725856	515.666667
2575.171296	526.000000
2576.618083	540.333333
2578.063008	564.333333
2579.507674	524.333333
2580.953688	550.666667
2582.396236	524.333333
2583.840131	576.333333
2585.280561	509.333333
2586.722338	555.000000
2588.162256	531.666667
2589.603521	571.000000
2591.041324	550.333333
2592.482077	570.666667
2593.917768	546.000000
2595.356408	534.000000
2596.793190	551.000000
2598.228117	532.333333
2599.665991	572.000000
2601.098808	561.333333
2602.532972	522.000000
2603.965282	529.000000
2605.398938	541.333333
2606.830741	547.000000
2608.262290	550.000000
2609.693587	513.000000
2611.123031	548.000000
2612.552223	549.333333
2613.979565	527.666667
2615.408252	553.000000
2616.836688	555.000000
2618.261676	559.666667
2619.688011	527.666667
2621.112497	540.666667
2622.538329	522.333333
2623.960717	530.666667
2625.384451	529.333333
2626.806338	510.666667
2628.227976	482.666667
2629.647768	532.000000
2631.068906	534.333333
2632.489794	543.333333
2633.907244	575.333333
2635.327633	550.000000
2636.744585	515.000000
2638.161288	503.333333
2639.577743	543.333333
2640.993950	505.333333
2642.409909	481.333333
2643.824027	562.333333
2645.237897	537.000000
2646.649929	509.333333
2648.063304	540.666667
2649.473250	517.000000
2650.886132	502.333333
2652.295585	505.333333
2653.704792	515.000000
2655.112163	516.000000
2656.522468	513.666667
2657.930938	557.333333
2659.337572	521.000000
2660.743961	499.000000
2662.148516	478.666667
2663.554415	527.666667
2664.958481	546.333333
2666.362302	532.666667
2667.765879	499.333333
2669.167625	523.666667
2670.570714	513.666667
2671.970385	537.333333
2673.371400	489.666667
2674.768999	544.000000
2676.169527	522.000000
2677.566641	531.000000
2678.965098	520.666667
2680.361728	510.333333
2681.758115	504.000000
2683.154260	536.333333
2684.548579	518.333333
2685.944241	506.000000
2687.336494	545.333333
2688.730089	554.666667
2690.121860	475.333333
2691.514974	497.000000
2692.906264	481.666667
2694.295731	503.666667
2695.684958	497.000000
2697.073946	507.666667
2698.464275	492.000000
2699.849621	511.000000
2701.237890	478.000000
2702.624339	467.666667
2704.010549	533.666667
2705.396520	478.666667
2706.779093	521.000000
2708.163008	473.666667
2709.546685	469.666667
2710.930123	458.666667
2712.310167	455.333333
2713.691551	492.000000
2715.071121	469.666667
2716.452031	470.333333
2717.831127	506.000000
2719.208409	482.000000
2720.587032	477.666667
2721.963842	476.000000
2723.340415	491.333333
2724.716753	471.333333
2726.091280	477.000000
2727.467147	417.666667
2728.839627	448.000000
2730.215023	515.000000
2731.585459	451.333333
2732.957236	498.000000
2734.328778	454.333333
2735.698512	502.333333
2737.069587	482.333333
2738.438853	485.666667
2739.807886	454.000000
2741.175113	494.666667
2742.542106	491.333333
2743.908867	495.333333
2745.275396	476.666667
2746.640119	463.333333
2748.004610	431.000000
2749.368870	452.000000
2750.732897	488.333333
2752.096693	493.000000
2753.457115	486.333333
2754.820447	472.666667
2756.178837	466.000000
2757.540137	486.000000
2758.898067	474.333333
2760.258905	466.333333
2761.617944	432.666667
2762.973614	443.000000
2764.332192	453.000000
2765.687403	453.333333
2767.042385	455.333333
2768.395571	488.333333
2769.751662	409.333333
2771.104390	450.666667
2772.456890	464.666667
2773.809161	455.666667
2775.162770	419.000000
2776.513019	470.333333
2777.861473	466.666667
2779.212833	465.000000
2780.560833	408.000000
2781.910171	414.333333
2783.257717	505.333333
2784.605037	425.333333
2785.952130	444.000000
2787.297432	464.666667
2788.642507	468.000000
2789.987357	489.333333
2791.331981	452.333333
2792.673253	433.000000
2794.015863	455.000000
2795.358247	470.333333
2796.700406	490.666667
2798.039216	458.333333
2799.380926	434.333333
2800.719288	445.000000
2802.058986	417.333333
2803.396900	470.000000
2804.733029	456.666667
2806.068934	474.666667
2807.406177	467.333333
2808.741636	439.666667
2810.076872	423.333333
2811.410325	430.666667
2812.745115	463.333333
2814.076565	427.666667
2815.410910	461.333333
2816.740357	487.666667
2818.071141	429.666667
2819.401703	445.000000
2820.730486	425.333333
2822.060605	406.000000
2823.388946	428.000000
2824.717066	481.000000
2826.043408	435.333333
2827.371087	470.333333
2828.695432	469.000000
2830.021114	456.000000
2831.345020	393.333333
2832.668707	378.666667
2833.993729	440.000000
2835.315421	427.666667
2836.636895	462.333333
2837.958150	416.666667
2839.279186	431.666667
2840.598449	405.666667
2841.919048	400.000000
2843.237876	459.333333
2844.556485	383.000000
2845.873323	436.000000
2847.189944	414.333333
2848.506348	433.333333
2849.820982	395.333333
2851.136952	411.333333
2852.449601	430.666667
2853.763585	392.666667
2855.077353	397.666667
2856.390904	424.666667
2857.702689	426.333333
2859.012707	429.666667
2860.324060	400.000000
2861.632098	435.333333
2862.941470	404.333333
2864.250628	409.333333
2865.559570	380.666667
2866.866748	453.666667
2868.172164	439.000000
2869.478913	413.000000
2870.783901	405.000000
2872.088675	393.333333
2873.391687	450.333333
2874.697580	428.333333
2875.998619	408.666667
2877.300992	418.666667
2878.601605	408.333333
2879.903552	424.666667
2881.205285	400.333333
2882.503715	420.333333
2883.803478	405.333333
2885.101484	419.666667
2886.399278	385.333333
2887.695316	388.333333
2888.992687	397.000000
2890.288302	410.666667
2891.583706	381.666667
2892.878899	448.333333
2894.170795	407.666667
2895.465567	441.666667
2896.757042	391.333333
2898.049850	406.666667
2899.342448	404.333333
2900.631752	435.333333
2901.922388	395.000000
2903.211273	439.000000
2904.501490	405.666667
2905.788416	391.333333
2907.076674	409.666667
2908.363183	419.000000
2909.649483	401.333333
2910.935576	416.333333
2912.219920	409.666667
2913.507135	441.666667
2914.789524	422.666667
2916.073245	434.000000
2917.355220	397.000000
2918.636987	394.333333
2919.917010	431.000000
2921.199902	427.000000
2922.481049	358.666667
2923.758914	395.666667
2925.039648	399.333333
2926.317101	412.000000
2927.594348	379.000000
2928.869853	393.666667
2930.148226	398.666667
2931.421785	404.333333
2932.698211	384.000000
2933.972896	369.333333
2935.245840	348.333333
2936.520116	378.333333
2937.792652	396.333333
2939.064983	419.000000
2940.334042	406.333333
2941.605966	372.666667
2942.876152	342.000000
2944.146134	428.000000
2945.415913	385.000000
2946.683956	380.000000
2947.950262	389.333333
2949.216367	389.000000
2950.483801	392.000000
2951.749501	379.000000
2953.014998	390.666667
2954.280293	419.000000
2955.542323	359.666667
2956.805683	363.333333
2958.068842	419.666667
2959.330269	361.666667
2960.593025	357.333333
2961.854049	402.333333
2963.113343	367.000000
2964.372437	461.333333
2965.631330	420.666667
2966.890023	371.666667
2968.148516	404.333333
2969.405280	358.666667
2970.661844	401.333333
2971.916681	390.666667
2973.172846	394.000000
2974.425757	382.333333
2975.679997	361.000000
2976.934037	405.000000
2978.186353	405.666667
2979.438469	380.000000
2980.688861	368.666667
2981.942108	378.666667
2983.190578	375.000000
2984.441903	382.333333
2985.689978	379.666667
2986.937857	394.333333
2988.185538	344.333333
2989.433022	377.666667
2990.678785	361.000000
2991.924352	381.000000
2993.171246	346.666667
2994.414896	367.000000
2995.659874	382.666667
2996.901608	405.000000
2998.146194	411.333333
2999.389061	356.666667
3000.628687	355.666667
3001.871163	380.666667
3003.110399	352.000000
3004.350963	358.666667
3005.589810	353.000000
3006.828463	365.333333
3008.065400	335.333333
3009.303665	390.666667
3010.540214	339.333333
3011.776570	366.000000
3013.012732	341.333333
3014.247180	405.666667
3015.481436	394.333333
3016.715498	361.000000
3017.947848	379.666667
3019.178486	321.000000
3020.411970	326.000000
3021.643742	338.333333
3022.873804	338.000000
3024.103673	345.333333
3025.331833	382.000000
3026.561320	378.333333
3027.789097	346.333333
3029.016683	345.000000
3030.245596	319.000000
3031.469766	380.000000
3032.696779	391.333333
3033.920568	335.666667
3035.145684	330.333333
3036.369093	361.333333
3037.592312	402.333333
3038.813826	332.333333
3040.038181	362.333333
3041.257801	367.333333
3042.478747	318.666667
3043.699504	329.333333
3044.918557	311.000000
3046.138935	325.666667
3047.356097	284.000000
3048.574585	333.666667
3049.791370	394.000000
3051.007968	389.666667
3052.224377	333.333333
3053.437574	364.000000
3054.653608	364.666667
3055.866430	332.000000
3057.082089	347.000000
3058.293025	322.666667
3059.505286	324.000000
3060.717361	343.666667
3061.929248	358.666667
3063.139439	328.333333
3064.349443	326.333333
3065.559261	363.666667
3066.767383	314.000000
3067.975320	358.666667
3069.181561	349.333333
3070.389127	356.666667
3071.594998	356.666667
3072.800685	356.666667
3074.006186	345.666667
3075.209994	343.000000
3076.415126	338.666667
3077.618565	311.333333
3078.820313	340.666667
3080.021876	364.333333
3081.223256	303.333333
3082.424452	310.333333
3083.623958	320.666667
3084.823281	355.000000
3086.023927	349.000000
3087.222883	331.666667
3088.418645	362.333333
3089.617236	301.333333
3090.812633	350.333333
3092.009353	294.666667
3093.202881	290.000000
3094.399237	324.666667
3095.593907	317.333333
3096.785385	336.333333
3097.981196	353.666667
3099.172312	324.333333
3100.364752	277.333333
3101.554004	338.000000
3102.746081	312.333333
3103.936475	332.000000
3105.123683	338.666667
3106.312213	337.333333
3107.502066	334.333333
3108.688735	358.000000
3109.875223	310.000000
3111.061533	335.333333
3112.249164	321.000000
3113.433613	308.666667
3114.616383	351.000000
3115.801975	294.000000
3116.985888	283.000000
3118.168122	323.333333
3119.350177	319.000000
3120.532054	312.000000
3121.713753	313.000000
3122.893775	309.333333
3124.072120	321.333333
3125.253285	282.666667
3126.431275	320.000000
3127.609089	321.333333
3128.786725	315.000000
3129.962686	324.333333
3131.138470	325.666667
3132.315576	298.666667
3133.491007	328.000000
3134.664765	338.333333
3135.836850	303.666667
3137.010257	309.333333
3138.183487	334.000000
3139.355046	367.000000
3140.527925	341.333333
3141.697637	313.333333
3142.868670	288.000000
3144.038033	306.666667
3145.205725	274.000000
3146.376233	318.000000
3147.542083	348.666667
3148.712241	334.666667
3149.877743	297.666667
3151.043070	324.666667
3152.208224	324.333333
3153.373205	318.333333
3154.539505	302.666667
3155.701153	314.666667
3156.864120	287.333333
3158.026915	348.000000
3159.189537	262.000000
3160.350494	307.666667
3161.511278	299.333333
3162.671890	315.000000
3163.830838	285.333333
3164.989615	310.333333
3166.148220	266.333333
3167.306652	311.000000
3168.464914	306.000000
3169.621513	297.666667
3170.776451	253.000000
3171.932708	272.333333
3173.087304	282.333333
3174.241730	289.000000
3175.394496	254.000000
3176.547091	264.333333
3177.699517	292.000000
3178.851773	301.666667
3180.003858	301.000000
3181.152798	295.333333
3182.304544	288.000000
3183.454632	289.000000
3184.603064	275.666667
3185.751326	252.666667
3186.899420	281.000000
3188.047345	285.333333
3189.193614	269.333333
3190.339715	276.000000
3191.484162	335.000000
3192.628441	256.666667
3193.772552	278.000000
3194.917980	316.333333
3196.060270	320.333333
3197.202393	300.000000
3198.344348	313.000000
3199.486136	312.333333
3200.627757	328.666667
3201.766243	301.666667
3202.906046	324.666667
3204.047167	283.333333
3205.185153	283.666667
3206.321490	265.666667
3207.457661	256.000000
3208.595149	295.000000
3209.730989	300.000000
3210.868146	281.000000
3212.000690	277.666667
3213.137516	313.333333
3214.269730	281.000000
3215.403261	292.666667
3216.536628	287.333333
3217.666867	277.666667
3218.799904	293.000000
3219.929815	244.333333
3221.061042	278.666667
3222.189145	254.333333
3223.320044	251.666667
3224.449299	275.666667
3225.576911	277.000000
3226.701400	254.333333
3227.830165	262.666667
3228.955808	252.333333
3230.081289	247.666667
3231.205128	306.000000
3232.331761	261.666667
3233.453797	289.666667
3234.577149	270.000000
3235.700339	295.333333
3236.823366	241.666667
3237.944755	274.333333
3239.065981	258.333333
3240.185570	260.000000
3241.304997	251.000000
3242.422786	296.333333
3243.543367	247.333333
3244.660835	272.000000
3245.778142	246.000000
3246.895289	291.666667
3248.010800	275.666667
3249.127625	272.666667
3250.241341	253.000000
3251.357846	277.000000
3252.472717	245.333333
3253.584479	273.000000
3254.696081	272.333333
3255.808999	251.000000
3256.921757	232.333333
3258.031409	303.666667
3259.142376	269.666667
3260.253184	281.333333
3261.362360	249.000000
3262.469906	281.333333
3263.578765	267.333333
3264.687467	284.666667
3265.793066	245.000000
3266.899979	279.666667
3268.005263	263.666667
3269.111861	291.333333
3270.215359	280.666667
3271.320172	238.666667
3272.424827	265.333333
3273.526383	284.333333
3274.627783	249.000000
3275.730497	265.000000
3276.833055	267.666667
3277.932516	255.666667
3279.034761	270.333333
3280.133910	251.333333
3281.231435	301.000000
3282.328804	260.333333
3283.428955	303.666667
3284.526014	266.666667
3285.622917	290.333333
3286.719665	299.333333
3287.811855	257.000000
3288.908293	284.666667
3290.003109	246.000000
3291.097771	276.000000
3292.190811	238.666667
3293.283696	260.000000
3294.374962	272.000000
3295.467539	274.666667
3296.558497	287.000000
3297.647835	233.333333
3298.737020	238.666667
3299.827518	263.333333
3300.914931	302.333333
3302.002191	263.666667
3303.090764	283.666667
3304.179185	216.666667
3305.263058	241.000000
3306.351173	291.666667
3307.436206	280.000000
3308.519624	235.333333
3309.604354	245.000000
3310.687468	298.000000
3311.771895	266.000000
3312.853243	234.000000
3313.935903	295.666667
3315.016949	235.333333
3316.097844	224.333333
3317.177125	269.666667
3318.256256	251.000000
3319.336699	263.000000
3320.414067	262.000000
3321.492747	237.000000
3322.569815	261.000000
3323.646734	257.333333
3324.722041	262.000000
3325.797199	265.333333
3326.873668	286.000000
3327.947067	260.666667
3329.020317	238.333333
3330.094877	235.000000
3331.167829	286.333333
3332.239172	270.000000
3333.311826	260.333333
3334.381414	243.666667
3335.452312	252.333333
3336.521603	256.666667
3337.592205	230.666667
3338.661200	271.000000
3339.728589	240.000000
3340.794373	275.000000
3341.864383	288.000000
3342.931330	215.666667
3343.995215	240.000000
3345.061868	263.000000
3346.126916	237.666667
3347.190361	237.666667
3348.253660	230.000000
3349.316812	236.000000
3350.379818	281.000000
3351.442678	231.666667
3352.503936	249.333333
3353.562137	254.666667
3354.624558	238.000000
3355.683924	280.666667
3356.743144	228.333333
3357.803673	267.666667
3358.859694	251.333333
3359.918478	295.333333
3360.972755	236.666667
3362.029796	252.333333
3363.085238	266.333333
3364.141990	232.000000
3365.197143	226.000000
3366.250699	245.333333
3367.302659	223.333333
3368.357380	227.333333
3369.409052	222.333333
3370.460581	250.666667
3371.513418	251.333333
3372.563208	231.333333
3373.614307	224.333333
3374.662360	248.000000
3375.713172	198.333333
3376.760940	250.000000
3377.808565	244.000000
3378.856047	237.666667
3379.901937	244.000000
3380.949135	268.000000
3381.993291	259.666667
3383.040205	222.666667
3384.085527	227.333333
3385.127808	245.333333
3386.169949	210.666667
3387.213397	231.666667
3388.256704	226.666667
3389.298422	217.333333
3390.339998	241.666667
3391.381433	221.000000
3392.421280	239.333333
3393.459538	183.666667
3394.499104	237.666667
3395.538530	257.333333
3396.576368	232.666667
3397.612619	235.000000
3398.648731	249.333333
3399.686150	224.666667
3400.720536	187.666667
3401.756229	275.666667
3402.791783	223.666667
3403.824306	239.000000
3404.859582	217.000000
3405.891827	203.666667
3406.923934	228.333333
3407.954457	277.333333
3408.986287	245.666667
3410.017979	248.000000
3411.046643	235.666667
3412.075170	259.000000
3413.105003	228.333333
3414.134699	252.666667
3415.161369	249.666667
3416.189346	199.000000
3417.214298	212.333333
3418.242000	239.000000
3419.266679	241.333333
3420.292664	215.666667
3421.317069	226.333333
3422.341338	215.666667
3423.364028	217.666667
3424.386582	237.333333
3425.410442	264.000000
3426.431282	211.666667
3427.451986	214.333333
3428.473997	218.333333
3429.492989	216.333333
3430.511845	264.666667
3431.532008	215.000000
3432.549154	221.333333
