-118.362301	-9.600000
-115.692700	21.800000
-113.026036	2.200000
-110.360123	1.400000
-107.697142	-1.200000
-105.032732	-1.200000
-102.371252	-26.800000
-99.708342	27.600000
-97.050540	-16.200000
-94.391307	11.400000
-91.732823	-5.200000
-89.077264	11.200000
-86.420276	-17.200000
-83.768385	1.800000
-81.115065	-15.000000
-78.464665	2.400000
-75.812835	5.600000
-73.166096	21.200000
-70.517927	9.400000
-67.870502	9.200000
-65.225990	-1.600000
-62.580050	15.400000
-59.939191	-7.800000
-57.296902	9.800000
-54.657523	15.000000
-52.016715	30.400000
-49.376646	-12.000000
-46.741651	9.600000
-44.105226	-7.200000
-41.471705	13.000000
-38.836755	24.800000
-36.206870	24.000000
-33.573392	22.600000
-30.944977	30.000000
-28.317296	12.000000
-25.688187	43.200000
-23.064134	42.800000
-20.436492	89.000000
-17.813903	58.400000
-15.192045	131.600000
-12.570918	194.400000
-9.950522	484.200000
-7.333013	1623.400000
-4.714076	5502.600000
-2.098025	15118.400000
0.517298	23126.800000
3.131894	12869.800000
5.743608	1381.600000
8.356749	180.000000
10.964857	89.200000
13.576547	58.200000
16.183206	34.000000
18.791293	42.600000
21.398656	39.400000
24.000994	20.200000
26.606910	21.800000
29.207805	18.200000
31.810127	26.400000
34.407431	-11.800000
37.008311	18.400000
39.604177	17.800000
42.201470	25.800000
44.798044	4.400000
47.389609	65.600000
49.982602	-13.200000
52.572734	12.400000
55.164294	2.800000
57.752994	37.600000
60.343122	-19.800000
62.928250	23.800000
65.514806	-20.200000
68.100647	16.800000
70.683635	-10.000000
73.268050	35.800000
75.845335	-6.400000
78.426187	10.600000
81.004190	9.600000
83.581483	2.600000
86.160202	7.800000
88.733940	17.200000
91.309104	-7.800000
93.881425	16.400000
96.453039	9.600000
99.021812	8.200000
101.592012	-0.600000
104.159373	45.600000
106.728161	-14.000000
109.294111	17.400000
111.857227	4.200000
114.423900	26.600000
116.981350	9.200000
119.544486	28.000000
122.102663	37.600000
124.664393	62.800000
127.221168	95.600000
129.779368	161.800000
132.332616	250.200000
134.885165	349.200000
137.441266	504.000000
139.992418	649.200000
142.542872	803.800000
145.092630	934.200000
147.639568	1029.400000
150.185810	1059.600000
152.733479	1083.000000
155.280451	1083.800000
157.822487	1136.000000
160.363830	1109.800000
162.904481	1070.800000
165.446556	1110.600000
167.985821	1075.200000
170.522276	1080.400000
173.058041	1048.800000
175.595231	1099.200000
178.131729	1000.400000
180.665422	1027.800000
183.196312	1009.400000
185.726513	1027.200000
188.258139	976.000000
190.786964	1041.000000
193.312991	999.200000
195.838331	1046.400000
198.365096	1008.000000
200.889065	1024.400000
203.412348	1000.000000
205.934947	1008.000000
208.454753	1037.800000
210.973876	1048.600000
213.492316	1010.200000
216.012180	1023.000000
218.525043	1044.000000
221.041437	1075.600000
223.557149	1044.800000
226.067972	1117.000000
228.580219	1117.200000
231.089683	1156.200000
233.598469	1118.200000
236.106577	1166.800000
238.616109	1140.400000
241.120760	1159.400000
243.624735	1092.000000
246.130134	1126.200000
248.630658	1111.000000
251.134705	1148.600000
253.631782	1093.600000
256.132381	1150.200000
258.630209	1104.200000
261.127364	1164.200000
263.623846	1136.800000
266.115466	1129.200000
268.610604	1131.200000
271.102977	1161.000000
273.594679	1178.400000
276.083618	1161.200000
278.573980	1154.000000
281.061581	1204.400000
283.546422	1185.400000
286.034777	1209.600000
288.516193	1212.200000
291.001124	1240.600000
293.481208	1239.200000
295.964805	1265.000000
298.443560	1334.600000
300.923737	1349.200000
303.401163	1355.000000
305.877925	1345.200000
308.354023	1278.800000
310.827373	1277.000000
313.300062	1236.200000
315.772088	1270.400000
318.243454	1267.600000
320.712076	1284.800000
323.180038	1242.000000
325.649423	1250.800000
328.113985	1148.200000
330.582050	1123.800000
333.045296	1113.600000
335.507885	1134.600000
337.969816	1135.600000
340.431091	1081.400000
342.889632	1086.800000
345.349595	1032.200000
347.806826	1054.200000
350.263402	1070.600000
352.719323	1015.400000
355.172516	1060.200000
357.627131	1031.800000
360.076944	1024.400000
362.530253	1009.800000
364.978763	945.400000
367.426623	957.200000
369.875904	955.800000
372.320392	971.600000
374.766302	975.200000
377.211563	943.000000
379.654105	981.800000
382.095999	920.000000
384.537245	943.200000
386.975776	913.000000
389.415729	891.400000
391.852968	926.400000
394.287495	904.400000
396.725510	891.600000
399.158748	896.400000
401.593408	877.800000
404.023294	893.600000
406.456667	874.600000
408.885268	893.000000
411.313229	875.800000
413.742610	912.800000
416.167227	868.200000
418.593264	843.800000
421.018662	841.800000
423.443419	851.800000
425.863417	824.000000
428.284837	869.400000
430.703560	845.000000
433.123704	841.200000
435.541153	816.200000
437.960022	802.800000
440.376198	771.800000
442.787627	788.000000
445.202532	740.600000
447.614747	730.000000
450.026328	737.200000
452.437275	726.200000
454.845536	659.600000
457.253165	673.400000
459.660161	682.400000
462.066525	697.800000
464.470208	651.600000
466.873260	682.000000
469.275682	679.800000
471.677474	680.600000
474.076588	669.200000
476.477122	687.400000
478.877027	684.000000
481.272209	743.000000
483.670858	719.000000
486.064787	739.800000
488.458090	787.800000
490.850767	809.200000
493.242819	806.800000
495.636290	896.800000
498.025048	1013.600000
500.411140	1171.200000
502.798652	1487.400000
505.185540	1929.800000
507.569765	2685.800000
509.955409	3827.200000
512.338390	5514.800000
514.718711	7367.600000
517.100451	8923.600000
519.479532	9045.000000
521.860032	8163.800000
524.237874	6696.800000
526.613061	5527.800000
528.987630	4483.400000
531.363618	3744.800000
533.736952	3299.600000
536.111705	2881.000000
538.481771	2592.000000
540.851222	2329.000000
543.222092	2167.200000
545.588280	1950.000000
547.955887	1868.400000
550.320848	1732.600000
552.685196	1709.800000
555.048932	1553.600000
557.414085	1510.400000
559.774566	1477.600000
562.136464	1434.400000
564.495723	1309.200000
566.852343	1312.000000
569.212409	1293.400000
571.565783	1252.800000
573.922602	1136.800000
576.276786	1154.600000
578.630361	1107.800000
580.983328	1129.800000
583.333664	1073.000000
585.685416	1037.600000
588.030492	991.400000
590.381032	972.600000
592.724899	942.800000
595.074226	960.400000
597.418906	939.400000
599.760961	952.400000
602.104433	894.400000
604.445281	918.000000
606.785528	914.200000
609.123154	950.000000
611.464215	979.600000
613.800639	1021.000000
616.138479	1047.000000
618.473701	1065.000000
620.806308	984.000000
623.140332	970.600000
625.471741	913.000000
627.802552	900.600000
630.132765	884.400000
632.462380	862.000000
634.787373	842.600000
637.117807	841.200000
639.443619	872.600000
641.766825	850.200000
644.091447	823.800000
646.413463	819.600000
648.734885	841.400000
651.053704	797.400000
653.373939	818.600000
655.693581	807.600000
658.010622	780.000000
660.327072	870.600000
662.640923	816.600000
664.956189	803.400000
667.268859	802.400000
669.582944	810.400000
671.892430	809.600000
674.203330	816.200000
676.511638	799.800000
678.819358	828.000000
681.128493	807.200000
683.433035	779.200000
685.736991	734.600000
688.040360	713.800000
690.345144	700.800000
692.645342	704.200000
694.946955	700.000000
697.247982	703.200000
699.544428	684.600000
701.842288	663.800000
704.139565	647.200000
706.436259	667.600000
708.728377	690.000000
711.023906	665.800000
713.314862	630.400000
715.607232	658.400000
717.897026	629.200000
720.186241	655.200000
722.474875	612.400000
724.760938	634.400000
727.048414	644.000000
729.333320	656.200000
731.617647	607.600000
733.899407	666.800000
736.182580	582.000000
738.465176	609.200000
740.743216	585.000000
743.022670	615.000000
745.301549	588.400000
747.579852	608.600000
749.853606	604.200000
752.128774	624.000000
754.403368	567.000000
756.675403	635.200000
758.948851	612.400000
761.219741	624.000000
763.488074	574.200000
765.757822	634.600000
768.025014	598.800000
770.291636	628.600000
772.557689	615.800000
774.821190	628.200000
777.086103	624.600000
779.350448	626.400000
781.610262	608.200000
783.871490	623.000000
786.132150	614.000000
788.390263	600.200000
790.645832	603.600000
792.904792	644.000000
795.157253	643.000000
797.415081	619.400000
799.668390	605.800000
801.919158	662.200000
804.171339	601.400000
806.420982	653.200000
808.672036	636.200000
810.918579	605.200000
813.166535	626.000000
815.411955	644.000000
817.658787	619.800000
819.905058	639.800000
822.146825	603.000000
824.391974	621.200000
826.630651	594.600000
828.872711	649.200000
831.110272	599.000000
833.349244	600.600000
835.585690	579.400000
837.823548	619.400000
840.058880	610.000000
842.291688	607.000000
844.525908	586.200000
846.757606	600.400000
848.988749	580.800000
851.219337	589.000000
853.449371	578.600000
855.678850	628.400000
857.903849	567.800000
860.132221	586.400000
862.356115	566.600000
864.581419	557.200000
866.802248	562.400000
869.026449	566.400000
871.246177	530.400000
873.467316	582.400000
875.687904	575.400000
877.905983	578.800000
880.125471	531.600000
882.340493	561.800000
884.554967	561.600000
886.768894	557.800000
888.982273	545.200000
891.195106	571.800000
893.407391	533.000000
895.617175	548.600000
897.826413	560.800000
900.035105	571.800000
902.241299	548.400000
904.448902	560.600000
906.654008	583.000000
908.858570	590.800000
911.060636	567.600000
913.264112	645.200000
915.465095	625.800000
917.665535	660.000000
919.867384	638.200000
922.062841	665.400000
924.261658	683.200000
926.456037	797.400000
928.653773	809.800000
930.847073	919.000000
933.041781	1001.000000
935.234004	1090.400000
937.425689	1215.600000
939.616836	1275.200000
941.805500	1273.400000
943.993627	1309.600000
946.179274	1245.200000
948.368273	1273.400000
950.552849	1263.600000
952.736890	1270.400000
954.924281	1277.800000
957.103369	1312.200000
959.285806	1300.000000
961.467710	1366.400000
963.647140	1299.200000
965.824097	1335.800000
968.002462	1384.000000
970.182233	1352.200000
972.355656	1376.200000
974.532425	1409.000000
976.704788	1381.800000
978.878557	1353.600000
981.047924	1279.000000
983.220634	1288.800000
985.390878	1210.000000
987.560594	1078.400000
989.729781	998.000000
991.894571	901.800000
994.062702	883.400000
996.226439	836.600000
998.391582	802.600000
1000.554267	775.800000
1002.716426	732.600000
1004.876127	755.200000
1007.035305	714.600000
1009.195889	742.400000
1011.354018	671.200000
1013.511623	663.600000
1015.668705	650.600000
1017.825264	632.400000
1019.977443	638.600000
1022.131029	640.800000
1024.284092	622.600000
1026.434708	602.000000
1028.586729	569.400000
1030.734377	602.400000
1032.885357	591.800000
1035.031966	593.200000
1037.178057	549.000000
1039.323629	570.800000
1041.470605	561.600000
1043.611294	580.800000
1045.755311	545.400000
1047.896888	589.400000
1050.037949	561.400000
1052.180414	570.000000
1054.316600	551.400000
1056.456112	569.600000
1058.591268	546.600000
1060.729749	578.400000
1062.863877	548.000000
1064.997491	577.400000
1067.132509	509.200000
1069.263178	572.000000
1071.395252	519.200000
1073.524897	574.800000
1075.654030	530.800000
1077.782652	546.000000
1079.910762	528.000000
1082.036446	540.800000
1084.161620	521.600000
1086.288197	543.600000
1088.410438	537.800000
1090.534083	523.600000
1092.653393	521.600000
1094.777932	516.400000
1096.896227	512.800000
1099.015925	542.000000
1101.133205	496.600000
1103.249979	542.000000
1105.366246	521.600000
1107.480098	522.800000
1109.595353	499.400000
1111.706286	522.200000
1113.820530	531.000000
1115.930455	545.000000
1118.041782	516.000000
1120.152606	533.800000
1122.259113	517.400000
1124.368929	495.000000
1126.474431	480.600000
1128.581337	544.600000
1130.682026	473.800000
1132.787928	525.800000
1134.889521	508.400000
1136.992517	483.400000
1139.095012	471.800000
1141.191301	507.600000
1143.292796	466.600000
1145.389989	505.000000
1147.486683	488.400000
1149.582880	484.600000
1151.678578	482.200000
1153.773779	486.000000
1155.866583	471.600000
1157.960789	502.800000
1160.048804	453.600000
1162.142017	490.600000
1164.229042	447.600000
1166.319367	476.600000
1168.405403	475.800000
1170.494737	462.800000
1172.577890	465.800000
1174.662446	493.000000
1176.748402	502.200000
1178.830077	499.400000
1180.913154	465.200000
1182.993845	497.800000
1185.074044	462.600000
1187.153753	525.800000
1189.232969	483.800000
1191.309804	483.400000
1193.384258	455.800000
1195.462004	476.600000
1197.535479	457.000000
1199.610356	473.400000
1201.680965	454.800000
1203.752975	460.800000
1205.822609	438.200000
1207.893644	493.200000
1209.964191	431.000000
1212.030477	461.600000
1214.098164	433.400000
1216.163479	465.800000
1218.230194	454.600000
1220.292653	486.200000
1222.358397	482.800000
1224.419888	491.800000
1226.482778	480.400000
1228.543301	451.800000
1230.603341	463.800000
1232.662897	466.400000
1234.720089	482.200000
1236.776798	484.600000
1238.831145	472.200000
1240.888772	479.800000
1242.944037	460.200000
1244.995061	486.600000
1247.047485	457.200000
1249.099430	476.000000
1251.149015	451.800000
1253.198123	485.800000
1255.246751	464.000000
1257.294901	452.000000
1259.342573	458.400000
1261.386014	498.200000
1263.432730	482.400000
1265.477094	487.000000
1267.520980	460.800000
1269.562516	487.000000
1271.601702	492.400000
1273.644160	474.400000
1275.682397	475.000000
1277.722031	479.800000
1279.761191	479.000000
1281.796133	469.000000
1283.832473	451.200000
1285.866468	478.200000
1287.901862	475.400000
1289.933042	457.400000
1291.965621	476.800000
1293.997727	497.200000
1296.027493	489.000000
1298.058657	470.000000
1300.085613	470.200000
1302.113967	483.200000
1304.138117	455.600000
1306.165531	485.600000
1308.188744	449.400000
1310.213353	463.200000
1312.235629	471.200000
1314.259302	479.600000
1316.280642	446.000000
1318.301514	447.400000
1320.321920	435.000000
1322.338131	467.600000
1324.355741	422.000000
1326.371022	460.200000
1328.389562	449.200000
1330.403912	454.600000
1332.415937	507.000000
1334.431220	488.400000
1336.442317	484.800000
1338.454810	512.000000
1340.463121	470.200000
1342.474688	508.200000
1344.480216	513.600000
1346.488998	498.000000
1348.493604	513.800000
1350.501463	522.000000
1352.508859	488.400000
1354.510225	542.600000
1356.512988	526.200000
1358.515291	533.600000
1360.517133	495.400000
1362.518517	497.200000
1364.517586	513.600000
1366.516197	528.200000
1368.514350	493.200000
1370.512045	493.400000
1372.505576	466.600000
1374.500504	503.200000
1376.494975	495.000000
1378.488989	493.400000
1380.480696	480.400000
1382.471947	498.000000
1384.460893	451.600000
1386.451234	490.800000
1388.441120	475.400000
1390.428703	492.800000
1392.415832	453.800000
1394.400659	499.000000
1396.386881	453.800000
1398.370802	460.200000
1400.354271	454.400000
1402.337288	471.000000
1404.318007	453.000000
1406.300120	518.800000
1408.279936	456.200000
1410.259302	478.600000
1412.234529	457.000000
1414.212994	466.000000
1416.189166	469.000000
1418.164888	437.800000
1420.140161	449.800000
1422.113143	484.200000
1424.085678	458.200000
1426.057764	458.000000
1428.029402	435.600000
1429.996913	475.800000
1431.969497	463.600000
1433.934275	454.200000
1435.904126	462.000000
1437.869852	471.000000
1439.836972	460.000000
1441.801808	507.400000
1443.762524	470.000000
1445.728308	490.600000
1447.688137	467.800000
1449.649359	515.000000
1451.611974	467.800000
1453.570474	494.600000
1455.528532	465.200000
1457.486147	510.400000
1459.443321	496.200000
1461.398219	501.800000
1463.354509	473.200000
1465.308525	492.600000
1467.262101	473.400000
1469.213404	502.000000
1471.166099	496.800000
1473.116523	474.200000
1475.066508	473.800000
1477.016053	510.400000
1478.963330	449.600000
1480.908340	474.400000
1482.854742	459.200000
1484.800706	461.200000
1486.746232	461.200000
1488.689494	479.200000
1490.632319	482.200000
1492.572881	486.800000
1494.514834	476.600000
1496.454526	480.600000
1498.393782	488.000000
1500.332604	485.200000
1502.269166	495.000000
1504.207118	519.200000
1506.142813	502.600000
1508.078074	515.400000
1510.011078	485.000000
1511.943650	534.200000
1513.875790	498.800000
1515.807498	511.800000
1517.736952	518.000000
1519.667797	501.400000
1521.598211	542.800000
1523.524552	535.200000
1525.452283	529.800000
1527.377764	523.800000
1529.302816	532.600000
1531.227439	558.200000
1533.151633	517.600000
1535.073580	575.000000
1536.996916	536.000000
1538.918007	598.600000
1540.836853	569.400000
1542.757089	602.000000
1544.675081	619.000000
1546.592647	621.000000
1548.507971	662.400000
1550.424685	668.600000
1552.337344	681.200000
1554.253207	759.800000
1556.166831	737.600000
1558.078216	819.800000
1559.990990	848.800000
1561.899715	904.800000
1563.809830	1009.200000
1565.719521	1101.400000
1567.628788	1247.800000
1569.535822	1418.000000
1571.440623	1572.800000
1573.346813	1756.200000
1575.250771	1935.200000
1577.154309	2105.400000
1579.057425	2262.400000
1580.958313	2345.200000
1582.860588	2315.800000
1584.760636	2249.800000
1586.662072	2161.000000
1588.559473	2017.400000
1590.456457	1942.600000
1592.353022	1712.600000
1594.250974	1499.200000
1596.143092	1344.400000
1598.038403	1213.600000
1599.933297	1108.400000
1601.825969	962.800000
1603.718225	850.600000
1605.608261	795.200000
1607.497881	721.600000
1609.387086	682.400000
1611.275875	662.600000
1613.162448	635.600000
1615.050407	634.200000
1616.934351	595.400000
1618.819681	584.400000
1620.704597	579.200000
1622.587301	541.800000
1624.471390	499.800000
1626.351469	508.000000
1628.232934	487.600000
1630.112189	475.800000
1631.992830	437.400000
1633.867667	439.800000
1635.747486	424.000000
1637.623299	430.400000
1639.498703	417.200000
1641.375492	437.000000
1643.246484	440.600000
1645.120658	443.600000
1646.990834	393.000000
1648.864190	423.400000
1650.735343	393.200000
1652.604294	404.800000
1654.474631	369.400000
1656.340974	381.600000
1658.208703	374.200000
1660.074234	383.000000
1661.941149	367.600000
1663.804076	363.800000
1665.668388	385.600000
1667.530505	390.600000
1669.392216	348.800000
1671.255312	381.800000
1673.116214	344.800000
1674.974922	378.800000
1676.833227	334.800000
1678.692917	368.400000
1680.546840	341.200000
1682.403935	350.000000
1684.260628	324.000000
1686.113345	354.200000
1687.969233	318.200000
1689.821147	340.600000
1691.672659	319.400000
1693.523772	327.200000
1695.374483	311.400000
1697.224794	337.400000
1699.072921	366.000000
1700.922431	330.600000
1702.766193	310.600000
1704.614905	345.000000
1706.457870	312.800000
1708.304001	338.000000
1710.146171	297.200000
1711.991505	343.600000
1713.831099	298.800000
1715.672077	339.800000
1717.514438	325.600000
1719.352843	339.400000
1721.192631	309.000000
1723.030244	318.600000
1724.867461	302.600000
1726.702505	314.000000
1728.538932	289.600000
1730.373187	330.000000
1732.207048	315.800000
1734.040514	299.600000
1735.870034	323.800000
1737.702713	320.600000
1739.531448	299.800000
1741.363341	322.600000
1743.191291	295.800000
1745.018849	327.600000
1746.846016	298.000000
1748.672790	329.200000
1750.499174	292.400000
1752.321621	317.400000
1754.147222	277.000000
1755.968889	328.000000
1757.791938	322.200000
1759.612826	295.200000
1761.433324	304.200000
1763.255204	312.400000
1765.071384	309.400000
1766.890716	321.200000
1768.706121	290.000000
1770.524676	298.400000
1772.339307	310.000000
1774.153550	340.600000
1775.967407	309.600000
1777.780877	290.600000
1779.592193	306.400000
1781.404891	310.200000
1783.217202	300.200000
1785.025596	285.600000
1786.835371	293.200000
1788.641230	290.800000
1790.450236	301.800000
1792.255328	296.800000
1794.061800	318.800000
1795.867889	308.600000
1797.670068	295.000000
1799.475390	305.600000
1801.276804	297.600000
1803.079598	306.000000
1804.878487	278.800000
1806.678755	337.200000
1808.478643	291.400000
1810.276388	310.000000
1812.073753	317.000000
1813.870737	314.000000
1815.667341	294.600000
1817.461806	316.800000
1819.257651	294.000000
1821.047840	299.600000
1822.842926	309.400000
1824.632359	290.200000
1826.424930	314.000000
1828.215365	294.400000
1830.003665	294.400000
1831.795101	300.200000
1833.580891	306.600000
1835.368061	304.600000
1837.153099	310.000000
1838.941271	310.200000
1840.725557	302.000000
1842.507714	338.000000
1844.291249	289.000000
1846.072657	308.600000
1847.855442	285.600000
1849.634348	300.600000
1851.414632	298.800000
1853.192791	329.200000
1854.972327	291.200000
1856.749739	313.200000
1858.525027	299.000000
1860.301694	314.000000
1862.076238	305.600000
1863.852159	324.800000
1865.622461	305.800000
1867.395890	321.600000
1869.167199	306.000000
1870.938137	328.000000
1872.710452	294.800000
1874.477155	310.800000
1876.246982	307.200000
1878.012946	318.200000
1879.782034	302.800000
1881.547260	310.200000
1883.312118	325.800000
1885.078352	316.000000
1886.840728	311.800000
1888.602737	300.200000
1890.364379	299.200000
1892.125653	308.600000
1893.886561	296.800000
1895.647101	302.600000
1897.405532	299.600000
1899.163598	277.800000
1900.919556	265.800000
1902.676890	288.400000
1904.433858	305.200000
1906.188721	304.200000
1907.941478	289.400000
1909.693872	271.600000
1911.447641	262.200000
1913.199307	308.600000
1914.948871	273.800000
1916.699811	294.800000
1918.450387	249.400000
1920.197125	282.400000
1921.945238	302.200000
1923.691252	297.400000
1925.438642	294.200000
1927.183933	297.800000
1928.927127	281.800000
1930.671697	275.800000
1932.414170	272.000000
1934.156283	308.800000
1935.898036	276.800000
1937.639430	292.800000
1939.378730	281.800000
1941.117671	305.000000
1942.856253	285.600000
1944.592743	289.800000
1946.328876	297.800000
1948.066383	305.800000
1949.800069	260.200000
1951.535128	273.800000
1953.268100	276.400000
1955.000715	295.200000
1956.732973	268.200000
1958.464875	266.400000
1960.194691	294.800000
1961.922423	294.200000
1963.651528	252.800000
1965.380279	260.200000
1967.106946	265.400000
1968.833259	301.400000
1970.560945	281.200000
1972.283095	300.400000
1974.008346	258.000000
1975.729791	294.200000
1977.454335	276.800000
1979.176800	281.600000
1980.895461	280.200000
1982.617221	327.800000
1984.335179	269.600000
1986.054511	290.800000
1987.770042	298.200000
1989.490395	319.600000
1991.206948	286.800000
1992.919706	302.400000
1994.635559	277.800000
1996.349339	301.000000
1998.062770	275.800000
1999.774130	303.400000
2001.486863	289.400000
2003.195804	277.600000
2004.907839	254.200000
2006.614364	300.400000
2008.323982	283.200000
2010.031532	296.400000
2011.738735	260.000000
2013.443872	290.000000
2015.148662	263.000000
2016.854824	386.200000
2018.557204	267.800000
2020.260956	293.200000
2021.962645	281.800000
2023.663988	290.000000
2025.364986	268.600000
2027.063924	317.000000
2028.764233	305.400000
2030.460766	342.400000
2032.158671	282.400000
2033.854518	285.200000
2035.553450	248.800000
2037.246895	292.200000
2038.941713	259.400000
2040.636187	268.400000
2042.326893	299.000000
2044.020683	281.600000
2045.710706	277.000000
2047.402100	290.800000
2049.091441	280.600000
2050.782152	279.400000
2052.469101	268.800000
2054.155709	264.400000
2055.843688	272.800000
2057.527907	289.200000
2059.213496	244.600000
2060.898746	283.600000
2062.581948	235.600000
2064.266520	296.600000
2065.945628	252.800000
2067.629522	282.800000
2069.307956	252.800000
2070.989467	279.600000
2072.667226	265.400000
2074.344649	277.600000
2076.023441	258.800000
2077.700190	281.400000
2079.374898	269.000000
2081.050975	276.400000
2082.725012	280.000000
2084.398713	252.000000
2086.072079	278.400000
2087.743407	271.400000
2089.414400	250.200000
2091.085059	292.000000
2092.755384	269.200000
2094.425374	279.000000
2096.093329	290.800000
2097.760951	262.600000
2099.426539	250.600000
2101.093495	271.400000
2102.758418	258.600000
2104.423008	281.800000
2106.085567	242.800000
2107.749495	249.800000
2109.411391	264.800000
2111.072956	270.600000
2112.734191	264.200000
2114.393396	289.400000
2116.052272	253.600000
2117.710817	273.000000
2119.369033	261.200000
2121.023525	310.400000
2122.681083	256.200000
2124.338310	280.400000
2125.991817	269.600000
2127.646691	265.000000
2129.297846	256.000000
2130.952064	260.200000
2132.602564	263.000000
2134.254432	312.000000
2135.900891	234.200000
2137.552104	261.600000
2139.199604	233.000000
2140.848472	266.600000
2142.495320	258.000000
2144.141842	280.200000
2145.788039	242.800000
2147.430528	284.800000
2149.076075	266.600000
2150.717915	284.000000
2152.362812	270.400000
2154.004004	270.600000
2155.644872	275.600000
2157.285417	302.600000
2158.923949	234.600000
2160.563847	259.800000
2162.200045	278.600000
2163.837609	254.200000
2165.474851	271.800000
2167.110083	250.400000
2168.744993	278.200000
2170.379582	283.000000
2172.013850	249.400000
2173.644424	286.400000
2175.278049	260.800000
2176.907983	277.400000
2178.539282	259.400000
2180.168577	274.600000
2181.797551	290.400000
2183.426207	285.800000
2185.054543	272.200000
2186.680876	279.800000
2188.306891	251.400000
2189.930905	265.800000
2191.556284	213.800000
2193.179662	252.800000
2194.804405	253.000000
2196.425466	276.400000
2198.046212	243.400000
2199.668321	296.200000
2201.288433	246.200000
2202.906549	274.400000
2204.524349	245.000000
2206.141833	264.600000
2207.759002	258.400000
2209.375856	251.200000
2210.992395	273.200000
2212.606940	283.400000
2214.219493	228.400000
2215.833411	272.800000
2217.445336	261.600000
2219.058626	272.600000
2220.669924	260.200000
2222.279233	262.000000
2223.889906	259.400000
2225.498590	279.400000
2227.106962	260.200000
2228.713346	253.600000
2230.321094	273.400000
2231.926855	279.600000
2233.532305	246.800000
2235.135771	248.600000
2236.740599	255.600000
2238.343443	249.600000
2239.944304	256.200000
2241.546528	263.800000
2243.146769	277.800000
2244.748373	267.600000
2246.346325	238.400000
2247.945639	290.400000
2249.542973	229.800000
2251.139999	255.800000
2252.738386	260.400000
2254.333125	263.200000
2255.925888	276.400000
2257.520012	296.600000
2259.115498	262.200000
2260.707340	285.800000
2262.298875	255.600000
2263.891771	269.200000
2265.479358	244.600000
2267.071642	289.200000
2268.658618	264.600000
2270.248623	275.400000
2271.833323	253.000000
2273.422717	261.000000
2275.006808	250.600000
2276.592261	266.400000
2278.175745	277.200000
2279.762254	254.400000
2281.345130	256.400000
2282.927702	240.400000
2284.509972	224.400000
2286.088611	269.600000
2287.670274	233.000000
2289.248309	256.800000
2290.829368	248.400000
2292.406799	243.400000
2293.982267	238.400000
2295.560757	294.400000
2297.135622	237.200000
2298.710187	236.800000
2300.284452	225.800000
2301.858416	243.000000
2303.432080	233.600000
2305.005443	270.200000
2306.575188	231.200000
2308.144634	243.800000
2309.717099	243.000000
2311.284288	266.000000
2312.854496	253.600000
2314.421089	261.600000
2315.989042	233.400000
2317.555040	230.200000
2319.120740	227.800000
2320.686142	251.800000
2322.249591	237.200000
2323.814398	255.000000
2325.375598	257.800000
2326.939812	271.200000
2328.498765	303.400000
2330.060731	287.000000
2331.620747	259.800000
2333.180467	262.200000
2334.738238	252.000000
2336.295715	240.000000
2337.852896	258.200000
2339.408131	227.400000
2340.963071	242.400000
2342.517718	231.600000
2344.072071	262.600000
2345.626130	290.600000
2347.179896	239.600000
2348.731717	254.400000
2350.281595	222.000000
2351.834481	277.200000
2353.382125	254.000000
2354.932776	256.600000
2356.479837	210.800000
2358.028255	269.000000
2359.576381	240.600000
2361.120920	263.400000
2362.666816	235.800000
2364.210773	259.400000
2365.756088	227.200000
2367.297818	264.600000
2368.840906	223.200000
2370.382057	247.200000
2371.922919	239.800000
2373.463492	263.200000
2375.003776	237.800000
2376.543771	250.000000
2378.080187	231.400000
2379.619605	254.800000
2381.155446	240.600000
2382.692643	257.600000
2384.226266	229.600000
2385.762888	229.800000
2387.297579	253.800000
2388.830341	254.800000
2390.362817	241.000000
2391.893364	240.400000
2393.426909	259.800000
2394.955243	260.400000
2396.484933	241.800000
2398.014338	266.200000
2399.543458	239.600000
2401.072292	259.800000
2402.595922	239.200000
2404.124187	276.200000
2405.647249	265.000000
2407.174946	275.400000
2408.695802	278.400000
2410.221292	261.600000
2411.743221	256.400000
2413.266506	280.800000
2414.787870	277.200000
2416.307314	292.800000
2417.828113	269.800000
2419.346993	257.800000
2420.865591	269.600000
2422.382272	283.800000
2423.900308	251.000000
2425.418062	304.400000
2426.932264	293.200000
2428.446186	316.400000
2429.959829	295.600000
2431.474825	286.200000
2432.986273	286.600000
2434.499076	321.000000
2436.009966	319.200000
2437.520576	337.600000
2439.029275	307.800000
2440.540961	359.600000
2442.049103	326.800000
2443.556966	351.200000
2445.064552	332.800000
2446.568598	366.200000
2448.075628	358.200000
2449.580750	373.400000
2451.085595	363.600000
2452.588533	394.000000
2454.091194	346.600000
2455.593579	365.000000
2457.094059	350.200000
2458.595892	390.200000
2460.095821	328.000000
2461.595474	348.400000
2463.094852	333.400000
2464.592327	376.000000
2466.087900	318.800000
2467.586453	329.600000
2469.081477	296.400000
2470.577855	328.400000
2472.070706	277.400000
2473.564909	335.400000
2475.058839	307.400000
2476.549246	307.600000
2478.042630	328.200000
2479.534115	306.000000
2481.023704	302.000000
2482.513021	285.600000
2484.000443	306.400000
2485.490840	289.600000
2486.977718	258.600000
2488.465948	296.800000
2489.950662	280.000000
2491.435105	288.600000
2492.920900	264.400000
2494.404802	285.600000
2495.890056	259.000000
2497.370176	279.400000
2498.853268	242.600000
2500.334470	241.600000
2501.815403	247.800000
2503.294447	263.000000
2504.773223	237.600000
2506.251730	250.000000
2507.729968	262.000000
2509.207938	258.000000
2510.682404	221.400000
2512.159838	262.400000
2513.633769	229.000000
2515.109051	256.800000
2516.584065	226.200000
2518.055578	258.200000
2519.528442	234.800000
2520.999422	259.400000
2522.471753	256.200000
2523.938971	243.000000
2525.409155	243.000000
2526.877457	249.000000
2528.345495	247.000000
2529.813268	258.400000
2531.280776	234.400000
2532.748019	262.000000
2534.211771	239.800000
2535.676872	252.600000
2537.140096	241.000000
2538.604669	252.000000
2540.065753	232.000000
2541.528188	251.800000
2542.990359	248.400000
2544.449043	240.600000
2545.912300	246.000000
2547.370460	271.600000
2548.829969	244.800000
2550.284385	293.400000
2551.743371	270.200000
2553.200484	266.600000
2554.655727	263.000000
2556.110709	273.600000
2557.563821	256.600000
2559.018282	260.600000
2560.470874	265.000000
2561.923206	247.600000
2563.373670	240.800000
2564.827090	273.600000
2566.275428	242.400000
2567.726722	244.800000
2569.176149	279.600000
2570.622105	277.200000
2572.071015	242.800000
2573.516454	297.400000
2574.963242	266.600000
2576.408166	275.200000
2577.852833	280.000000
2579.298847	270.200000
2580.741394	288.800000
2582.185289	306.000000
2583.625719	288.000000
2585.067497	289.200000
2586.507414	269.800000
2587.948680	302.800000
2589.386483	273.000000
2590.827236	303.800000
2592.262926	288.000000
2593.701566	292.400000
2595.138349	292.800000
2596.573275	300.800000
2598.011150	284.200000
2599.443967	301.800000
2600.878131	283.000000
2602.310440	297.000000
2603.744096	303.000000
2605.175899	314.400000
2606.607449	277.200000
2608.038745	324.600000
2609.468190	322.000000
2610.897382	319.400000
2612.324723	321.400000
2613.753411	347.400000
2615.181846	322.000000
2616.606835	374.200000
2618.033169	361.200000
2619.457655	375.800000
2620.883487	371.600000
2622.305875	401.800000
2623.729609	404.600000
2625.151497	422.400000
2626.573134	437.200000
2627.992926	439.400000
2629.414064	436.400000
2630.834952	462.400000
2632.252402	450.000000
2633.672791	507.800000
2635.089743	475.000000
2636.506447	565.200000
2637.922902	586.800000
2639.339109	617.800000
2640.755067	591.800000
2642.169185	670.400000
2643.583056	644.600000
2644.995087	708.800000
2646.408463	715.200000
2647.818409	770.600000
2649.231291	790.400000
2650.640744	854.400000
2652.049951	898.400000
2653.457322	954.000000
2654.867627	995.400000
2656.276096	1071.400000
2657.682730	1106.400000
2659.089119	1191.000000
2660.493674	1269.400000
2661.899573	1326.600000
2663.303639	1426.000000
2664.707461	1484.800000
2666.111038	1602.000000
2667.512783	1650.600000
2668.915872	1777.600000
2670.315544	1883.000000
2671.716559	1882.000000
2673.114157	2000.600000
2674.514686	2095.000000
2675.911800	2164.800000
2677.310257	2187.000000
2678.706886	2181.800000
2680.103274	2179.800000
2681.499419	2159.800000
2682.893738	2110.400000
2684.289400	2156.200000
2685.681652	2095.200000
2687.075248	2052.000000
2688.467019	2003.800000
2689.860132	1932.600000
2691.251422	1867.400000
2692.640889	1850.400000
2694.030117	1704.800000
2695.419104	1709.200000
2696.809434	1614.400000
2698.194779	1578.800000
2699.583049	1449.800000
2700.969497	1399.600000
2702.355708	1377.200000
2703.741679	1298.400000
2705.124252	1209.800000
2706.508166	1152.600000
2707.891843	1076.200000
2709.275282	1050.600000
2710.655325	930.800000
2712.036710	929.800000
2713.416279	864.400000
2714.797190	823.400000
2716.176286	791.200000
2717.553567	736.600000
2718.932190	685.000000
2720.309000	674.000000
2721.685574	577.200000
2723.061912	566.400000
2724.436438	578.800000
2725.812305	593.200000
2727.184785	493.800000
2728.560182	526.200000
2729.930617	490.000000
2731.302394	459.400000
2732.673937	443.800000
2734.043671	443.200000
2735.414745	406.000000
2736.784012	429.600000
2738.153045	384.400000
2739.520271	390.200000
2740.887265	348.800000
2742.254026	341.000000
2743.620554	347.200000
2744.985277	320.000000
2746.349769	335.200000
2747.714028	347.600000
2749.078056	315.000000
2750.441851	340.200000
2751.802273	300.000000
2753.165606	302.000000
2754.523996	298.200000
2755.885296	296.600000
2757.243225	291.200000
2758.604064	283.200000
2759.963102	270.200000
2761.318772	250.600000
2762.677350	257.000000
2764.032562	271.800000
2765.387544	254.400000
2766.740729	281.600000
2768.096821	278.200000
2769.449549	353.600000
2770.802048	253.400000
2772.154319	287.200000
2773.507929	247.600000
2774.858177	240.600000
2776.206632	229.600000
2777.557991	272.600000
2778.905991	245.200000
2780.255330	234.800000
2781.602876	259.400000
2782.950195	266.400000
2784.297288	229.400000
2785.642590	248.400000
2786.987666	231.000000
2788.332516	262.400000
2789.677140	203.400000
2791.018411	237.600000
2792.361021	223.600000
2793.703406	272.200000
2795.045565	250.400000
2796.384375	254.800000
2797.726085	245.400000
2799.064446	252.600000
2800.404145	244.800000
2801.742058	256.000000
2803.078187	233.400000
2804.414093	231.000000
2805.751335	243.800000
2807.086794	234.400000
2808.422030	229.600000
2809.755484	275.000000
2811.090274	205.400000
2812.421723	263.000000
2813.756068	223.200000
2815.085515	238.800000
2816.416299	231.600000
2817.746861	221.200000
2819.075644	216.400000
2820.405764	234.800000
2821.734104	217.400000
2823.062224	234.200000
2824.388567	201.800000
2825.716245	204.200000
2827.040591	209.000000
2828.366272	215.200000
2829.690179	206.600000
2831.013865	218.800000
2832.338887	215.800000
2833.660580	223.200000
2834.982053	212.000000
2836.303308	236.800000
2837.624344	196.000000
2838.943608	198.600000
2840.264207	210.000000
2841.583034	218.000000
2842.901643	214.000000
2844.218482	191.600000
2845.535103	209.600000
2846.851506	185.400000
2848.166141	194.200000
2849.482110	213.800000
2850.794759	202.400000
2852.108744	225.200000
2853.422512	201.200000
2854.736063	209.400000
2856.047847	155.000000
2857.357866	205.200000
2858.669219	215.000000
2859.977256	209.200000
2861.286629	188.800000
2862.595786	222.400000
2863.904728	192.600000
2865.211907	206.800000
2866.517322	191.400000
2867.824072	198.000000
2869.129059	190.200000
2870.433833	215.400000
2871.736845	220.000000
2873.042739	189.000000
2874.343777	204.200000
2875.646150	207.600000
2876.946763	186.400000
2878.248710	202.400000
2879.550444	198.000000
2880.848874	209.600000
2882.148637	178.800000
2883.446643	192.400000
2884.744437	175.200000
2886.040474	198.600000
2887.337845	189.400000
2888.633460	176.000000
2889.928865	163.800000
2891.224058	212.800000
2892.515953	182.800000
2893.810725	203.800000
2895.102200	206.800000
2896.395009	196.400000
2897.687607	191.600000
2898.976910	193.000000
2900.267546	187.400000
2901.556431	184.200000
2902.846649	189.800000
2904.133575	189.000000
2905.421833	184.400000
2906.708342	188.400000
2907.994642	178.600000
2909.280734	219.000000
2910.565078	176.600000
2911.852294	193.000000
2913.134683	203.400000
2914.418404	194.000000
2915.700378	210.800000
2916.982146	199.000000
2918.262168	216.600000
2919.545060	203.200000
2920.826207	166.600000
2922.104072	189.000000
2923.384806	191.800000
2924.662259	191.400000
2925.939507	174.400000
2927.215012	204.400000
2928.493385	176.400000
2929.766943	225.200000
2931.043369	184.200000
2932.318054	179.400000
2933.590999	183.200000
2934.865274	181.200000
2936.137810	170.600000
2937.410142	203.600000
2938.679201	182.800000
2939.951125	173.000000
2941.221310	172.200000
2942.491293	181.200000
2943.761072	160.400000
2945.029114	169.800000
2946.295421	155.200000
2947.561525	180.200000
2948.828960	165.800000
2950.094659	171.800000
2951.360156	178.800000
2952.625451	195.800000
2953.887482	182.800000
2955.150842	166.400000
2956.414001	172.000000
2957.675427	170.600000
2958.938183	172.400000
2960.199208	178.400000
2961.458502	184.600000
2962.717595	176.800000
2963.976488	168.200000
2965.235181	169.000000
2966.493674	164.600000
2967.750438	181.000000
2969.007002	151.200000
2970.261839	186.600000
2971.518005	177.600000
2972.770915	171.000000
2974.025155	157.400000
2975.279196	168.800000
2976.531511	155.400000
2977.783628	166.800000
2979.034020	152.800000
2980.287267	183.800000
2981.535737	152.000000
2982.787061	170.200000
2984.035137	169.600000
2985.283015	170.400000
2986.530696	172.600000
2987.778181	188.200000
2989.023944	162.200000
2990.269510	200.200000
2991.516405	153.200000
2992.760054	181.800000
2994.005032	143.600000
2995.246767	181.800000
2996.491353	142.800000
2997.734220	203.000000
2998.973845	174.000000
3000.216322	173.600000
3001.455558	164.600000
3002.696122	175.800000
3003.934969	187.400000
3005.173622	166.400000
3006.410559	141.400000
3007.648823	172.200000
3008.885373	145.400000
3010.121729	182.000000
3011.357891	154.800000
3012.592339	171.000000
3013.826594	141.400000
3015.060656	173.600000
3016.293006	147.600000
3017.523644	168.200000
3018.757128	159.200000
3019.988901	160.200000
3021.218962	155.600000
3022.448832	171.600000
3023.676992	163.200000
3024.906479	185.600000
3026.134256	158.800000
3027.361842	169.000000
3028.590754	145.400000
3029.814924	148.000000
3031.041937	155.200000
3032.265727	155.600000
3033.490842	171.000000
3034.714251	157.800000
3035.937471	175.200000
3037.158985	169.200000
3038.383340	154.800000
3039.602960	158.200000
3040.823906	156.800000
3042.044662	169.800000
3043.263715	139.600000
3044.484094	178.600000
3045.701256	162.200000
3046.919743	177.200000
3048.136529	145.600000
3049.353126	140.200000
3050.569536	144.000000
3051.782732	151.000000
3052.998766	133.800000
3054.211588	160.000000
3055.427247	118.400000
3056.638183	171.000000
3057.850445	165.200000
3059.062519	168.000000
3060.274407	156.400000
3061.484597	152.000000
3062.694602	115.400000
3063.904420	156.800000
3065.112542	152.000000
3066.320478	150.800000
3067.526720	115.400000
3068.734286	154.000000
3069.940157	156.400000
3071.145843	158.800000
3072.351344	114.600000
3073.555153	143.000000
3074.760285	122.400000
3075.963724	136.200000
3077.165471	143.000000
3078.367035	138.800000
3079.568415	134.200000
3080.769611	140.200000
3081.969117	130.800000
3083.168439	153.400000
3084.369085	126.600000
3085.568042	138.200000
3086.763803	144.400000
3087.962394	144.600000
3089.157791	149.200000
3090.354512	157.400000
3091.548040	109.000000
3092.744396	136.800000
3093.939065	123.600000
3095.130544	120.600000
3096.326354	125.800000
3097.517471	137.200000
3098.709910	132.000000
3099.899162	161.200000
3101.091240	142.200000
3102.281634	148.600000
3103.468841	106.200000
3104.657372	158.200000
3105.847225	125.000000
3107.033893	128.200000
3108.220382	132.200000
3109.406691	136.200000
3110.594323	112.600000
3111.778772	150.400000
3112.961541	108.400000
3114.147134	176.200000
3115.331046	127.200000
3116.513280	113.200000
3117.695336	131.000000
3118.877213	135.000000
3120.058912	134.400000
3121.238934	143.800000
3122.417278	145.600000
3123.598444	143.800000
3124.776434	135.200000
3125.954247	138.000000
3127.131883	129.600000
3128.307844	148.000000
3129.483629	113.600000
3130.660734	157.400000
3131.836166	111.800000
3133.009924	151.400000
3134.182009	119.800000
3135.355415	142.600000
3136.528646	111.800000
3137.700204	128.000000
3138.873084	129.600000
3140.042796	145.000000
3141.213829	133.400000
3142.383191	147.800000
3143.550884	125.800000
3144.721392	159.600000
3145.887241	135.800000
3147.057400	143.000000
3148.222901	136.000000
3149.388229	130.800000
3150.553383	142.400000
3151.718363	139.800000
3152.884664	122.400000
3154.046311	131.800000
3155.209279	133.000000
3156.372073	125.200000
3157.534695	105.600000
3158.695652	153.600000
3159.856436	108.600000
3161.017048	146.600000
3162.175997	119.000000
3163.334773	122.800000
3164.493378	142.400000
3165.651811	104.600000
3166.810072	122.400000
3167.966671	128.400000
3169.121609	117.800000
3170.277866	140.000000
3171.432463	136.600000
3172.586888	140.200000
3173.739654	114.200000
3174.892250	127.200000
3176.044676	118.000000
3177.196931	151.200000
3178.349017	115.000000
3179.497956	155.200000
3180.649702	101.800000
3181.799791	129.000000
3182.948222	118.400000
3184.096485	126.800000
3185.244579	122.800000
3186.392503	120.000000
3187.538773	120.800000
3188.684874	137.200000
3189.829321	133.600000
3190.973599	123.400000
3192.117710	139.000000
3193.263139	132.200000
3194.405429	102.600000
3195.547551	146.200000
3196.689507	114.400000
3197.831295	111.400000
3198.972916	102.800000
3200.111401	126.800000
3201.251205	100.400000
3202.392325	134.400000
3203.530311	106.800000
3204.666648	136.200000
3205.802819	114.000000
3206.940308	134.600000
3208.076148	117.800000
3209.213304	149.200000
3210.345848	100.400000
3211.482674	131.400000
3212.614888	144.600000
3213.748420	125.400000
3214.881786	117.000000
3216.012025	126.800000
3217.145062	108.000000
3218.274973	148.800000
3219.406201	159.000000
3220.534303	173.400000
3221.665203	136.400000
3222.794458	149.000000
3223.922069	151.200000
3225.046559	163.800000
3226.175324	166.000000
3227.300967	153.400000
3228.426447	145.400000
3229.550286	191.200000
3230.676920	173.400000
3231.798955	160.800000
3232.922307	175.400000
3234.045497	205.400000
3235.168525	170.400000
3236.289913	184.200000
3237.411140	170.400000
3238.530728	184.800000
3239.650155	181.000000
3240.767944	180.000000
3241.888526	153.600000
3243.005994	190.400000
3244.123301	161.200000
3245.240447	228.800000
3246.355958	139.800000
3247.472784	159.000000
3248.586499	163.200000
3249.703005	166.800000
3250.817875	162.000000
3251.929637	154.800000
3253.041240	151.800000
3254.154158	156.600000
3255.266916	134.200000
3256.376568	152.800000
3257.487535	151.200000
3258.598343	135.000000
3259.707519	120.600000
3260.815064	179.000000
3261.923924	128.000000
3263.032625	119.800000
3264.138224	107.800000
3265.245138	123.800000
3266.350422	189.000000
3267.457020	128.800000
3268.560518	105.800000
3269.665330	114.600000
3270.769985	110.400000
3271.871542	136.000000
3272.972942	113.800000
3274.075656	124.800000
3275.178213	98.400000
3276.277675	120.600000
3277.379919	107.600000
3278.479069	100.400000
3279.576593	126.400000
3280.673962	106.800000
3281.774114	98.000000
3282.871172	124.200000
3283.968076	92.000000
3285.064824	124.000000
3286.157013	92.800000
3287.253452	119.000000
3288.348268	100.600000
3289.442929	112.000000
3290.535969	100.200000
3291.628855	118.800000
3292.720120	94.200000
3293.812698	100.200000
3294.903656	105.800000
3295.992994	122.800000
3297.082179	76.200000
3298.172676	100.600000
3299.260089	111.800000
3300.347350	95.000000
3301.435923	85.800000
3302.524343	106.600000
3303.608216	64.400000
3304.696331	85.800000
3305.781365	76.200000
3306.864783	113.600000
3307.949513	111.000000
3309.032627	120.200000
3310.117053	88.000000
3311.198401	84.800000
3312.281061	80.800000
3313.362107	113.800000
3314.443002	99.400000
3315.522284	114.800000
3316.601415	95.200000
3317.681857	102.600000
3318.759226	104.400000
3319.837906	92.800000
3320.914974	89.000000
3321.991892	112.200000
3323.067200	74.400000
3324.142358	95.800000
3325.218827	84.600000
3326.292225	97.000000
3327.365475	96.000000
3328.440036	99.000000
3329.512987	86.600000
3330.584331	100.200000
3331.656985	64.600000
3332.726572	109.000000
3333.797470	80.600000
3334.866761	129.600000
3335.937363	95.600000
3337.006358	84.400000
3338.073747	95.200000
3339.139531	92.600000
3340.209541	115.200000
3341.276488	89.800000
3342.340373	110.200000
3343.407026	115.800000
3344.472075	86.600000
3345.535520	134.400000
3346.598818	85.800000
3347.661971	103.800000
3348.724977	61.400000
3349.787836	72.800000
3350.849094	93.200000
3351.907295	86.600000
3352.969717	92.200000
3354.029082	72.400000
3355.088303	105.800000
3356.148832	115.000000
3357.204852	101.800000
3358.263637	105.200000
3359.317914	97.600000
3360.374955	84.000000
3361.430397	72.200000
3362.487148	94.000000
3363.542302	89.800000
3364.595858	106.800000
3365.647817	91.800000
3366.702538	89.200000
3367.754211	87.000000
3368.805739	100.400000
3369.858577	80.200000
3370.908367	81.000000
3371.959466	74.800000
3373.007518	72.400000
3374.058331	92.800000
3375.106098	79.800000
3376.153723	67.200000
3377.201206	96.600000
3378.247095	96.600000
3379.294294	86.600000
3380.338449	72.000000
3381.385363	122.400000
3382.430685	73.200000
3383.472967	112.000000
3384.515107	83.200000
3385.558556	96.600000
3386.601863	94.000000
3387.643580	70.800000
3388.685156	84.800000
3389.726592	69.600000
3390.766439	59.200000
3391.804697	92.800000
3392.844263	70.400000
3393.883689	100.200000
3394.921527	71.000000
3395.957778	94.800000
3396.993889	84.800000
3398.031308	92.800000
3399.065694	85.000000
3400.101388	80.400000
3401.136942	74.600000
3402.169464	82.000000
3403.204740	61.600000
3404.236985	90.800000
3405.269092	78.000000
3406.299615	69.800000
3407.331446	79.800000
3408.363138	98.400000
3409.391802	95.800000
3410.420328	82.200000
3411.450162	54.400000
3412.479857	88.200000
3413.506527	87.400000
3414.534504	72.600000
3415.559456	89.800000
3416.587158	83.600000
3417.611837	72.000000
3418.637822	111.400000
3419.662227	54.800000
3420.686496	81.600000
3421.709186	78.800000
3422.731740	63.000000
3423.755600	86.400000
3424.776440	97.200000
3425.797145	67.400000
3426.819155	84.400000
3427.838147	65.400000
3428.857004	80.000000
3429.877166	78.000000
3430.894312	53.000000
