-118.362301	-8.447253
-115.692700	-4.263736
-113.026036	-0.640360
-110.360123	2.394206
-107.697142	4.811289
-105.032732	6.582218
-102.371252	7.678322
-99.708342	3.376224
-97.050540	7.013986
-94.391307	6.067133
-91.732823	7.560839
-89.077264	7.826573
-86.420276	8.446154
-83.768385	8.006993
-81.115065	9.046154
-78.464665	6.391608
-75.812835	10.304895
-73.166096	7.739860
-70.517927	7.434965
-67.870502	6.268531
-65.225990	11.846154
-62.580050	12.812587
-59.939191	16.331469
-57.296902	16.097902
-54.657523	13.342657
-52.016715	13.732867
-49.376646	10.394406
-46.741651	7.502098
-44.105226	13.869930
-41.471705	12.384615
-38.836755	16.495105
-36.206870	16.944056
-33.573392	25.412587
-30.944977	25.516084
-28.317296	27.469930
-25.688187	16.864336
-23.064134	-34.903497
-20.436492	-216.318881
-17.813903	-635.279720
-15.192045	-665.013986
-12.570918	830.802797
-9.950522	2969.847552
-7.333013	4679.099301
-4.714076	5844.386014
-2.098025	6471.246154
0.517298	6541.243357
3.131894	6069.475524
5.743608	5057.637762
8.356749	3547.924476
10.964857	1652.387413
13.576547	-205.725874
16.183206	-1064.654545
18.791293	-530.800000
21.398656	-28.862937
24.000994	16.633566
26.606910	18.200000
29.207805	20.025175
31.810127	15.875524
34.407431	21.437762
37.008311	22.257343
39.604177	29.265734
42.201470	24.920280
44.798044	24.800000
47.389609	20.121678
49.982602	20.398601
52.572734	12.317483
55.164294	9.555245
57.752994	6.464336
60.343122	7.458741
62.928250	7.248951
65.514806	11.808392
68.100647	11.671329
70.683635	14.197203
73.268050	13.226573
75.845335	16.921678
78.426187	12.581818
81.004190	17.372028
83.581483	11.941259
86.160202	14.960839
88.733940	14.681119
91.309104	19.153846
93.881425	19.234965
96.453039	18.758042
99.021812	18.289510
101.592012	19.471329
104.159373	17.590210
106.728161	17.693706
109.294111	16.394406
111.857227	23.506294
114.423900	22.654545
116.981350	29.751049
119.544486	39.907692
122.102663	65.511888
124.664393	109.134266
127.221168	186.218182
129.779368	293.176224
132.332616	442.472727
134.885165	620.702098
137.441266	833.479720
139.992418	1050.671329
142.542872	1263.025175
145.092630	1445.053147
147.639568	1593.372028
150.185810	1700.351049
152.733479	1764.913287
155.280451	1790.930070
157.822487	1790.935664
160.363830	1765.930070
162.904481	1747.857343
165.446556	1722.960839
167.985821	1714.237762
170.522276	1697.504895
173.058041	1687.376224
175.595231	1681.337063
178.131729	1675.937063
180.665422	1668.520280
183.196312	1665.493706
185.726513	1658.695105
188.258139	1650.370629
190.786964	1643.296503
193.312991	1642.608392
195.838331	1629.053147
198.365096	1628.591608
200.889065	1623.018182
203.412348	1619.763636
205.934947	1623.089510
208.454753	1622.872727
210.973876	1626.669930
213.492316	1646.500699
216.012180	1672.425175
218.525043	1701.055944
221.041437	1726.711888
223.557149	1750.855944
226.067972	1767.609790
228.580219	1797.858741
231.089683	1815.864336
233.598469	1826.723077
236.106577	1835.100699
238.616109	1835.725874
241.120760	1831.134266
243.624735	1824.269930
246.130134	1817.896503
248.630658	1810.727273
251.134705	1794.569231
253.631782	1790.939860
256.132381	1779.608392
258.630209	1784.699301
261.127364	1784.583217
263.623846	1780.682517
266.115466	1781.198601
268.610604	1787.349650
271.102977	1787.615385
273.594679	1792.427972
276.083618	1800.044755
278.573980	1807.927273
281.061581	1816.846154
283.546422	1834.408392
286.034777	1851.275524
288.516193	1886.783217
291.001124	1923.651748
293.481208	1964.093706
295.964805	2010.174825
298.443560	2048.702098
300.923737	2059.011189
303.401163	2059.243357
305.877925	2042.208392
308.354023	2017.658741
310.827373	1989.022378
313.300062	1960.932867
315.772088	1937.997203
318.243454	1928.439161
320.712076	1917.711888
323.180038	1910.699301
325.649423	1897.300699
328.113985	1876.127273
330.582050	1840.833566
333.045296	1812.200000
335.507885	1781.051748
337.969816	1750.234965
340.431091	1709.145455
342.889632	1689.679720
345.349595	1666.942657
347.806826	1653.886713
350.263402	1630.391608
352.719323	1612.082517
355.172516	1595.268531
357.627131	1582.534266
360.076944	1565.040559
362.530253	1556.186014
364.978763	1537.755245
367.426623	1516.973427
369.875904	1490.611189
372.320392	1489.786014
374.766302	1469.583217
377.211563	1456.601399
379.654105	1445.419580
382.095999	1439.942657
384.537245	1435.727273
386.975776	1426.739860
389.415729	1415.647552
391.852968	1410.086713
394.287495	1393.372028
396.725510	1384.113287
399.158748	1378.490909
401.593408	1378.302098
404.023294	1361.490909
406.456667	1356.090909
408.885268	1352.672727
411.313229	1352.475524
413.742610	1342.839161
416.167227	1334.878322
418.593264	1326.377622
421.018662	1314.752448
423.443419	1304.264336
425.863417	1304.358042
428.284837	1299.539860
430.703560	1287.816783
433.123704	1276.110490
435.541153	1261.850350
437.960022	1242.383217
440.376198	1222.338462
442.787627	1192.861538
445.202532	1176.641958
447.614747	1156.720280
450.026328	1138.141259
452.437275	1128.598601
454.845536	1125.945455
457.253165	1122.036364
459.660161	1124.640559
462.066525	1128.027972
464.470208	1131.295105
466.873260	1132.134266
469.275682	1141.067133
471.677474	1145.721678
474.076588	1160.920280
476.477122	1171.026573
478.877027	1182.330070
481.272209	1197.426573
483.670858	1217.395804
486.064787	1233.949650
488.458090	1268.911888
490.850767	1304.780420
493.242819	1366.952448
495.636290	1448.139860
498.025048	1609.131469
500.411140	1936.654545
502.798652	2632.462937
505.185540	3822.304895
507.569765	5442.755245
509.955409	7263.516084
512.338390	8987.009790
514.718711	10369.219580
517.100451	11258.095105
519.479532	11524.345455
521.860032	11156.194406
524.237874	10211.756643
526.613061	8864.511888
528.987630	7375.194406
531.363618	6061.534266
533.736952	5103.427972
536.111705	4451.988811
538.481771	4004.188811
540.851222	3656.570629
543.222092	3374.986014
545.588280	3147.349650
547.955887	2945.223776
550.320848	2777.909091
552.685196	2640.100699
555.048932	2519.973427
557.414085	2413.846154
559.774566	2323.818182
562.136464	2258.176224
564.495723	2194.416783
566.852343	2136.177622
569.212409	2087.306294
571.565783	2040.162238
573.922602	1996.574825
576.276786	1945.033566
578.630361	1901.931469
580.983328	1850.813986
583.333664	1809.612587
585.685416	1761.239161
588.030492	1714.083916
590.381032	1676.183217
592.724899	1638.921678
595.074226	1600.506294
597.418906	1580.330070
599.760961	1561.116084
602.104433	1565.076923
604.445281	1579.742657
606.785528	1620.436364
609.123154	1660.181818
611.464215	1703.337063
613.800639	1727.854545
616.138479	1739.544056
618.473701	1731.434965
620.806308	1699.692308
623.140332	1647.114685
625.471741	1596.201399
627.802552	1545.860140
630.132765	1508.208392
632.462380	1483.795804
634.787373	1468.900699
637.117807	1456.962238
639.443619	1452.002797
641.766825	1455.153846
644.091447	1450.409790
646.413463	1434.781818
648.734885	1429.408392
651.053704	1421.790210
653.373939	1421.591608
655.693581	1434.653147
658.010622	1437.376224
660.327072	1438.149650
662.640923	1439.088112
664.956189	1438.465734
667.268859	1442.660140
669.582944	1442.093706
671.892430	1434.190210
674.203330	1418.640559
676.511638	1416.867133
678.819358	1400.759441
681.128493	1387.633566
683.433035	1377.089510
685.736991	1356.033566
688.040360	1338.416783
690.345144	1324.517483
692.645342	1304.209790
694.946955	1290.311888
697.247982	1271.871329
699.544428	1262.120280
701.842288	1248.019580
704.139565	1240.373427
706.436259	1225.215385
708.728377	1216.025175
711.023906	1213.588811
713.314862	1212.320280
715.607232	1211.093706
717.897026	1215.229371
720.186241	1216.595804
722.474875	1222.513287
724.760938	1223.987413
727.048414	1227.022378
729.333320	1218.716084
731.617647	1212.553846
733.899407	1207.885315
736.182580	1196.032168
738.465176	1184.879720
740.743216	1174.071329
743.022670	1167.897902
745.301549	1172.672727
747.579852	1163.995804
749.853606	1162.917483
752.128774	1157.032168
754.403368	1156.723077
756.675403	1148.805594
758.948851	1151.946853
761.219741	1152.685315
763.488074	1147.328671
765.757822	1149.304895
768.025014	1159.844755
770.291636	1164.167832
772.557689	1169.268531
774.821190	1160.689510
777.086103	1158.071329
779.350448	1148.643357
781.610262	1143.629371
783.871490	1136.433566
786.132150	1137.391608
788.390263	1136.100699
790.645832	1147.050350
792.904792	1157.388811
795.157253	1172.646154
797.415081	1185.372028
799.668390	1199.408392
801.919158	1200.212587
804.171339	1202.948252
806.420982	1190.742657
808.672036	1184.078322
810.918579	1173.686713
813.166535	1160.123077
815.411955	1140.615385
817.658787	1121.416783
819.905058	1091.900699
822.146825	1075.283916
824.391974	1066.448951
826.630651	1062.037762
828.872711	1057.082517
831.110272	1062.324476
833.349244	1063.166434
835.585690	1077.041958
837.823548	1088.864336
840.058880	1100.420979
842.291688	1104.616783
844.525908	1107.311888
846.757606	1103.391608
848.988749	1110.109091
851.219337	1113.735664
853.449371	1120.088112
855.678850	1119.615385
857.903849	1122.500699
860.132221	1112.306294
862.356115	1107.433566
864.581419	1097.117483
866.802248	1096.969231
869.026449	1087.879720
871.246177	1088.022378
873.467316	1086.650350
875.687904	1093.460140
877.905983	1098.616783
880.125471	1108.311888
882.340493	1107.527273
884.554967	1106.323077
886.768894	1088.423776
888.982273	1080.793007
891.195106	1063.237762
893.407391	1058.296503
895.617175	1046.546853
897.826413	1049.206993
900.035105	1050.008392
902.241299	1058.595804
904.448902	1071.583217
906.654008	1087.774825
908.858570	1099.503497
911.060636	1117.532867
913.264112	1133.177622
915.465095	1154.741259
917.665535	1175.451748
919.867384	1217.030769
922.062841	1270.857343
924.261658	1345.261538
926.456037	1435.759441
928.653773	1556.545455
930.847073	1687.472727
933.041781	1820.506294
935.234004	1938.815385
937.425689	2044.172028
939.616836	2116.110490
941.805500	2155.791608
943.993627	2169.022378
946.179274	2167.468531
948.368273	2146.090909
950.552849	2122.046154
952.736890	2108.391608
954.924281	2107.772028
957.103369	2112.959441
959.285806	2120.788811
961.467710	2126.318881
963.647140	2144.320280
965.824097	2151.078322
968.002462	2157.886713
970.182233	2162.416783
972.355656	2170.934266
974.532425	2163.032168
976.704788	2155.965035
978.878557	2125.977622
981.047924	2068.889510
983.220634	1996.100699
985.390878	1893.448951
987.560594	1780.240559
989.729781	1670.517483
991.894571	1552.711888
994.062702	1454.356643
996.226439	1371.058741
998.391582	1314.917483
1000.554267	1273.802797
1002.716426	1254.310490
1004.876127	1238.332867
1007.035305	1225.454545
1009.195889	1212.128671
1011.354018	1196.692308
1013.511623	1177.107692
1015.668705	1163.285315
1017.825264	1141.194406
1019.977443	1121.925874
1022.131029	1099.538462
1024.284092	1074.166434
1026.434708	1051.318881
1028.586729	1037.415385
1030.734377	1024.439161
1032.885357	1015.633566
1035.031966	1005.850350
1037.178057	1005.015385
1039.323629	1001.602797
1041.470605	1012.944056
1043.611294	1018.128671
1045.755311	1025.805594
1047.896888	1024.647552
1050.037949	1016.597203
1052.180414	1008.574825
1054.316600	1006.437762
1056.456112	993.850350
1058.591268	995.928671
1060.729749	990.600000
1062.863877	987.632168
1064.997491	987.074126
1067.132509	988.871329
1069.263178	986.265734
1071.395252	986.130070
1073.524897	978.751049
1075.654030	975.158042
1077.782652	969.300699
1079.910762	966.823776
1082.036446	964.481119
1084.161620	974.075524
1086.288197	967.987413
1088.410438	970.148252
1090.534083	971.766434
1092.653393	974.935664
1094.777932	975.374825
1096.896227	977.053147
1099.015925	974.029371
1101.133205	976.492308
1103.249979	972.549650
1105.366246	970.925874
1107.480098	971.400000
1109.595353	969.946853
1111.706286	962.704895
1113.820530	965.661538
1115.930455	959.790210
1118.041782	961.215385
1120.152606	955.313287
1122.259113	953.611189
1124.368929	948.965035
1126.474431	944.165035
1128.581337	937.643357
1130.682026	933.899301
1132.787928	923.153846
1134.889521	915.314685
1136.992517	903.801399
1139.095012	897.227972
1141.191301	887.779021
1143.292796	883.482517
1145.389989	877.878322
1147.486683	879.229371
1149.582880	878.034965
1151.678578	885.475524
1153.773779	891.387413
1155.866583	894.689510
1157.960789	892.163636
1160.048804	894.815385
1162.142017	889.072727
1164.229042	888.591608
1166.319367	887.127273
1168.405403	885.163636
1170.494737	885.885315
1172.577890	888.605594
1174.662446	891.958042
1176.748402	907.303497
1178.830077	908.092308
1180.913154	913.078322
1182.993845	915.595804
1185.074044	923.120280
1187.153753	918.848951
1189.232969	916.609790
1191.309804	918.469930
1193.384258	920.888112
1195.462004	921.213986
1197.535479	922.542657
1199.610356	921.916084
1201.680965	924.455944
1203.752975	914.194406
1205.822609	910.787413
1207.893644	907.106294
1209.964191	899.437762
1212.030477	887.194406
1214.098164	880.222378
1216.163479	871.406993
1218.230194	866.342657
1220.292653	860.412587
1222.358397	861.888112
1224.419888	866.976224
1226.482778	877.780420
1228.543301	885.406993
1230.603341	902.317483
1232.662897	914.862937
1234.720089	930.351049
1236.776798	943.949650
1238.831145	957.062937
1240.888772	960.043357
1242.944037	966.008392
1244.995061	970.209790
1247.047485	975.406993
1249.099430	982.008392
1251.149015	987.830769
1253.198123	990.875524
1255.246751	995.900699
1257.294901	997.339860
1259.342573	1000.651748
1261.386014	1002.331469
1263.432730	1005.349650
1265.477094	1006.639161
1267.520980	1013.482517
1269.562516	1022.441958
1271.601702	1026.111888
1273.644160	1026.588811
1275.682397	1029.193007
1277.722031	1027.100699
1279.761191	1024.611189
1281.796133	1021.093706
1283.832473	1016.935664
1285.866468	1020.303497
1287.901862	1021.451748
1289.933042	1020.932867
1291.965621	1022.709091
1293.997727	1017.444755
1296.027493	1009.976224
1298.058657	996.446154
1300.085613	986.085315
1302.113967	970.237762
1304.138117	967.283916
1306.165531	955.976224
1308.188744	950.499301
1310.213353	948.604196
1312.235629	959.318881
1314.259302	959.860140
1316.280642	961.525874
1318.301514	950.802797
1320.321920	947.061538
1322.338131	932.615385
1324.355741	924.279720
1326.371022	910.165035
1328.389562	909.239161
1330.403912	892.516084
1332.415937	887.124476
1334.431220	885.327273
1336.442317	895.292308
1338.454810	896.841958
1340.463121	896.318881
1342.474688	894.057343
1344.480216	897.476923
1346.488998	899.020979
1348.493604	906.303497
1350.501463	906.409790
1352.508859	918.275524
1354.510225	923.162238
1356.512988	935.622378
1358.515291	939.314685
1360.517133	947.260140
1362.518517	951.130070
1364.517586	951.679720
1366.516197	954.019580
1368.514350	954.769231
1370.512045	955.348252
1372.505576	951.781818
1374.500504	949.731469
1376.494975	946.853147
1378.488989	940.097902
1380.480696	935.556643
1382.471947	922.739860
1384.460893	915.766434
1386.451234	909.773427
1388.441120	909.706294
1390.428703	909.318881
1392.415832	908.643357
1394.400659	906.925874
1396.386881	907.386014
1398.370802	909.928671
1400.354271	911.047552
1402.337288	908.212587
1404.318007	908.503497
1406.300120	902.462937
1408.279936	902.239161
1410.259302	906.797203
1412.234529	916.041958
1414.212994	922.257343
1416.189166	932.067133
1418.164888	933.019580
1420.140161	938.542657
1422.113143	943.072727
1424.085678	944.762238
1426.057764	935.437762
1428.029402	923.976224
1429.996913	906.511888
1431.969497	896.619580
1433.934275	889.822378
1435.904126	889.032168
1437.869852	885.450350
1439.836972	890.506294
1441.801808	885.574825
1443.762524	897.811189
1445.728308	907.160839
1447.688137	922.790210
1449.649359	935.523077
1451.611974	951.064336
1453.570474	963.699301
1455.528532	972.275524
1457.486147	985.583217
1459.443321	991.742657
1461.398219	990.232168
1463.354509	988.615385
1465.308525	975.373427
1467.262101	966.013986
1469.213404	950.261538
1471.166099	942.002797
1473.116523	928.025175
1475.066508	913.156643
1477.016053	896.006993
1478.963330	879.365035
1480.908340	869.688112
1482.854742	863.218182
1484.800706	861.355245
1486.746232	858.934266
1488.689494	854.717483
1490.632319	853.248951
1492.572881	852.155245
1494.514834	855.576224
1496.454526	855.539860
1498.393782	859.974825
1500.332604	863.801399
1502.269166	872.633566
1504.207118	883.510490
1506.142813	898.841958
1508.078074	911.377622
1510.011078	920.651748
1511.943650	924.590210
1513.875790	928.531469
1515.807498	932.339860
1517.736952	938.346853
1519.667797	938.416783
1521.598211	941.384615
1523.524552	936.692308
1525.452283	936.151049
1527.377764	934.282517
1529.302816	936.116084
1531.227439	940.082517
1533.151633	941.393007
1535.073580	944.825175
1536.996916	956.620979
1538.918007	967.271329
1540.836853	985.316084
1542.757089	999.566434
1544.675081	1010.690909
1546.592647	1016.857343
1548.507971	1026.050350
1550.424685	1030.879720
1552.337344	1030.086713
1554.253207	1027.285315
1556.166831	1019.184615
1558.078216	1019.697902
1559.990990	1020.478322
1561.899715	1029.875524
1563.809830	1057.889510
1565.719521	1091.393007
1567.628788	1137.538462
1569.535822	1189.109091
1571.440623	1272.374825
1573.346813	1375.725874
1575.250771	1505.751049
1577.154309	1659.096503
1579.057425	1796.767832
1580.958313	1912.850350
1582.860588	1975.327273
1584.760636	1984.991608
1586.662072	1941.067133
1588.559473	1834.345455
1590.456457	1690.363636
1592.353022	1526.257343
1594.250974	1378.955245
1596.143092	1253.770629
1598.038403	1172.369231
1599.933297	1117.744056
1601.825969	1082.784615
1603.718225	1061.058741
1605.608261	1044.972028
1607.497881	1033.990210
1609.387086	1020.834965
1611.275875	1000.267133
1613.162448	986.654545
1615.050407	973.500699
1616.934351	962.423776
1618.819681	947.648951
1620.704597	937.721678
1622.587301	917.755245
1624.471390	901.391608
1626.351469	883.002797
1628.232934	869.716084
1630.112189	854.896503
1631.992830	832.748252
1633.867667	815.689510
1635.747486	804.634965
1637.623299	791.861538
1639.498703	790.075524
1641.375492	778.675524
1643.246484	780.717483
1645.120658	778.461538
1646.990834	778.226573
1648.864190	776.927273
1650.735343	774.486713
1652.604294	768.493706
1654.474631	763.769231
1656.340974	757.853147
1658.208703	761.602797
1660.074234	754.184615
1661.941149	754.137063
1663.804076	740.885315
1665.668388	746.702098
1667.530505	747.055944
1669.392216	749.860140
1671.255312	747.732867
1673.116214	744.447552
1674.974922	733.309091
1676.833227	731.397203
1678.692917	723.632168
1680.546840	729.669930
1682.403935	721.524476
1684.260628	720.637762
1686.113345	713.411189
1687.969233	711.039161
1689.821147	708.127273
1691.672659	703.689510
1693.523772	693.913287
1695.374483	695.015385
1697.224794	689.379021
1699.072921	691.760839
1700.922431	687.381818
1702.766193	693.967832
1704.614905	694.931469
1706.457870	699.079720
1708.304001	700.441958
1710.146171	698.244755
1711.991505	697.068531
1713.831099	696.155245
1715.672077	696.250350
1717.514438	703.675524
1719.352843	698.623776
1721.192631	698.047552
1723.030244	690.058741
1724.867461	686.641958
1726.702505	679.448951
1728.538932	674.784615
1730.373187	668.990210
1732.207048	661.923077
1734.040514	652.332867
1735.870034	652.230769
1737.702713	642.448951
1739.531448	639.402797
1741.363341	633.027972
1743.191291	634.211189
1745.018849	629.144056
1746.846016	630.671329
1748.672790	631.409790
1750.499174	634.860140
1752.321621	631.780420
1754.147222	633.741259
1755.968889	632.286713
1757.791938	634.897902
1759.612826	629.124476
1761.433324	632.658741
1763.255204	625.939860
1765.071384	629.081119
1766.890716	624.208392
1768.706121	628.546853
1770.524676	624.531469
1772.339307	628.725874
1774.153550	628.685315
1775.967407	640.264336
1777.780877	643.671329
1779.592193	649.551049
1781.404891	657.165035
1783.217202	666.095105
1785.025596	665.415385
1786.835371	667.528671
1788.641230	661.060140
1790.450236	661.696503
1792.255328	654.125874
1794.061800	647.637762
1795.867889	637.531469
1797.670068	633.685315
1799.475390	622.923077
1801.276804	616.344056
1803.079598	619.001399
1804.878487	622.913287
1806.678755	621.570629
1808.478643	619.991608
1810.276388	621.465734
1812.073753	622.623776
1813.870737	623.395804
1815.667341	621.170629
1817.461806	620.787413
1819.257651	623.179021
1821.047840	619.732867
1822.842926	622.574825
1824.632359	628.892308
1826.424930	632.565035
1828.215365	631.836364
1830.003665	636.426573
1831.795101	635.496503
1833.580891	636.837762
1835.368061	645.142657
1837.153099	652.770629
1838.941271	658.833566
1840.725557	667.914685
1842.507714	672.232168
1844.291249	686.186014
1846.072657	690.724476
1847.855442	695.471329
1849.634348	694.872727
1851.414632	700.784615
1853.192791	696.415385
1854.972327	701.072727
1856.749739	704.671329
1858.525027	706.401399
1860.301694	708.667133
1862.076238	707.222378
1863.852159	709.588811
1865.622461	716.216783
1867.395890	714.941259
1869.167199	720.851748
1870.938137	720.588811
1872.710452	721.868531
1874.477155	719.204196
1876.246982	728.871329
1878.012946	729.893706
1879.782034	728.786014
1881.547260	728.612587
1883.312118	725.551049
1885.078352	725.146853
1886.840728	718.304895
1888.602737	712.422378
1890.364379	710.795804
1892.125653	700.525874
1893.886561	691.987413
1895.647101	680.928671
1897.405532	679.706294
1899.163598	667.335664
1900.919556	660.836364
1902.676890	655.236364
1904.433858	650.036364
1906.188721	642.022378
1907.941478	635.262937
1909.693872	631.895105
1911.447641	631.593007
1913.199307	628.012587
1914.948871	625.267133
1916.699811	619.444755
1918.450387	622.717483
1920.197125	619.060140
1921.945238	622.907692
1923.691252	618.935664
1925.438642	620.209790
1927.183933	620.299301
1928.927127	619.920280
1930.671697	614.572028
1932.414170	611.215385
1934.156283	598.755245
1935.898036	594.364336
1937.639430	597.998601
1939.378730	604.445455
1941.117671	610.574825
1942.856253	624.698601
1944.592743	629.800000
1946.328876	636.841259
1948.066383	639.899301
1949.800069	638.693007
1951.535128	636.916084
1953.268100	634.158741
1955.000715	626.569231
1956.732973	626.923776
1958.464875	623.744056
1960.194691	623.373427
1961.922423	625.609790
1963.651528	627.169231
1965.380279	621.527273
1967.106946	621.538462
1968.833259	615.879720
1970.560945	615.883916
1972.283095	614.744056
1974.008346	618.448951
1975.729791	620.955245
1977.454335	617.773427
1979.176800	612.246154
1980.895461	613.546853
1982.617221	611.541259
1984.335179	607.966434
1986.054511	602.167832
1987.770042	601.753846
1989.490395	590.443357
1991.206948	584.921678
1992.919706	576.627972
1994.635559	582.345455
1996.349339	583.763636
1998.062770	583.016783
1999.774130	582.696503
2001.486863	586.734266
2003.195804	584.854545
2004.907839	586.320280
2006.614364	576.818182
2008.323982	579.427972
2010.031532	574.267133
2011.738735	574.563636
2013.443872	579.344056
2015.148662	583.216783
2016.854824	584.360839
2018.557204	586.918881
2020.260956	582.177622
2021.962645	581.798601
2023.663988	577.959441
2025.364986	581.359441
2027.063924	572.833566
2028.764233	577.609790
2030.460766	573.524476
2032.158671	570.671329
2033.854518	563.791608
2035.553450	554.397203
2037.246895	545.745455
2038.941713	539.583217
2040.636187	527.869930
2042.326893	528.941259
2044.020683	532.938462
2045.710706	540.153846
2047.402100	540.423776
2049.091441	547.538462
2050.782152	550.941259
2052.469101	558.558042
2054.155709	562.137063
2055.843688	563.748252
2057.527907	565.653147
2059.213496	571.717483
2060.898746	567.833566
2062.581948	568.510490
2064.266520	570.650350
2065.945628	572.089510
2067.629522	570.935664
2069.307956	570.422378
2070.989467	567.372028
2072.667226	569.418182
2074.344649	566.896503
2076.023441	569.369231
2077.700190	574.039161
2079.374898	578.611189
2081.050975	572.025175
2082.725012	573.151049
2084.398713	576.345455
2086.072079	582.798601
2087.743407	579.004196
2089.414400	577.233566
2091.085059	570.356643
2092.755384	575.391608
2094.425374	577.639161
2096.093329	586.234965
2097.760951	589.020979
2099.426539	593.909091
2101.093495	595.793007
2102.758418	599.895105
2104.423008	600.152448
2106.085567	605.455944
2107.749495	595.868531
2109.411391	592.902098
2111.072956	583.239161
2112.734191	581.415385
2114.393396	571.212587
2116.052272	564.948252
2117.710817	555.482517
2119.369033	547.397203
2121.023525	540.395804
2122.681083	536.074126
2124.338310	525.468531
2125.991817	524.619580
2127.646691	515.858741
2129.297846	516.404196
2130.952064	514.113287
2132.602564	514.236364
2134.254432	511.661538
2135.900891	512.365035
2137.552104	508.602797
2139.199604	502.127273
2140.848472	496.177622
2142.495320	494.586014
2144.141842	490.802797
2145.788039	496.682517
2147.430528	491.233566
2149.076075	497.812587
2150.717915	498.613986
2152.362812	503.857343
2154.004004	507.033566
2155.644872	514.551049
2157.285417	518.864336
2158.923949	525.528671
2160.563847	526.816783
2162.200045	537.720280
2163.837609	547.159441
2165.474851	554.667133
2167.110083	555.321678
2168.744993	564.937063
2170.379582	560.903497
2172.013850	561.037762
2173.644424	561.604196
2175.278049	563.951049
2176.907983	564.762238
2178.539282	558.752448
2180.168577	549.415385
2181.797551	551.702098
2183.426207	549.160839
2185.054543	543.787413
2186.680876	537.834965
2188.306891	533.406993
2189.930905	526.690909
2191.556284	525.816783
2193.179662	523.646154
2194.804405	524.878322
2196.425466	524.720280
2198.046212	529.490909
2199.668321	536.879720
2201.288433	545.883916
2202.906549	550.327273
2204.524349	550.955245
2206.141833	553.784615
2207.759002	557.366434
2209.375856	561.088112
2210.992395	564.320280
2212.606940	561.969231
2214.219493	561.833566
2215.833411	556.455944
2217.445336	556.895105
2219.058626	547.646154
2220.669924	540.229371
2222.279233	529.647552
2223.889906	521.918881
2225.498590	516.222378
2227.106962	511.344056
2228.713346	505.597203
2230.321094	506.321678
2231.926855	501.000000
2233.532305	500.096503
2235.135771	498.293706
2236.740599	502.497902
2238.343443	500.784615
2239.944304	506.254545
2241.546528	508.774825
2243.146769	516.907692
2244.748373	518.786014
2246.346325	523.173427
2247.945639	528.467133
2249.542973	539.302098
2251.139999	545.443357
2252.738386	552.973427
2254.333125	557.461538
2255.925888	557.885315
2257.520012	553.953846
2259.115498	550.356643
2260.707340	544.190210
2262.298875	541.489510
2263.891771	537.179021
2265.479358	541.083916
2267.071642	545.651748
2268.658618	551.777622
2270.248623	550.946853
2271.833323	550.250350
2273.422717	548.043357
2275.006808	540.909091
2276.592261	531.763636
2278.175745	522.481119
2279.762254	514.972028
2281.345130	513.872727
2282.927702	513.898601
2284.509972	515.981818
2286.088611	515.084615
2287.670274	514.637762
2289.248309	511.326573
2290.829368	512.274126
2292.406799	505.406294
2293.982267	498.629371
2295.560757	491.706993
2297.135622	489.230769
2298.710187	481.127972
2300.284452	480.994406
2301.858416	477.018881
2303.432080	470.987413
2305.005443	464.527273
2306.575188	466.195804
2308.144634	469.593007
2309.717099	473.746853
2311.284288	468.186014
2312.854496	471.433566
2314.421089	471.516084
2315.989042	475.661538
2317.555040	470.510490
2319.120740	474.567832
2320.686142	475.798601
2322.249591	483.359441
2323.814398	491.391608
2325.375598	504.637762
2326.939812	512.127273
2328.498765	515.559441
2330.060731	511.784615
2331.620747	507.921678
2333.180467	496.981818
2334.738238	491.376224
2336.295715	475.924476
2337.852896	474.862937
2339.408131	477.478322
2340.963071	487.525874
2342.517718	490.067133
2344.072071	499.107692
2345.626130	501.907692
2347.179896	509.546853
2348.731717	508.081119
2350.281595	507.019580
2351.834481	503.341259
2353.382125	503.524476
2354.932776	498.211189
2356.479837	500.102098
2358.028255	494.509091
2359.576381	498.179021
2361.120920	488.970629
2362.666816	488.551049
2364.210773	486.351049
2365.756088	492.373427
2367.297818	487.681119
2368.840906	485.784615
2370.382057	482.689510
2371.922919	482.261538
2373.463492	478.176224
2375.003776	473.797203
2376.543771	469.043357
2378.080187	470.040559
2379.619605	459.765035
2381.155446	457.560839
2382.692643	461.081119
2384.226266	467.702098
2385.762888	462.629371
2387.297579	462.408392
2388.830341	464.949650
2390.362817	467.236364
2391.893364	465.948252
2393.426909	468.524476
2394.955243	469.739860
2396.484933	467.823776
2398.014338	463.188811
2399.543458	461.475524
2401.072292	461.951049
2402.595922	465.212587
2404.124187	460.141259
2405.647249	464.331469
2407.174946	459.671329
2408.695802	465.197203
2410.221292	462.676923
2411.743221	470.627972
2413.266506	468.648951
2414.787870	472.548252
2416.307314	470.300699
2417.828113	476.485315
2419.346993	478.113287
2420.865591	489.363636
2422.382272	493.030769
2423.900308	502.195804
2425.418062	499.560839
2426.932264	508.061538
2428.446186	506.739860
2429.959829	510.669930
2431.474825	508.097902
2432.986273	515.710490
2434.499076	517.518881
2436.009966	521.005594
2437.520576	522.795804
2439.029275	531.583217
2440.540961	533.881119
2442.049103	538.829371
2443.556966	536.229371
2445.064552	543.742657
2446.568598	549.193007
2448.075628	556.489510
2449.580750	564.300699
2451.085595	573.553846
2452.588533	576.752448
2454.091194	579.563636
2455.593579	577.276923
2457.094059	578.748252
2458.595892	570.268531
2460.095821	565.811189
2461.595474	556.184615
2463.094852	550.854545
2464.592327	540.600000
2466.087900	535.918881
2467.586453	527.395804
2469.081477	521.668531
2470.577855	516.507692
2472.070706	515.437762
2473.564909	505.917483
2475.058839	509.653147
2476.549246	510.681119
2478.042630	515.545455
2479.534115	515.786014
2481.023704	512.358042
2482.513021	513.191608
2484.000443	518.064336
2485.490840	515.990210
2486.977718	521.279720
2488.465948	517.634965
2489.950662	511.430769
2491.435105	498.300699
2492.920900	494.209790
2494.404802	489.281119
2495.890056	480.535664
2497.370176	472.236364
2498.853268	462.290909
2500.334470	461.180420
2501.815403	459.692308
2503.294447	458.016783
2504.773223	461.594406
2506.251730	455.134266
2507.729968	456.552448
2509.207938	454.131469
2510.682404	455.365035
2512.159838	453.748252
2513.633769	451.634965
2515.109051	450.570629
2516.584065	450.966434
2518.055578	447.272727
2519.528442	446.468531
2520.999422	443.482517
2522.471753	441.250350
2523.938971	435.455944
2525.409155	439.100699
2526.877457	434.033566
2528.345495	431.404196
2529.813268	426.481119
2531.280776	424.567832
2532.748019	420.713287
2534.211771	419.195804
2535.676872	412.862937
2537.140096	413.938462
2538.604669	416.441958
2540.065753	415.780420
2541.528188	416.261538
2542.990359	427.067133
2544.449043	431.613986
2545.912300	437.324476
2547.370460	443.738462
2548.829969	454.583217
2550.284385	460.120280
2551.743371	463.895105
2553.200484	466.897902
2554.655727	469.717483
2556.110709	471.293706
2557.563821	465.523077
2559.018282	458.348252
2560.470874	459.634965
2561.923206	451.071329
2563.373670	447.669930
2564.827090	444.337063
2566.275428	444.524476
2567.726722	442.520280
2569.176149	450.260140
2570.622105	457.460140
2572.071015	462.492308
2573.516454	466.623776
2574.963242	472.625175
2576.408166	474.696503
2577.852833	481.088112
2579.298847	477.730070
2580.741394	481.662937
2582.185289	475.434965
2583.625719	477.362238
2585.067497	477.395804
2586.507414	481.420979
2587.948680	477.545455
2589.386483	470.899301
2590.827236	468.956643
2592.262926	468.416783
2593.701566	459.334266
2595.138349	452.787413
2596.573275	444.337063
2598.011150	444.465734
2599.443967	433.349650
2600.878131	433.220979
2602.310440	427.711888
2603.744096	425.513287
2605.175899	420.812587
2606.607449	420.675524
2608.038745	420.806993
2609.468190	422.156643
2610.897382	423.405594
2612.324723	430.997203
2613.753411	435.911888
2615.181846	446.865734
2616.606835	452.324476
2618.033169	462.570629
2619.457655	469.090909
2620.883487	473.696503
2622.305875	477.685315
2623.729609	484.524476
2625.151497	480.355245
2626.573134	491.047552
2627.992926	501.600000
2629.414064	509.889510
2630.834952	519.833566
2632.252402	531.155245
2633.672791	539.485315
2635.089743	549.872727
2636.506447	558.918881
2637.922902	572.882517
2639.339109	586.002797
2640.755067	606.339860
2642.169185	621.229371
2643.583056	654.965035
2644.995087	679.513287
2646.408463	708.374825
2647.818409	738.360839
2649.231291	765.959441
2650.640744	795.275524
2652.049951	832.742657
2653.457322	868.218182
2654.867627	916.009790
2656.276096	963.823776
2657.682730	1027.415385
2659.089119	1081.739860
2660.493674	1155.251748
2661.899573	1221.662937
2663.303639	1289.563636
2664.707461	1349.759441
2666.111038	1414.497902
2667.512783	1475.331469
2668.915872	1531.260140
2670.315544	1579.496503
2671.716559	1627.591608
2673.114157	1660.583217
2674.514686	1689.675524
2675.911800	1695.739860
2677.310257	1701.089510
2678.706886	1686.770629
2680.103274	1652.034965
2681.499419	1606.177622
2682.893738	1560.281119
2684.289400	1500.386014
2685.681652	1437.251748
2687.075248	1371.907692
2688.467019	1300.251748
2689.860132	1226.813986
2691.251422	1158.406993
2692.640889	1084.553846
2694.030117	1022.274126
2695.419104	957.949650
2696.809434	898.983217
2698.194779	847.139860
2699.583049	800.398601
2700.969497	756.871329
2702.355708	722.444755
2703.741679	688.415385
2705.124252	655.107692
2706.508166	628.253147
2707.891843	600.956643
2709.275282	579.261538
2710.655325	563.193007
2712.036710	541.774825
2713.416279	532.774825
2714.797190	517.616783
2716.176286	505.141259
2717.553567	492.450350
2718.932190	486.416783
2720.309000	480.022378
2721.685574	477.506294
2723.061912	469.646154
2724.436438	462.330070
2725.812305	453.381818
2727.184785	446.502098
2728.560182	436.567832
2729.930617	431.906294
2731.302394	422.180420
2732.673937	426.241958
2734.043671	422.261538
2735.414745	430.865734
2736.784012	439.373427
2738.153045	447.120280
2739.520271	447.920280
2740.887265	446.836364
2742.254026	436.472727
2743.620554	433.320280
2744.985277	426.523077
2746.349769	421.492308
2747.714028	416.300699
2749.078056	419.032168
2750.441851	412.432168
2751.802273	413.825175
2753.165606	413.829371
2754.523996	413.653147
2755.885296	409.767832
2757.243225	401.874126
2758.604064	390.146853
2759.963102	390.334266
2761.318772	381.990210
2762.677350	390.966434
2764.032562	393.965035
2765.387544	401.180420
2766.740729	400.430769
2768.096821	401.510490
2769.449549	401.914685
2770.802048	399.706294
2772.154319	393.230769
2773.507929	389.450350
2774.858177	384.608392
2776.206632	390.454545
2777.557991	384.727273
2778.905991	395.902098
2780.255330	393.945455
2781.602876	401.448951
2782.950195	401.260140
2784.297288	394.583217
2785.642590	387.552448
2786.987666	384.917483
2788.332516	382.461538
2789.677140	385.791608
2791.018411	384.813986
2792.361021	389.518881
2793.703406	386.798601
2795.045565	391.078322
2796.384375	390.464336
2797.726085	397.159441
2799.064446	393.516084
2800.404145	384.844755
2801.742058	378.146853
2803.078187	380.892308
2804.414093	377.969231
2805.751335	381.500699
2807.086794	381.191608
2808.422030	386.544056
2809.755484	392.834965
2811.090274	398.078322
2812.421723	394.173427
2813.756068	392.159441
2815.085515	384.144056
2816.416299	374.325874
2817.746861	362.805594
2819.075644	358.423776
2820.405764	350.832168
2821.734104	345.862937
2823.062224	341.388811
2824.388567	340.496503
2825.716245	344.714685
2827.040591	349.191608
2828.366272	347.865734
2829.690179	353.001399
2831.013865	354.434965
2832.338887	358.271329
2833.660580	357.959441
2834.982053	359.443357
2836.303308	359.145455
2837.624344	358.686713
2838.943608	355.553846
2840.264207	351.141259
2841.583034	346.755245
2842.901643	340.239161
2844.218482	333.292308
2845.535103	330.955245
2846.851506	329.100699
2848.166141	330.436364
2849.482110	325.688112
2850.794759	328.760839
2852.108744	334.381818
2853.422512	340.595804
2854.736063	344.718881
2856.047847	348.636364
2857.357866	349.448951
2858.669219	347.688112
2859.977256	346.055944
2861.286629	349.890909
2862.595786	348.917483
2863.904728	346.535664
2865.211907	341.868531
2866.517322	342.920280
2867.824072	341.941259
2869.129059	345.953846
2870.433833	350.567832
2871.736845	355.012587
2873.042739	353.640559
2874.343777	354.079720
2875.646150	355.830769
2876.946763	361.138462
2878.248710	353.744056
2879.550444	351.458741
2880.848874	348.165035
2882.148637	342.695105
2883.446643	339.791608
2884.744437	336.204196
2886.040474	335.478322
2887.337845	337.855944
2888.633460	335.384615
2889.928865	342.117483
2891.224058	343.932867
2892.515953	347.441958
2893.810725	347.181818
2895.102200	347.351049
2896.395009	346.019580
2897.687607	344.832168
2898.976910	341.072727
2900.267546	332.288112
2901.556431	329.083916
2902.846649	327.827972
2904.133575	321.104895
2905.421833	319.117483
2906.708342	316.006993
2907.994642	318.391608
2909.280734	318.742657
2910.565078	316.805594
2911.852294	318.552448
2913.134683	325.916084
2914.418404	322.787413
2915.700378	320.279720
2916.982146	315.425175
2918.262168	318.874126
2919.545060	314.738462
2920.826207	314.398601
2922.104072	313.152448
2923.384806	317.283916
2924.662259	318.637762
2925.939507	317.955245
2927.215012	317.104895
2928.493385	321.871329
2929.766943	315.755245
2931.043369	312.330070
2932.318054	307.162238
2933.590999	308.646154
2934.865274	304.751049
2936.137810	302.886713
2937.410142	299.618182
2938.679201	304.563636
2939.951125	304.209790
2941.221310	302.443357
2942.491293	303.261538
2943.761072	306.966434
2945.029114	307.888112
2946.295421	309.110490
2947.561525	309.911888
2948.828960	311.692308
2950.094659	307.678322
2951.360156	304.685315
2952.625451	300.827972
2953.887482	300.858741
2955.150842	295.976224
2956.414001	291.709091
2957.675427	287.949650
2958.938183	284.324476
2960.199208	278.327273
2961.458502	278.955245
2962.717595	277.163636
2963.976488	280.306294
2965.235181	279.037762
2966.493674	285.812587
2967.750438	288.728671
2969.007002	295.202797
2970.261839	296.942657
2971.518005	298.930070
2972.770915	300.752448
2974.025155	301.935664
2975.279196	300.297902
2976.531511	307.269930
2977.783628	304.958042
2979.034020	310.384615
2980.287267	312.496503
2981.535737	315.395804
2982.787061	314.137063
2984.035137	317.062937
2985.283015	312.314685
2986.530696	309.923077
2987.778181	309.895105
2989.023944	305.525874
2990.269510	298.717483
2991.516405	296.723077
2992.760054	285.804196
2994.005032	279.186014
2995.246767	278.586014
2996.491353	275.130070
2997.734220	280.997203
2998.973845	287.051748
3000.216322	284.272727
3001.455558	290.139860
3002.696122	292.337063
3003.934969	294.025175
3005.173622	294.419580
3006.410559	291.820979
3007.648823	281.745455
3008.885373	276.300699
3010.121729	273.647552
3011.357891	269.039161
3012.592339	270.095105
3013.826594	265.430769
3015.060656	260.103497
3016.293006	266.741259
3017.523644	263.923077
3018.757128	271.236364
3019.988901	273.446154
3021.218962	272.770629
3022.448832	272.213986
3023.676992	270.897902
3024.906479	270.318881
3026.134256	272.602797
3027.361842	271.843357
3028.590754	271.632168
3029.814924	269.980420
3031.041937	274.546853
3032.265727	271.290909
3033.490842	276.040559
3034.714251	277.847552
3035.937471	276.899301
3037.158985	273.011189
3038.383340	274.510490
3039.602960	274.506294
3040.823906	277.497902
3042.044662	271.404196
3043.263715	269.275524
3044.484094	262.879720
3045.701256	263.420979
3046.919743	259.366434
3048.136529	262.528671
3049.353126	263.871329
3050.569536	256.763636
3051.782732	255.381818
3052.998766	260.081119
3054.211588	258.006993
3055.427247	260.188811
3056.638183	257.325874
3057.850445	261.288112
3059.062519	259.892308
3060.274407	261.861538
3061.484597	259.925874
3062.694602	259.213287
3063.904420	253.153846
3065.112542	248.860839
3066.320478	246.330070
3067.526720	246.743357
3068.734286	244.005594
3069.940157	244.030070
3071.145843	244.320280
3072.351344	243.870629
3073.555153	241.023776
3074.760285	242.920979
3075.963724	239.744056
3077.165471	238.367133
3078.367035	238.779021
3079.568415	243.580420
3080.769611	244.274126
3081.969117	243.293706
3083.168439	244.381818
3084.369085	246.193007
3085.568042	245.218182
3086.763803	241.967832
3087.962394	239.836364
3089.157791	239.685315
3090.354512	234.205594
3091.548040	234.890909
3092.744396	230.490909
3093.939065	230.488112
3095.130544	227.816783
3096.326354	222.472727
3097.517471	224.220979
3098.709910	225.289510
3099.899162	227.332867
3101.091240	226.330070
3102.281634	229.314685
3103.468841	230.479720
3104.657372	229.483916
3105.847225	232.745455
3107.033893	225.946853
3108.220382	234.979021
3109.406691	239.116084
3110.594323	240.226573
3111.778772	238.613986
3112.961541	243.916084
3114.147134	245.337063
3115.331046	244.179021
3116.513280	240.227972
3117.695336	231.882517
3118.877213	226.001399
3120.058912	223.342657
3121.238934	215.511888
3122.417278	221.702098
3123.598444	216.813986
3124.776434	218.093706
3125.954247	216.674126
3127.131883	224.388811
3128.307844	226.334266
3129.483629	229.572028
3130.660734	223.692308
3131.836166	223.937063
3133.009924	221.938462
3134.182009	223.716084
3135.355415	218.772028
3136.528646	220.075524
3137.700204	214.606993
3138.873084	218.825175
3140.042796	217.959441
3141.213829	223.427972
3142.383191	225.910490
3143.550884	229.177622
3144.721392	226.651748
3145.887241	230.513287
3147.057400	229.658741
3148.222901	229.493706
3149.388229	226.633566
3150.553383	228.584615
3151.718363	222.022378
3152.884664	225.739860
3154.046311	226.082517
3155.209279	232.657343
3156.372073	231.469930
3157.534695	227.860140
3158.695652	224.398601
3159.856436	220.158042
3161.017048	213.373427
3162.175997	207.977622
3163.334773	203.334266
3164.493378	202.195804
3165.651811	200.013986
3166.810072	207.064336
3167.966671	209.383217
3169.121609	212.569231
3170.277866	205.527273
3171.432463	203.265734
3172.586888	201.556643
3173.739654	200.906294
3174.892250	200.765035
3176.044676	202.816783
3177.196931	203.744056
3178.349017	210.186014
3179.497956	211.415385
3180.649702	211.415385
3181.799791	209.739860
3182.948222	207.567832
3184.096485	203.765035
3185.244579	202.786014
3186.392503	202.395804
3187.538773	205.651748
3188.684874	203.555245
3189.829321	205.219580
3190.973599	210.297902
3192.117710	215.727273
3193.263139	210.738462
3194.405429	209.083916
3195.547551	209.247552
3196.689507	209.088112
3197.831295	206.076923
3198.972916	206.741259
3200.111401	205.914685
3201.251205	207.668531
3202.392325	205.146853
3203.530311	208.920280
3204.666648	212.076923
3205.802819	212.446154
3206.940308	208.945455
3208.076148	209.327273
3209.213304	208.071329
3210.345848	207.930070
3211.482674	204.837762
3212.614888	206.600000
3213.748420	207.083916
3214.881786	212.012587
3216.012025	215.022378
3217.145062	219.615385
3218.274973	219.718881
3219.406201	219.904895
3220.534303	222.626573
3221.665203	227.418182
3222.794458	226.602797
3223.922069	228.187413
3225.046559	223.558042
3226.175324	219.734266
3227.300967	217.176224
3228.426447	220.390210
3229.550286	222.020979
3230.676920	224.616783
3231.798955	222.177622
3232.922307	222.039161
3234.045497	225.911888
3235.168525	231.429371
3236.289913	227.095105
3237.411140	226.892308
3238.530728	219.826573
3239.650155	221.216783
3240.767944	225.640559
3241.888526	230.718881
3243.005994	231.206993
3244.123301	237.839161
3245.240447	233.367832
3246.355958	234.062937
3247.472784	233.155245
3248.586499	230.075524
3249.703005	215.953846
3250.817875	209.220979
3251.929637	202.853147
3253.041240	202.949650
3254.154158	196.783217
3255.266916	199.323077
3256.376568	198.963636
3257.487535	206.574825
3258.598343	200.488112
3259.707519	198.379021
3260.815064	202.369231
3261.923924	209.425175
3263.032625	209.321678
3264.138224	214.860140
3265.245138	214.481119
3266.350422	212.735664
3267.457020	211.026573
3268.560518	216.047552
3269.665330	207.900699
3270.769985	206.304895
3271.871542	193.860140
3272.972942	188.895105
3274.075656	190.888112
3275.178213	193.956643
3276.277675	190.180420
3277.379919	190.209790
3278.479069	185.776224
3279.576593	188.413986
3280.673962	184.555245
3281.774114	179.137063
3282.871172	173.258741
3283.968076	176.690909
3285.064824	175.566434
3286.157013	177.502098
3287.253452	175.324476
3288.348268	177.469930
3289.442929	174.458741
3290.535969	183.153846
3291.628855	184.444755
3292.720120	188.520280
3293.812698	184.372028
3294.903656	184.800000
3295.992994	185.193007
3297.082179	188.202797
3298.172676	188.072727
3299.260089	190.208392
3300.347350	185.558042
3301.435923	185.397203
3302.524343	180.749650
3303.608216	186.353846
3304.696331	181.415385
3305.781365	180.944056
3306.864783	174.916084
3307.949513	172.958042
3309.032627	169.457343
3310.117053	169.303497
3311.198401	169.222378
3312.281061	171.612587
3313.362107	169.198601
3314.443002	169.020979
3315.522284	166.598601
3316.601415	170.321678
3317.681857	167.860140
3318.759226	169.560839
3319.837906	163.823776
3320.914974	167.841958
3321.991892	169.408392
3323.067200	171.432168
3324.142358	170.699301
3325.218827	171.293706
3326.292225	168.981818
3327.365475	168.009790
3328.440036	168.883916
3329.512987	170.773427
3330.584331	169.769231
3331.656985	170.692308
3332.726572	169.183217
3333.797470	174.969231
3334.866761	175.969231
3335.937363	174.927273
3337.006358	173.267133
3338.073747	176.039161
3339.139531	168.769231
3340.209541	171.956643
3341.276488	176.675524
3342.340373	179.972028
3343.407026	179.081119
3344.472075	179.036364
3345.535520	178.925874
3346.598818	175.913287
3347.661971	172.623776
3348.724977	169.373427
3349.787836	169.302098
3350.849094	170.871329
3351.907295	166.173427
3352.969717	173.606993
3354.029082	174.474126
3355.088303	178.930070
3356.148832	178.746853
3357.204852	182.794406
3358.263637	180.537063
3359.317914	177.243357
3360.374955	175.697902
3361.430397	175.762238
3362.487148	173.650350
3363.542302	173.092308
3364.595858	170.425175
3365.647817	166.995804
3366.702538	161.425175
3367.754211	162.170629
3368.805739	160.194406
3369.858577	160.236364
3370.908367	157.759441
3371.959466	157.569231
3373.007518	159.412587
3374.058331	162.974825
3375.106098	163.131469
3376.153723	164.945455
3377.201206	164.241958
3378.247095	166.253147
3379.294294	164.841958
3380.338449	165.979021
3381.385363	164.218182
3382.430685	160.051748
3383.472967	158.152448
3384.515107	160.153846
3385.558556	162.889510
3386.601863	163.411189
3387.643580	160.597203
3388.685156	160.967832
3389.726592	160.029371
3390.766439	162.285315
3391.804697	158.234965
3392.844263	158.313287
3393.883689	155.117483
3394.921527	151.455944
3395.957778	150.002797
3396.993889	152.012587
3398.031308	149.420979
3399.065694	150.567832
3400.101388	144.476923
3401.136942	144.344056
3402.169464	139.120280
3403.204740	138.167832
3404.236985	138.363636
3405.269092	141.453147
3406.299615	138.541259
3407.331446	138.637762
3408.363138	140.170629
3409.391802	143.949650
3410.420328	144.254545
3411.450162	147.815385
3412.479857	143.128671
3413.506527	144.099301
3414.534504	144.686713
3415.559456	149.027972
3416.587158	153.516084
3417.611837	151.039161
3418.637822	151.036364
3419.662227	154.774825
3420.686496	154.878322
3421.709186	156.595804
3422.731740	154.641958
3423.755600	153.337063
3424.776440	149.681119
3425.797145	149.406993
3426.819155	149.593307
3427.838147	150.173626
3428.857004	151.081518
3429.877166	152.250549
3430.894312	153.614286
