-118.362301	-4.442857
-115.692700	6.066667
-113.026036	7.438095
-110.360123	4.038095
-107.697142	1.885714
-105.032732	2.219048
-102.371252	2.961905
-99.708342	5.961905
-97.050540	2.409524
-94.391307	11.390476
-91.732823	17.914286
-89.077264	21.200000
-86.420276	18.057143
-83.768385	15.247619
-81.115065	9.114286
-78.464665	7.228571
-75.812835	4.961905
-73.166096	4.009524
-70.517927	7.142857
-67.870502	8.647619
-65.225990	10.314286
-62.580050	6.742857
-59.939191	-0.866667
-57.296902	2.752381
-54.657523	5.676190
-52.016715	9.285714
-49.376646	8.009524
-46.741651	4.266667
-44.105226	0.609524
-41.471705	10.342857
-38.836755	18.523810
-36.206870	27.838095
-33.573392	30.323810
-30.944977	27.514286
-28.317296	30.752381
-25.688187	37.257143
-23.064134	43.047619
-20.436492	52.580952
-17.813903	57.342857
-15.192045	24.609524
-12.570918	-15.409524
-9.950522	56.695238
-7.333013	2937.457143
-4.714076	9420.990476
-2.098025	15172.323810
0.517298	16042.476190
3.131894	12131.895238
5.743608	5183.561905
8.356749	80.733333
10.964857	-776.571429
13.576547	-28.228571
16.183206	47.761905
18.791293	39.961905
21.398656	32.733333
24.000994	28.409524
26.606910	21.085714
29.207805	22.409524
31.810127	12.285714
34.407431	4.914286
37.008311	8.514286
39.604177	16.647619
42.201470	32.933333
44.798044	42.723810
47.389609	35.942857
49.982602	19.771429
52.572734	9.790476
55.164294	1.028571
57.752994	8.980952
60.343122	7.200000
62.928250	8.742857
65.514806	11.104762
68.100647	15.038095
70.683635	18.371429
73.268050	14.361905
75.845335	12.333333
78.426187	14.980952
81.004190	21.057143
83.581483	22.057143
86.160202	19.228571
88.733940	8.085714
91.309104	6.523810
93.881425	3.552381
96.453039	3.533333
99.021812	10.819048
101.592012	12.809524
104.159373	15.180952
106.728161	17.457143
109.294111	13.542857
111.857227	14.961905
114.423900	23.380952
116.981350	27.000000
119.544486	30.742857
122.102663	42.419048
124.664393	61.076190
127.221168	102.628571
129.779368	163.752381
132.332616	253.457143
134.885165	380.780952
137.441266	523.219048
139.992418	677.609524
142.542872	821.152381
145.092630	938.171429
147.639568	1024.514286
150.185810	1088.076190
152.733479	1112.333333
155.280451	1118.923810
157.822487	1108.695238
160.363830	1104.790476
162.904481	1098.685714
165.446556	1087.152381
167.985821	1075.676190
170.522276	1070.438095
173.058041	1067.485714
175.595231	1064.904762
178.131729	1064.800000
180.665422	1064.914286
183.196312	1060.409524
185.726513	1056.590476
188.258139	1051.247619
190.786964	1035.314286
193.312991	1041.228571
195.838331	1046.971429
198.365096	1049.580952
200.889065	1046.285714
203.412348	1043.580952
205.934947	1042.942857
208.454753	1057.676190
210.973876	1048.923810
213.492316	1053.333333
216.012180	1054.514286
218.525043	1062.914286
221.041437	1074.514286
223.557149	1094.533333
226.067972	1106.857143
228.580219	1124.647619
231.089683	1124.923810
233.598469	1131.952381
236.106577	1146.438095
238.616109	1152.352381
241.120760	1156.438095
243.624735	1153.600000
246.130134	1130.238095
248.630658	1130.019048
251.134705	1141.438095
253.631782	1156.885714
256.132381	1157.380952
258.630209	1159.114286
261.127364	1135.742857
263.623846	1130.200000
266.115466	1120.104762
268.610604	1124.304762
271.102977	1125.276190
273.594679	1135.028571
276.083618	1143.219048
278.573980	1152.295238
281.061581	1161.980952
283.546422	1169.723810
286.034777	1171.457143
288.516193	1185.333333
291.001124	1204.628571
293.481208	1229.571429
295.964805	1263.190476
298.443560	1293.895238
300.923737	1300.076190
303.401163	1311.628571
305.877925	1282.904762
308.354023	1256.923810
310.827373	1227.876190
313.300062	1211.590476
315.772088	1216.800000
318.243454	1245.971429
320.712076	1256.057143
323.180038	1266.019048
325.649423	1242.276190
328.113985	1199.276190
330.582050	1155.542857
333.045296	1118.476190
335.507885	1092.152381
337.969816	1098.819048
340.431091	1095.542857
342.889632	1094.790476
345.349595	1073.590476
347.806826	1053.495238
350.263402	1033.019048
352.719323	1027.219048
355.172516	1022.619048
357.627131	1020.847619
360.076944	995.104762
362.530253	981.504762
364.978763	958.914286
367.426623	952.580952
369.875904	955.285714
372.320392	955.590476
374.766302	938.600000
377.211563	939.819048
379.654105	932.895238
382.095999	936.771429
384.537245	936.723810
386.975776	926.209524
389.415729	903.771429
391.852968	891.209524
394.287495	876.780952
396.725510	873.714286
399.158748	879.133333
401.593408	878.895238
404.023294	881.219048
406.456667	877.561905
408.885268	867.066667
411.313229	867.876190
413.742610	880.323810
416.167227	882.247619
418.593264	878.809524
421.018662	869.809524
423.443419	853.857143
425.863417	836.933333
428.284837	835.257143
430.703560	838.333333
433.123704	828.276190
435.541153	820.542857
437.960022	803.495238
440.376198	781.895238
442.787627	761.076190
445.202532	757.523810
447.614747	738.552381
450.026328	726.485714
452.437275	713.314286
454.845536	702.371429
457.253165	689.009524
459.660161	677.352381
462.066525	656.857143
464.470208	654.838095
466.873260	645.790476
469.275682	646.676190
471.677474	663.638095
474.076588	673.971429
476.477122	677.666667
478.877027	698.819048
481.272209	705.638095
483.670858	722.123810
486.064787	755.476190
488.458090	797.123810
490.850767	828.438095
493.242819	873.895238
495.636290	938.495238
498.025048	1043.047619
500.411140	1217.495238
502.798652	1489.209524
505.185540	1931.504762
507.569765	2666.400000
509.955409	3831.038095
512.338390	5455.647619
514.718711	7157.552381
517.100451	8343.247619
519.479532	8588.285714
521.860032	7883.295238
524.237874	6630.247619
526.613061	5385.219048
528.987630	4403.580952
531.363618	3701.628571
533.736952	3187.361905
536.111705	2806.161905
538.481771	2517.266667
540.851222	2275.000000
543.222092	2074.295238
545.588280	1896.428571
547.955887	1750.190476
550.320848	1646.142857
552.685196	1557.409524
555.048932	1478.685714
557.414085	1427.504762
559.774566	1372.704762
562.136464	1327.809524
564.495723	1306.990476
566.852343	1268.257143
569.212409	1223.361905
571.565783	1197.400000
573.922602	1157.200000
576.276786	1115.438095
578.630361	1092.904762
580.983328	1066.457143
583.333664	1046.438095
585.685416	1033.647619
588.030492	1013.104762
590.381032	987.466667
592.724899	969.761905
595.074226	948.038095
597.418906	931.952381
599.760961	907.971429
602.104433	895.533333
604.445281	896.238095
606.785528	906.638095
609.123154	927.971429
611.464215	963.304762
613.800639	1009.180952
616.138479	1032.942857
618.473701	1033.780952
620.806308	989.828571
623.140332	933.552381
625.471741	884.895238
627.802552	867.885714
630.132765	864.161905
632.462380	859.161905
634.787373	859.638095
637.117807	855.600000
639.443619	845.438095
641.766825	835.123810
644.091447	836.809524
646.413463	814.152381
648.734885	808.952381
651.053704	798.209524
653.373939	778.971429
655.693581	773.695238
658.010622	771.952381
660.327072	762.647619
662.640923	764.238095
664.956189	767.133333
667.268859	768.866667
669.582944	780.742857
671.892430	781.057143
674.203330	776.742857
676.511638	774.495238
678.819358	764.419048
681.128493	752.390476
683.433035	738.838095
685.736991	725.647619
688.040360	709.628571
690.345144	701.428571
692.645342	691.161905
694.946955	680.819048
697.247982	671.457143
699.544428	653.133333
701.842288	636.695238
704.139565	625.495238
706.436259	624.171429
708.728377	619.085714
711.023906	618.971429
713.314862	617.561905
715.607232	608.057143
717.897026	601.371429
720.186241	599.571429
722.474875	597.857143
724.760938	605.838095
727.048414	619.876190
729.333320	620.828571
731.617647	621.828571
733.899407	617.980952
736.182580	608.628571
738.465176	597.542857
740.743216	589.780952
743.022670	589.038095
745.301549	602.171429
747.579852	613.190476
749.853606	602.114286
752.128774	597.228571
754.403368	593.514286
756.675403	595.095238
758.948851	589.466667
761.219741	591.323810
763.488074	589.247619
765.757822	589.676190
768.025014	599.000000
770.291636	612.390476
772.557689	614.514286
774.821190	613.666667
777.086103	614.752381
779.350448	607.238095
781.610262	601.752381
783.871490	611.590476
786.132150	619.009524
788.390263	623.561905
790.645832	621.771429
792.904792	623.209524
795.157253	614.942857
797.415081	625.676190
799.668390	617.085714
801.919158	628.200000
804.171339	623.819048
806.420982	620.238095
808.672036	602.323810
810.918579	606.304762
813.166535	599.133333
815.411955	612.438095
817.658787	610.047619
819.905058	607.447619
822.146825	583.628571
824.391974	577.561905
826.630651	573.933333
828.872711	576.380952
831.110272	570.495238
833.349244	576.590476
835.585690	563.857143
837.823548	567.333333
840.058880	563.828571
842.291688	563.038095
844.525908	565.314286
846.757606	578.285714
848.988749	579.314286
851.219337	580.838095
853.449371	566.971429
855.678850	562.504762
857.903849	561.561905
860.132221	560.809524
862.356115	560.085714
864.581419	552.438095
866.802248	538.228571
869.026449	524.542857
871.246177	514.590476
873.467316	518.257143
875.687904	536.609524
877.905983	548.561905
880.125471	560.314286
882.340493	550.504762
884.554967	549.238095
886.768894	554.761905
888.982273	551.476190
891.195106	549.257143
893.407391	546.066667
895.617175	537.085714
897.826413	540.152381
900.035105	546.952381
902.241299	546.828571
904.448902	560.904762
906.654008	564.809524
908.858570	573.380952
911.060636	577.857143
913.264112	590.152381
915.465095	598.114286
917.665535	605.657143
919.867384	615.247619
922.062841	634.904762
924.261658	676.361905
926.456037	736.961905
928.653773	817.323810
930.847073	896.371429
933.041781	997.295238
935.234004	1080.276190
937.425689	1164.657143
939.616836	1218.742857
941.805500	1244.761905
943.993627	1250.542857
946.179274	1248.619048
948.368273	1242.238095
950.552849	1246.838095
952.736890	1246.390476
954.924281	1245.561905
957.103369	1248.552381
959.285806	1231.857143
961.467710	1236.485714
963.647140	1245.257143
965.824097	1248.161905
968.002462	1259.333333
970.182233	1272.790476
972.355656	1280.009524
974.532425	1297.295238
976.704788	1300.923810
978.878557	1286.542857
981.047924	1260.323810
983.220634	1213.561905
985.390878	1153.780952
987.560594	1075.314286
989.729781	983.333333
991.894571	900.152381
994.062702	843.771429
996.226439	797.476190
998.391582	771.390476
1000.554267	750.228571
1002.716426	725.904762
1004.876127	702.304762
1007.035305	699.171429
1009.195889	689.247619
1011.354018	681.285714
1013.511623	667.504762
1015.668705	647.619048
1017.825264	623.209524
1019.977443	608.104762
1022.131029	591.123810
1024.284092	589.704762
1026.434708	588.647619
1028.586729	590.638095
1030.734377	575.342857
1032.885357	556.371429
1035.031966	547.333333
1037.178057	546.276190
1039.323629	549.590476
1041.470605	551.857143
1043.611294	549.514286
1045.755311	544.447619
1047.896888	548.057143
1050.037949	543.904762
1052.180414	543.028571
1054.316600	546.152381
1056.456112	550.314286
1058.591268	546.495238
1060.729749	535.819048
1062.863877	521.142857
1064.997491	531.657143
1067.132509	548.857143
1069.263178	552.895238
1071.395252	549.666667
1073.524897	543.457143
1075.654030	524.666667
1077.782652	524.190476
1079.910762	514.800000
1082.036446	500.695238
1084.161620	501.533333
1086.288197	509.409524
1088.410438	507.504762
1090.534083	513.447619
1092.653393	515.247619
1094.777932	513.171429
1096.896227	515.752381
1099.015925	518.866667
1101.133205	512.980952
1103.249979	510.257143
1105.366246	504.695238
1107.480098	502.085714
1109.595353	491.104762
1111.706286	488.971429
1113.820530	490.876190
1115.930455	490.628571
1118.041782	489.409524
1120.152606	495.285714
1122.259113	491.971429
1124.368929	488.733333
1126.474431	491.066667
1128.581337	486.200000
1130.682026	481.790476
1132.787928	477.580952
1134.889521	483.180952
1136.992517	481.895238
1139.095012	487.619048
1141.191301	480.828571
1143.292796	469.742857
1145.389989	461.219048
1147.486683	458.085714
1149.582880	449.590476
1151.678578	456.428571
1153.773779	453.485714
1155.866583	455.561905
1157.960789	457.838095
1160.048804	460.571429
1162.142017	453.885714
1164.229042	455.419048
1166.319367	453.914286
1168.405403	454.361905
1170.494737	458.295238
1172.577890	456.780952
1174.662446	444.342857
1176.748402	437.066667
1178.830077	430.876190
1180.913154	433.580952
1182.993845	452.847619
1185.074044	463.057143
1187.153753	470.657143
1189.232969	472.104762
1191.309804	467.961905
1193.384258	458.314286
1195.462004	458.323810
1197.535479	453.638095
1199.610356	448.485714
1201.680965	439.161905
1203.752975	441.942857
1205.822609	441.495238
1207.893644	453.504762
1209.964191	456.409524
1212.030477	447.209524
1214.098164	433.876190
1216.163479	433.771429
1218.230194	434.914286
1220.292653	442.114286
1222.358397	437.942857
1224.419888	442.514286
1226.482778	431.190476
1228.543301	430.028571
1230.603341	431.257143
1232.662897	437.514286
1234.720089	444.009524
1236.776798	455.647619
1238.831145	446.942857
1240.888772	448.809524
1242.944037	451.057143
1244.995061	451.066667
1247.047485	454.180952
1249.099430	450.171429
1251.149015	451.571429
1253.198123	454.742857
1255.246751	461.371429
1257.294901	457.219048
1259.342573	450.590476
1261.386014	451.152381
1263.432730	460.209524
1265.477094	466.885714
1267.520980	487.457143
1269.562516	488.361905
1271.601702	487.600000
1273.644160	486.600000
1275.682397	481.685714
1277.722031	475.409524
1279.761191	480.314286
1281.796133	468.638095
1283.832473	471.685714
1285.866468	467.295238
1287.901862	465.438095
1289.933042	469.419048
1291.965621	475.666667
1293.997727	480.447619
1296.027493	482.933333
1298.058657	482.371429
1300.085613	481.742857
1302.113967	476.904762
1304.138117	477.590476
1306.165531	470.352381
1308.188744	463.171429
1310.213353	459.780952
1312.235629	457.838095
1314.259302	455.733333
1316.280642	461.219048
1318.301514	449.009524
1320.321920	451.542857
1322.338131	446.666667
1324.355741	449.990476
1326.371022	453.333333
1328.389562	457.942857
1330.403912	456.161905
1332.415937	459.076190
1334.431220	456.590476
1336.442317	456.933333
1338.454810	459.942857
1340.463121	462.780952
1342.474688	463.371429
1344.480216	463.000000
1346.488998	457.361905
1348.493604	455.609524
1350.501463	458.057143
1352.508859	458.790476
1354.510225	456.342857
1356.512988	450.771429
1358.515291	454.847619
1360.517133	470.514286
1362.518517	481.723810
1364.517586	479.095238
1366.516197	474.704762
1368.514350	456.857143
1370.512045	450.247619
1372.505576	451.285714
1374.500504	450.742857
1376.494975	440.000000
1378.488989	447.828571
1380.480696	448.114286
1382.471947	452.676190
1384.460893	448.504762
1386.451234	440.571429
1388.441120	431.638095
1390.428703	441.457143
1392.415832	443.638095
1394.400659	442.409524
1396.386881	431.971429
1398.370802	419.095238
1400.354271	410.609524
1402.337288	426.419048
1404.318007	434.485714
1406.300120	447.771429
1408.279936	451.247619
1410.259302	455.257143
1412.234529	448.723810
1414.212994	452.314286
1416.189166	441.085714
1418.164888	443.733333
1420.140161	438.923810
1422.113143	449.780952
1424.085678	451.609524
1426.057764	456.523810
1428.029402	458.171429
1429.996913	450.876190
1431.969497	439.066667
1433.934275	435.942857
1435.904126	437.361905
1437.869852	442.314286
1439.836972	456.123810
1441.801808	457.266667
1443.762524	450.971429
1445.728308	450.466667
1447.688137	448.238095
1449.649359	445.638095
1451.611974	452.857143
1453.570474	466.542857
1455.528532	469.609524
1457.486147	475.752381
1459.443321	479.742857
1461.398219	469.809524
1463.354509	471.647619
1465.308525	472.714286
1467.262101	468.457143
1469.213404	465.980952
1471.166099	466.742857
1473.116523	459.038095
1475.066508	468.800000
1477.016053	467.028571
1478.963330	462.533333
1480.908340	458.580952
1482.854742	457.752381
1484.800706	459.066667
1486.746232	457.542857
1488.689494	453.923810
1490.632319	448.123810
1492.572881	442.552381
1494.514834	447.295238
1496.454526	459.904762
1498.393782	461.809524
1500.332604	476.361905
1502.269166	481.457143
1504.207118	471.228571
1506.142813	458.419048
1508.078074	466.095238
1510.011078	464.161905
1511.943650	470.428571
1513.875790	481.390476
1515.807498	475.971429
1517.736952	473.990476
1519.667797	485.371429
1521.598211	494.742857
1523.524552	493.400000
1525.452283	497.933333
1527.377764	496.800000
1529.302816	504.933333
1531.227439	522.114286
1533.151633	528.914286
1535.073580	532.171429
1536.996916	537.590476
1538.918007	538.885714
1540.836853	548.009524
1542.757089	554.590476
1544.675081	556.742857
1546.592647	578.942857
1548.507971	599.533333
1550.424685	626.047619
1552.337344	642.200000
1554.253207	643.857143
1556.166831	650.790476
1558.078216	656.457143
1559.990990	672.333333
1561.899715	716.628571
1563.809830	756.380952
1565.719521	811.561905
1567.628788	887.142857
1569.535822	993.009524
1571.440623	1124.380952
1573.346813	1284.523810
1575.250771	1435.152381
1577.154309	1613.790476
1579.057425	1812.285714
1580.958313	2031.514286
1582.860588	2237.314286
1584.760636	2394.028571
1586.662072	2465.771429
1588.559473	2435.333333
1590.456457	2271.257143
1592.353022	2030.238095
1594.250974	1762.104762
1596.143092	1505.085714
1598.038403	1300.923810
1599.933297	1129.266667
1601.825969	984.790476
1603.718225	871.819048
1605.608261	788.771429
1607.497881	734.771429
1609.387086	693.076190
1611.275875	665.790476
1613.162448	645.552381
1615.050407	626.942857
1616.934351	609.828571
1618.819681	591.066667
1620.704597	574.342857
1622.587301	561.600000
1624.471390	540.161905
1626.351469	520.676190
1628.232934	495.638095
1630.112189	463.580952
1631.992830	440.647619
1633.867667	424.638095
1635.747486	416.723810
1637.623299	417.695238
1639.498703	416.790476
1641.375492	414.476190
1643.246484	405.409524
1645.120658	397.676190
1646.990834	388.942857
1648.864190	380.628571
1650.735343	378.123810
1652.604294	370.923810
1654.474631	362.885714
1656.340974	358.152381
1658.208703	347.152381
1660.074234	341.761905
1661.941149	342.361905
1663.804076	349.314286
1665.668388	354.895238
1667.530505	358.352381
1669.392216	358.942857
1671.255312	357.285714
1673.116214	342.000000
1674.974922	337.876190
1676.833227	328.580952
1678.692917	323.257143
1680.546840	327.666667
1682.403935	337.866667
1684.260628	338.542857
1686.113345	342.733333
1687.969233	336.761905
1689.821147	322.933333
1691.672659	318.438095
1693.523772	311.600000
1695.374483	309.123810
1697.224794	312.466667
1699.072921	310.752381
1700.922431	310.190476
1702.766193	310.085714
1704.614905	306.866667
1706.457870	303.371429
1708.304001	307.076190
1710.146171	309.580952
1711.991505	313.914286
1713.831099	311.295238
1715.672077	301.771429
1717.514438	294.257143
1719.352843	296.323810
1721.192631	297.780952
1723.030244	295.800000
1724.867461	295.409524
1726.702505	286.361905
1728.538932	295.895238
1730.373187	297.019048
1732.207048	295.580952
1734.040514	289.523810
1735.870034	283.800000
1737.702713	282.409524
1739.531448	298.209524
1741.363341	302.419048
1743.191291	301.247619
1745.018849	300.895238
1746.846016	290.409524
1748.672790	283.085714
1750.499174	280.057143
1752.321621	281.761905
1754.147222	281.866667
1755.968889	280.190476
1757.791938	278.466667
1759.612826	276.800000
1761.433324	278.476190
1763.255204	279.276190
1765.071384	283.247619
1766.890716	280.657143
1768.706121	278.695238
1770.524676	286.885714
1772.339307	292.714286
1774.153550	289.495238
1775.967407	283.095238
1777.780877	273.780952
1779.592193	266.657143
1781.404891	278.657143
1783.217202	283.380952
1785.025596	283.028571
1786.835371	277.504762
1788.641230	268.371429
1790.450236	264.009524
1792.255328	268.171429
1794.061800	268.657143
1795.867889	270.590476
1797.670068	276.504762
1799.475390	282.171429
1801.276804	276.866667
1803.079598	275.247619
1804.878487	272.209524
1806.678755	268.390476
1808.478643	271.504762
1810.276388	277.314286
1812.073753	265.190476
1813.870737	262.780952
1815.667341	259.380952
1817.461806	249.600000
1819.257651	256.638095
1821.047840	257.123810
1822.842926	262.085714
1824.632359	264.371429
1826.424930	266.361905
1828.215365	267.009524
1830.003665	271.790476
1831.795101	260.419048
1833.580891	266.580952
1835.368061	266.504762
1837.153099	270.761905
1838.941271	267.400000
1840.725557	269.238095
1842.507714	264.666667
1844.291249	264.142857
1846.072657	266.723810
1847.855442	273.866667
1849.634348	267.847619
1851.414632	270.580952
1853.192791	278.723810
1854.972327	278.780952
1856.749739	278.580952
1858.525027	282.266667
1860.301694	278.409524
1862.076238	271.180952
1863.852159	276.990476
1865.622461	274.733333
1867.395890	269.209524
1869.167199	266.133333
1870.938137	265.847619
1872.710452	270.400000
1874.477155	275.838095
1876.246982	274.409524
1878.012946	273.428571
1879.782034	270.533333
1881.547260	269.809524
1883.312118	280.161905
1885.078352	280.857143
1886.840728	280.657143
1888.602737	279.038095
1890.364379	269.676190
1892.125653	259.809524
1893.886561	269.000000
1895.647101	269.428571
1897.405532	266.371429
1899.163598	261.361905
1900.919556	250.704762
1902.676890	251.961905
1904.433858	267.571429
1906.188721	276.314286
1907.941478	273.857143
1909.693872	263.780952
1911.447641	253.333333
1913.199307	248.180952
1914.948871	245.447619
1916.699811	251.009524
1918.450387	249.504762
1920.197125	242.885714
1921.945238	246.076190
1923.691252	250.952381
1925.438642	253.771429
1927.183933	253.961905
1928.927127	249.742857
1930.671697	239.171429
1932.414170	238.790476
1934.156283	241.904762
1935.898036	243.028571
1937.639430	243.047619
1939.378730	246.752381
1941.117671	250.276190
1942.856253	257.257143
1944.592743	263.247619
1946.328876	258.238095
1948.066383	252.266667
1949.800069	240.904762
1951.535128	235.790476
1953.268100	231.771429
1955.000715	240.552381
1956.732973	245.885714
1958.464875	246.161905
1960.194691	248.409524
1961.922423	255.619048
1963.651528	253.485714
1965.380279	258.457143
1967.106946	260.057143
1968.833259	250.809524
1970.560945	244.133333
1972.283095	244.276190
1974.008346	238.514286
1975.729791	248.333333
1977.454335	248.685714
1979.176800	256.180952
1980.895461	261.238095
1982.617221	260.323810
1984.335179	246.400000
1986.054511	245.247619
1987.770042	236.076190
1989.490395	242.552381
1991.206948	246.333333
1992.919706	246.000000
1994.635559	242.238095
1996.349339	247.533333
1998.062770	252.000000
1999.774130	255.409524
2001.486863	249.847619
2003.195804	243.380952
2004.907839	240.695238
2006.614364	235.190476
2008.323982	233.780952
2010.031532	231.057143
2011.738735	227.714286
2013.443872	243.095238
2015.148662	253.142857
2016.854824	251.000000
2018.557204	253.314286
2020.260956	250.095238
2021.962645	244.476190
2023.663988	245.095238
2025.364986	240.638095
2027.063924	245.847619
2028.764233	251.209524
2030.460766	256.647619
2032.158671	254.800000
2033.854518	244.133333
2035.553450	235.609524
2037.246895	235.019048
2038.941713	235.638095
2040.636187	235.628571
2042.326893	239.428571
2044.020683	242.485714
2045.710706	241.590476
2047.402100	235.409524
2049.091441	229.752381
2050.782152	221.485714
2052.469101	224.400000
2054.155709	226.047619
2055.843688	236.228571
2057.527907	236.266667
2059.213496	238.095238
2060.898746	239.933333
2062.581948	247.676190
2064.266520	246.685714
2065.945628	242.123810
2067.629522	233.933333
2069.307956	235.666667
2070.989467	235.666667
2072.667226	249.142857
2074.344649	251.819048
2076.023441	247.247619
2077.700190	239.847619
2079.374898	242.704762
2081.050975	235.857143
2082.725012	241.609524
2084.398713	242.590476
2086.072079	231.523810
2087.743407	229.533333
2089.414400	235.361905
2091.085059	238.619048
2092.755384	242.295238
2094.425374	241.657143
2096.093329	235.257143
2097.760951	236.123810
2099.426539	226.580952
2101.093495	233.085714
2102.758418	232.409524
2104.423008	229.571429
2106.085567	235.923810
2107.749495	239.295238
2109.411391	239.600000
2111.072956	241.828571
2112.734191	234.295238
2114.393396	233.009524
2116.052272	229.295238
2117.710817	239.657143
2119.369033	250.133333
2121.023525	249.600000
2122.681083	248.895238
2124.338310	247.409524
2125.991817	234.152381
2127.646691	229.133333
2129.297846	221.076190
2130.952064	227.552381
2132.602564	235.428571
2134.254432	236.685714
2135.900891	233.638095
2137.552104	221.485714
2139.199604	216.009524
2140.848472	220.990476
2142.495320	224.466667
2144.141842	223.952381
2145.788039	230.361905
2147.430528	231.161905
2149.076075	232.266667
2150.717915	223.904762
2152.362812	222.904762
2154.004004	221.876190
2155.644872	228.828571
2157.285417	231.657143
2158.923949	231.590476
2160.563847	230.476190
2162.200045	236.333333
2163.837609	237.323810
2165.474851	229.180952
2167.110083	229.990476
2168.744993	227.847619
2170.379582	230.866667
2172.013850	229.961905
2173.644424	230.838095
2175.278049	224.380952
2176.907983	237.219048
2178.539282	238.152381
2180.168577	235.371429
2181.797551	229.495238
2183.426207	226.809524
2185.054543	220.990476
2186.680876	228.457143
2188.306891	232.285714
2189.930905	228.447619
2191.556284	228.228571
2193.179662	227.495238
2194.804405	224.466667
2196.425466	223.857143
2198.046212	224.419048
2199.668321	220.971429
2201.288433	222.295238
2202.906549	222.857143
2204.524349	221.257143
2206.141833	217.628571
2207.759002	213.828571
2209.375856	211.028571
2210.992395	222.552381
2212.606940	232.933333
2214.219493	242.142857
2215.833411	242.933333
2217.445336	234.000000
2219.058626	222.695238
2220.669924	214.180952
2222.279233	215.514286
2223.889906	220.723810
2225.498590	224.942857
2227.106962	222.771429
2228.713346	222.257143
2230.321094	214.695238
2231.926855	217.552381
2233.532305	221.066667
2235.135771	226.009524
2236.740599	220.409524
2238.343443	211.676190
2239.944304	214.638095
2241.546528	221.771429
2243.146769	226.809524
2244.748373	236.038095
2246.346325	231.276190
2247.945639	216.590476
2249.542973	215.219048
2251.139999	215.847619
2252.738386	217.266667
2254.333125	230.838095
2255.925888	235.961905
2257.520012	234.352381
2259.115498	229.904762
2260.707340	229.561905
2262.298875	225.571429
2263.891771	225.780952
2265.479358	219.038095
2267.071642	211.142857
2268.658618	210.476190
2270.248623	217.733333
2271.833323	224.447619
2273.422717	231.219048
2275.006808	232.980952
2276.592261	227.952381
2278.175745	229.295238
2279.762254	218.771429
2281.345130	218.238095
2282.927702	220.428571
2284.509972	217.666667
2286.088611	212.228571
2287.670274	220.476190
2289.248309	223.171429
2290.829368	230.904762
2292.406799	232.028571
2293.982267	221.342857
2295.560757	210.980952
2297.135622	217.819048
2298.710187	220.504762
2300.284452	222.704762
2301.858416	225.933333
2303.432080	220.095238
2305.005443	213.933333
2306.575188	216.704762
2308.144634	206.628571
2309.717099	194.761905
2311.284288	204.304762
2312.854496	215.304762
2314.421089	217.123810
2315.989042	228.123810
2317.555040	224.752381
2319.120740	215.819048
2320.686142	223.000000
2322.249591	233.904762
2323.814398	230.466667
2325.375598	244.019048
2326.939812	256.247619
2328.498765	262.419048
2330.060731	256.657143
2331.620747	252.133333
2333.180467	240.323810
2334.738238	235.476190
2336.295715	232.628571
2337.852896	224.704762
2339.408131	217.304762
2340.963071	210.990476
2342.517718	229.314286
2344.072071	234.095238
2345.626130	235.942857
2347.179896	221.333333
2348.731717	218.571429
2350.281595	211.047619
2351.834481	225.542857
2353.382125	227.428571
2354.932776	230.019048
2356.479837	215.028571
2358.028255	214.000000
2359.576381	206.361905
2361.120920	208.552381
2362.666816	212.533333
2364.210773	215.228571
2365.756088	212.847619
2367.297818	212.780952
2368.840906	209.438095
2370.382057	220.419048
2371.922919	228.257143
2373.463492	230.285714
2375.003776	233.571429
2376.543771	228.800000
2378.080187	219.961905
2379.619605	216.800000
2381.155446	216.161905
2382.692643	209.809524
2384.226266	216.466667
2385.762888	213.295238
2387.297579	215.285714
2388.830341	214.609524
2390.362817	213.057143
2391.893364	203.904762
2393.426909	207.361905
2394.955243	204.838095
2396.484933	217.266667
2398.014338	225.476190
2399.543458	228.933333
2401.072292	217.314286
2402.595922	212.828571
2404.124187	204.371429
2405.647249	210.361905
2407.174946	222.428571
2408.695802	226.838095
2410.221292	227.171429
2411.743221	226.447619
2413.266506	224.980952
2414.787870	232.819048
2416.307314	236.000000
2417.828113	226.514286
2419.346993	229.819048
2420.865591	228.400000
2422.382272	239.838095
2423.900308	250.304762
2425.418062	260.561905
2426.932264	262.514286
2428.446186	262.314286
2429.959829	257.885714
2431.474825	260.171429
2432.986273	257.590476
2434.499076	262.180952
2436.009966	270.752381
2437.520576	276.676190
2439.029275	273.952381
2440.540961	278.266667
2442.049103	281.828571
2443.556966	280.809524
2445.064552	288.180952
2446.568598	292.504762
2448.075628	292.457143
2449.580750	298.180952
2451.085595	303.885714
2452.588533	304.276190
2454.091194	303.380952
2455.593579	296.980952
2457.094059	291.828571
2458.595892	288.333333
2460.095821	284.457143
2461.595474	294.314286
2463.094852	288.914286
2464.592327	283.123810
2466.087900	275.057143
2467.586453	268.047619
2469.081477	258.057143
2470.577855	265.504762
2472.070706	256.485714
2473.564909	251.228571
2475.058839	247.809524
2476.549246	249.904762
2478.042630	257.009524
2479.534115	257.342857
2481.023704	250.857143
2482.513021	241.542857
2484.000443	237.619048
2485.490840	229.495238
2486.977718	242.790476
2488.465948	246.447619
2489.950662	252.361905
2491.435105	247.447619
2492.920900	238.304762
2494.404802	221.533333
2495.890056	228.704762
2497.370176	226.190476
2498.853268	238.180952
2500.334470	239.780952
2501.815403	237.971429
2503.294447	235.647619
2504.773223	232.219048
2506.251730	222.123810
2507.729968	219.838095
2509.207938	216.809524
2510.682404	210.761905
2512.159838	212.752381
2513.633769	216.142857
2515.109051	215.409524
2516.584065	215.600000
2518.055578	214.885714
2519.528442	211.314286
2520.999422	209.685714
2522.471753	213.714286
2523.938971	211.476190
2525.409155	215.885714
2526.877457	214.657143
2528.345495	222.428571
2529.813268	224.800000
2531.280776	224.866667
2532.748019	223.457143
2534.211771	227.600000
2535.676872	219.161905
2537.140096	221.609524
2538.604669	221.104762
2540.065753	218.314286
2541.528188	221.504762
2542.990359	230.419048
2544.449043	235.561905
2545.912300	240.295238
2547.370460	238.895238
2548.829969	241.809524
2550.284385	243.523810
2551.743371	242.638095
2553.200484	248.619048
2554.655727	250.000000
2556.110709	244.428571
2557.563821	238.380952
2559.018282	226.733333
2560.470874	229.152381
2561.923206	224.838095
2563.373670	226.066667
2564.827090	221.942857
2566.275428	216.504762
2567.726722	205.438095
2569.176149	212.161905
2570.622105	211.314286
2572.071015	217.104762
2573.516454	228.123810
2574.963242	231.285714
2576.408166	228.600000
2577.852833	238.152381
2579.298847	245.676190
2580.741394	249.228571
2582.185289	253.876190
2583.625719	242.438095
2585.067497	231.609524
2586.507414	226.428571
2587.948680	225.066667
2589.386483	234.419048
2590.827236	242.885714
2592.262926	249.723810
2593.701566	257.428571
2595.138349	257.000000
2596.573275	251.552381
2598.011150	250.895238
2599.443967	246.647619
2600.878131	243.485714
2602.310440	249.952381
2603.744096	244.990476
2605.175899	246.704762
2606.607449	257.200000
2608.038745	270.104762
2609.468190	275.809524
2610.897382	274.752381
2612.324723	258.314286
2613.753411	263.076190
2615.181846	271.952381
2616.606835	282.933333
2618.033169	294.752381
2619.457655	300.514286
2620.883487	298.933333
2622.305875	302.895238
2623.729609	307.847619
2625.151497	313.200000
2626.573134	325.666667
2627.992926	334.400000
2629.414064	338.695238
2630.834952	349.209524
2632.252402	362.780952
2633.672791	378.790476
2635.089743	400.390476
2636.506447	418.457143
2637.922902	433.314286
2639.339109	458.238095
2640.755067	463.152381
2642.169185	479.819048
2643.583056	497.552381
2644.995087	518.485714
2646.408463	547.342857
2647.818409	573.571429
2649.231291	597.323810
2650.640744	633.000000
2652.049951	662.961905
2653.457322	692.333333
2654.867627	729.914286
2656.276096	756.400000
2657.682730	795.619048
2659.089119	826.228571
2660.493674	869.580952
2661.899573	907.942857
2663.303639	954.314286
2664.707461	995.904762
2666.111038	1046.352381
2667.512783	1099.161905
2668.915872	1149.219048
2670.315544	1195.257143
2671.716559	1225.980952
2673.114157	1241.361905
2674.514686	1265.819048
2675.911800	1292.419048
2677.310257	1307.342857
2678.706886	1321.638095
2680.103274	1314.980952
2681.499419	1304.400000
2682.893738	1293.038095
2684.289400	1281.085714
2685.681652	1281.647619
2687.075248	1263.095238
2688.467019	1230.761905
2689.860132	1204.180952
2691.251422	1160.676190
2692.640889	1119.428571
2694.030117	1101.752381
2695.419104	1073.676190
2696.809434	1025.409524
2698.194779	979.304762
2699.583049	924.485714
2700.969497	876.885714
2702.355708	853.152381
2703.741679	829.704762
2705.124252	794.476190
2706.508166	766.628571
2707.891843	724.047619
2709.275282	681.952381
2710.655325	648.000000
2712.036710	611.666667
2713.416279	581.447619
2714.797190	562.942857
2716.176286	535.219048
2717.553567	517.352381
2718.932190	506.047619
2720.309000	489.638095
2721.685574	471.419048
2723.061912	452.400000
2724.436438	431.657143
2725.812305	418.657143
2727.184785	407.266667
2728.560182	383.666667
2729.930617	361.752381
2731.302394	343.057143
2732.673937	321.342857
2734.043671	310.895238
2735.414745	302.838095
2736.784012	303.761905
2738.153045	303.266667
2739.520271	299.323810
2740.887265	287.361905
2742.254026	275.466667
2743.620554	273.885714
2744.985277	279.000000
2746.349769	277.161905
2747.714028	271.885714
2749.078056	267.647619
2750.441851	266.666667
2751.802273	266.171429
2753.165606	252.333333
2754.523996	237.247619
2755.885296	223.790476
2757.243225	224.038095
2758.604064	225.038095
2759.963102	219.009524
2761.318772	222.609524
2762.677350	224.161905
2764.032562	218.552381
2765.387544	213.923810
2766.740729	225.580952
2768.096821	230.857143
2769.449549	233.247619
2770.802048	231.000000
2772.154319	216.809524
2773.507929	203.771429
2774.858177	219.238095
2776.206632	225.761905
2777.557991	214.419048
2778.905991	213.114286
2780.255330	209.714286
2781.602876	206.333333
2782.950195	212.495238
2784.297288	212.933333
2785.642590	202.780952
2786.987666	194.114286
2788.332516	185.866667
2789.677140	182.638095
2791.018411	190.114286
2792.361021	202.790476
2793.703406	216.914286
2795.045565	221.000000
2796.384375	213.304762
2797.726085	207.628571
2799.064446	193.533333
2800.404145	188.114286
2801.742058	183.742857
2803.078187	184.095238
2804.414093	185.076190
2805.751335	188.238095
2807.086794	185.238095
2808.422030	182.438095
2809.755484	181.571429
2811.090274	187.180952
2812.421723	188.428571
2813.756068	189.857143
2815.085515	187.933333
2816.416299	184.600000
2817.746861	186.342857
2819.075644	191.371429
2820.405764	191.009524
2821.734104	199.961905
2823.062224	200.066667
2824.388567	201.295238
2825.716245	200.819048
2827.040591	196.438095
2828.366272	186.895238
2829.690179	184.133333
2831.013865	177.542857
2832.338887	175.123810
2833.660580	182.561905
2834.982053	185.190476
2836.303308	185.161905
2837.624344	186.800000
2838.943608	182.876190
2840.264207	178.695238
2841.583034	174.504762
2842.901643	178.295238
2844.218482	176.447619
2845.535103	178.009524
2846.851506	179.476190
2848.166141	174.438095
2849.482110	170.295238
2850.794759	185.838095
2852.108744	191.076190
2853.422512	194.047619
2854.736063	190.361905
2856.047847	176.571429
2857.357866	161.580952
2858.669219	164.771429
2859.977256	166.380952
2861.286629	170.866667
2862.595786	177.419048
2863.904728	178.952381
2865.211907	175.485714
2866.517322	173.809524
2867.824072	171.285714
2869.129059	169.600000
2870.433833	169.742857
2871.736845	171.733333
2873.042739	172.685714
2874.343777	175.285714
2875.646150	174.933333
2876.946763	175.333333
2878.248710	172.000000
2879.550444	166.657143
2880.848874	161.857143
2882.148637	167.076190
2883.446643	178.600000
2884.744437	186.171429
2886.040474	182.847619
2887.337845	172.590476
2888.633460	160.000000
2889.928865	164.076190
2891.224058	176.819048
2892.515953	178.695238
2893.810725	175.171429
2895.102200	180.152381
2896.395009	172.866667
2897.687607	171.952381
2898.976910	159.152381
2900.267546	158.057143
2901.556431	153.028571
2902.846649	162.066667
2904.133575	168.609524
2905.421833	166.619048
2906.708342	153.228571
2907.994642	151.866667
2909.280734	142.466667
2910.565078	147.904762
2911.852294	154.876190
2913.134683	161.104762
2914.418404	158.857143
2915.700378	161.733333
2916.982146	164.019048
2918.262168	170.171429
2919.545060	168.895238
2920.826207	169.257143
2922.104072	171.266667
2923.384806	172.638095
2924.662259	166.723810
2925.939507	161.038095
2927.215012	159.266667
2928.493385	155.371429
2929.766943	154.714286
2931.043369	155.666667
2932.318054	152.838095
2933.590999	158.000000
2934.865274	166.590476
2936.137810	172.390476
2937.410142	169.104762
2938.679201	172.152381
2939.951125	167.695238
2941.221310	165.142857
2942.491293	160.076190
2943.761072	161.514286
2945.029114	156.685714
2946.295421	157.780952
2947.561525	158.857143
2948.828960	160.219048
2950.094659	160.485714
2951.360156	165.923810
2952.625451	169.219048
2953.887482	169.647619
2955.150842	163.180952
2956.414001	155.266667
2957.675427	149.809524
2958.938183	146.333333
2960.199208	147.238095
2961.458502	147.314286
2962.717595	140.238095
2963.976488	146.666667
2965.235181	147.733333
2966.493674	147.228571
2967.750438	149.342857
2969.007002	141.952381
2970.261839	143.219048
2971.518005	143.809524
2972.770915	140.266667
2974.025155	139.314286
2975.279196	134.257143
2976.531511	130.266667
2977.783628	144.190476
2979.034020	143.933333
2980.287267	143.952381
2981.535737	138.161905
2982.787061	126.323810
2984.035137	129.657143
2985.283015	140.180952
2986.530696	152.304762
2987.778181	158.942857
2989.023944	156.390476
2990.269510	152.514286
2991.516405	145.647619
2992.760054	145.542857
2994.005032	145.590476
2995.246767	146.980952
2996.491353	143.657143
2997.734220	145.800000
2998.973845	146.076190
3000.216322	140.085714
3001.455558	141.857143
3002.696122	143.038095
3003.934969	145.590476
3005.173622	145.695238
3006.410559	148.123810
3007.648823	136.752381
3008.885373	138.380952
3010.121729	133.933333
3011.357891	137.866667
3012.592339	139.790476
3013.826594	147.819048
3015.060656	139.876190
3016.293006	127.742857
3017.523644	119.676190
3018.757128	117.514286
3019.988901	127.800000
3021.218962	139.028571
3022.448832	139.828571
3023.676992	140.447619
3024.906479	140.838095
3026.134256	138.895238
3027.361842	139.514286
3028.590754	146.257143
3029.814924	145.971429
3031.041937	149.800000
3032.265727	145.209524
3033.490842	144.009524
3034.714251	141.390476
3035.937471	149.019048
3037.158985	150.076190
3038.383340	151.733333
3039.602960	151.123810
3040.823906	150.961905
3042.044662	148.447619
3043.263715	143.009524
3044.484094	137.609524
3045.701256	136.523810
3046.919743	130.476190
3048.136529	125.152381
3049.353126	124.085714
3050.569536	125.685714
3051.782732	127.180952
3052.998766	132.904762
3054.211588	135.009524
3055.427247	134.438095
3056.638183	136.009524
3057.850445	135.304762
3059.062519	133.619048
3060.274407	129.400000
3061.484597	129.247619
3062.694602	124.942857
3063.904420	129.742857
3065.112542	129.076190
3066.320478	132.428571
3067.526720	134.428571
3068.734286	132.790476
3069.940157	132.895238
3071.145843	134.133333
3072.351344	128.209524
3073.555153	123.561905
3074.760285	132.619048
3075.963724	129.104762
3077.165471	133.790476
3078.367035	124.942857
3079.568415	117.533333
3080.769611	113.819048
3081.969117	121.057143
3083.168439	120.609524
3084.369085	124.438095
3085.568042	117.771429
3086.763803	127.723810
3087.962394	133.580952
3089.157791	129.790476
3090.354512	125.771429
3091.548040	120.352381
3092.744396	116.171429
3093.939065	124.190476
3095.130544	117.085714
3096.326354	115.190476
3097.517471	112.704762
3098.709910	115.533333
3099.899162	121.704762
3101.091240	125.466667
3102.281634	116.771429
3103.468841	123.361905
3104.657372	121.123810
3105.847225	130.552381
3107.033893	127.838095
3108.220382	120.352381
3109.406691	110.904762
3110.594323	100.914286
3111.778772	113.323810
3112.961541	132.895238
3114.147134	137.371429
3115.331046	127.800000
3116.513280	124.295238
3117.695336	108.152381
3118.877213	117.352381
3120.058912	118.504762
3121.238934	118.885714
3122.417278	114.266667
3123.598444	117.790476
3124.776434	114.057143
3125.954247	113.390476
3127.131883	113.438095
3128.307844	123.371429
3129.483629	131.209524
3130.660734	126.304762
3131.836166	124.685714
3133.009924	120.095238
3134.182009	114.971429
3135.355415	122.771429
3136.528646	131.714286
3137.700204	129.161905
3138.873084	130.990476
3140.042796	125.352381
3141.213829	113.819048
3142.383191	113.552381
3143.550884	115.114286
3144.721392	110.066667
3145.887241	118.942857
3147.057400	121.761905
3148.222901	119.761905
3149.388229	123.095238
3150.553383	116.133333
3151.718363	107.923810
3152.884664	113.828571
3154.046311	113.866667
3155.209279	110.361905
3156.372073	111.057143
3157.534695	111.628571
3158.695652	117.533333
3159.856436	120.561905
3161.017048	116.485714
3162.175997	118.619048
3163.334773	114.990476
3164.493378	118.076190
3165.651811	123.733333
3166.810072	114.857143
3167.966671	107.000000
3169.121609	105.238095
3170.277866	103.542857
3171.432463	108.600000
3172.586888	112.095238
3173.739654	110.066667
3174.892250	107.638095
3176.044676	104.704762
3177.196931	113.971429
3178.349017	120.038095
3179.497956	121.676190
3180.649702	126.276190
3181.799791	118.714286
3182.948222	110.723810
3184.096485	108.276190
3185.244579	116.066667
3186.392503	115.428571
3187.538773	123.761905
3188.684874	123.495238
3189.829321	117.619048
3190.973599	110.638095
3192.117710	108.714286
3193.263139	104.942857
3194.405429	110.028571
3195.547551	117.561905
3196.689507	115.266667
3197.831295	115.066667
3198.972916	110.438095
3200.111401	107.819048
3201.251205	109.895238
3202.392325	113.580952
3203.530311	112.238095
3204.666648	115.904762
3205.802819	117.057143
3206.940308	117.838095
3208.076148	119.914286
3209.213304	120.685714
3210.345848	123.438095
3211.482674	121.276190
3212.614888	113.800000
3213.748420	112.857143
3214.881786	106.885714
3216.012025	109.866667
3217.145062	124.352381
3218.274973	134.238095
3219.406201	137.152381
3220.534303	133.952381
3221.665203	121.552381
3222.794458	113.723810
3223.922069	116.409524
3225.046559	126.609524
3226.175324	131.447619
3227.300967	140.228571
3228.426447	141.895238
3229.550286	141.723810
3230.676920	138.095238
3231.798955	139.961905
3232.922307	142.171429
3234.045497	154.104762
3235.168525	153.152381
3236.289913	148.257143
3237.411140	136.609524
3238.530728	131.342857
3239.650155	131.352381
3240.767944	144.085714
3241.888526	147.314286
3243.005994	154.895238
3244.123301	157.085714
3245.240447	154.742857
3246.355958	149.133333
3247.472784	141.447619
3248.586499	136.657143
3249.703005	134.580952
3250.817875	134.209524
3251.929637	128.580952
3253.041240	126.933333
3254.154158	119.304762
3255.266916	119.761905
3256.376568	111.761905
3257.487535	113.161905
3258.598343	116.295238
3259.707519	120.285714
3260.815064	119.095238
3261.923924	107.485714
3263.032625	96.723810
3264.138224	109.333333
3265.245138	125.933333
3266.350422	130.076190
3267.457020	125.009524
3268.560518	108.933333
3269.665330	101.466667
3270.769985	118.914286
3271.871542	121.600000
3272.972942	113.066667
3274.075656	98.495238
3275.178213	92.238095
3276.277675	93.695238
3277.379919	114.476190
3278.479069	122.409524
3279.576593	117.209524
3280.673962	108.504762
3281.774114	105.847619
3282.871172	101.580952
3283.968076	103.828571
3285.064824	104.314286
3286.157013	103.085714
3287.253452	97.047619
3288.348268	100.476190
3289.442929	99.819048
3290.535969	95.933333
3291.628855	94.323810
3292.720120	96.495238
3293.812698	87.504762
3294.903656	95.057143
3295.992994	90.361905
3297.082179	97.476190
3298.172676	94.990476
3299.260089	94.476190
3300.347350	93.714286
3301.435923	94.561905
3302.524343	88.838095
3303.608216	90.571429
3304.696331	88.523810
3305.781365	89.314286
3306.864783	90.295238
3307.949513	89.123810
3309.032627	88.066667
3310.117053	87.247619
3311.198401	91.714286
3312.281061	91.314286
3313.362107	87.895238
3314.443002	85.238095
3315.522284	81.447619
3316.601415	84.533333
3317.681857	90.009524
3318.759226	84.076190
3319.837906	83.847619
3320.914974	82.742857
3321.991892	79.057143
3323.067200	81.800000
3324.142358	83.971429
3325.218827	81.047619
3326.292225	79.942857
3327.365475	81.457143
3328.440036	80.019048
3329.512987	77.876190
3330.584331	73.704762
3331.656985	76.533333
3332.726572	74.200000
3333.797470	84.600000
3334.866761	87.600000
3335.937363	90.304762
3337.006358	86.704762
3338.073747	85.019048
3339.139531	81.523810
3340.209541	84.495238
3341.276488	81.533333
3342.340373	79.228571
3343.407026	90.819048
3344.472075	94.152381
3345.535520	92.504762
3346.598818	92.019048
3347.661971	87.076190
3348.724977	70.666667
3349.787836	76.276190
3350.849094	75.342857
3351.907295	72.476190
3352.969717	88.304762
3354.029082	100.361905
3355.088303	94.219048
3356.148832	92.323810
3357.204852	83.780952
3358.263637	74.571429
3359.317914	81.542857
3360.374955	90.104762
3361.430397	87.295238
3362.487148	82.990476
3363.542302	72.371429
3364.595858	68.838095
3365.647817	67.123810
3366.702538	76.800000
3367.754211	76.190476
3368.805739	76.971429
3369.858577	74.638095
3370.908367	81.438095
3371.959466	81.923810
3373.007518	78.904762
3374.058331	70.333333
3375.106098	61.657143
3376.153723	73.580952
3377.201206	88.542857
3378.247095	96.076190
3379.294294	92.304762
3380.338449	83.866667
3381.385363	72.485714
3382.430685	75.838095
3383.472967	73.428571
3384.515107	67.571429
3385.558556	59.123810
3386.601863	66.219048
3387.643580	76.171429
3388.685156	85.552381
3389.726592	97.000000
3390.766439	96.295238
3391.804697	85.352381
3392.844263	82.323810
3393.883689	73.152381
3394.921527	73.666667
3395.957778	73.580952
3396.993889	74.142857
3398.031308	74.247619
3399.065694	76.876190
3400.101388	79.714286
3401.136942	84.104762
3402.169464	79.504762
3403.204740	72.190476
3404.236985	64.142857
3405.269092	61.066667
3406.299615	62.285714
3407.331446	72.200000
3408.363138	78.219048
3409.391802	74.076190
3410.420328	69.190476
3411.450162	69.104762
3412.479857	69.142857
3413.506527	80.228571
3414.534504	78.695238
3415.559456	68.780952
3416.587158	66.380952
3417.611837	70.685714
3418.637822	75.561905
3419.662227	81.228571
3420.686496	73.152381
3421.709186	72.028571
3422.731740	70.333333
3423.755600	68.209524
3424.776440	64.285714
3425.797145	63.019048
3426.819155	64.780952
3427.838147	80.561905
3428.857004	91.390476
3429.877166	90.547619
3430.894312	70.200000
