-118.362301	-7.823810
-115.692700	9.838095
-113.026036	14.609524
-110.360123	10.857143
-107.697142	2.857143
-105.032732	-1.314286
-102.371252	-4.438095
-99.708342	-3.371429
-97.050540	-3.400000
-94.391307	-3.057143
-91.732823	-7.457143
-89.077264	-7.838095
-86.420276	-0.933333
-83.768385	-1.304762
-81.115065	-1.714286
-78.464665	7.580952
-75.812835	9.780952
-73.166096	-0.400000
-70.517927	2.609524
-67.870502	-5.295238
-65.225990	-8.685714
-62.580050	-3.628571
-59.939191	1.742857
-57.296902	0.028571
-54.657523	6.361905
-52.016715	3.761905
-49.376646	-2.285714
-46.741651	-7.990476
-44.105226	-6.819048
-41.471705	-1.266667
-38.836755	7.209524
-36.206870	16.190476
-33.573392	19.628571
-30.944977	15.895238
-28.317296	16.923810
-25.688187	24.733333
-23.064134	25.761905
-20.436492	35.609524
-17.813903	43.047619
-15.192045	19.019048
-12.570918	-14.723810
-9.950522	142.266667
-7.333013	1517.257143
-4.714076	5557.638095
-2.098025	9494.180952
0.517298	10335.257143
3.131894	8098.485714
5.743608	3854.200000
8.356749	119.990476
10.964857	-567.314286
13.576547	-32.485714
16.183206	25.885714
18.791293	25.523810
21.398656	18.009524
24.000994	15.904762
26.606910	17.266667
29.207805	21.342857
31.810127	15.990476
34.407431	5.523810
37.008311	0.676190
39.604177	-2.961905
42.201470	10.142857
44.798044	20.676190
47.389609	18.885714
49.982602	15.609524
52.572734	11.647619
55.164294	8.847619
57.752994	16.104762
60.343122	13.990476
62.928250	8.123810
65.514806	2.542857
68.100647	0.019048
70.683635	5.638095
73.268050	0.438095
75.845335	3.161905
78.426187	3.609524
81.004190	4.304762
83.581483	9.428571
86.160202	12.761905
88.733940	5.657143
91.309104	6.200000
93.881425	4.428571
96.453039	8.247619
99.021812	9.790476
101.592012	10.838095
104.159373	7.800000
106.728161	7.104762
109.294111	6.257143
111.857227	12.685714
114.423900	21.628571
116.981350	37.104762
119.544486	45.476190
122.102663	64.514286
124.664393	90.285714
127.221168	135.361905
129.779368	208.495238
132.332616	334.780952
134.885165	495.885714
137.441266	703.276190
139.992418	917.400000
142.542872	1135.647619
145.092630	1308.676190
147.639568	1445.476190
150.185810	1527.009524
152.733479	1572.285714
155.280451	1571.638095
157.822487	1562.523810
160.363830	1539.771429
162.904481	1528.685714
165.446556	1525.771429
167.985821	1535.742857
170.522276	1549.066667
173.058041	1534.714286
175.595231	1514.000000
178.131729	1492.771429
180.665422	1464.314286
183.196312	1452.819048
185.726513	1448.523810
188.258139	1438.723810
190.786964	1435.771429
193.312991	1436.666667
195.838331	1427.523810
198.365096	1436.980952
200.889065	1428.628571
203.412348	1427.809524
205.934947	1437.238095
208.454753	1433.971429
210.973876	1434.076190
213.492316	1445.876190
216.012180	1445.228571
218.525043	1468.114286
221.041437	1512.247619
223.557149	1538.142857
226.067972	1566.200000
228.580219	1571.304762
231.089683	1571.123810
233.598469	1580.161905
236.106577	1597.857143
238.616109	1602.038095
241.120760	1618.447619
243.624735	1605.838095
246.130134	1599.876190
248.630658	1592.600000
251.134705	1588.352381
253.631782	1583.628571
256.132381	1582.752381
258.630209	1569.200000
261.127364	1575.961905
263.623846	1588.504762
266.115466	1599.247619
268.610604	1607.647619
271.102977	1603.819048
273.594679	1593.676190
276.083618	1606.666667
278.573980	1612.228571
281.061581	1625.371429
283.546422	1641.895238
286.034777	1670.666667
288.516193	1698.838095
291.001124	1739.190476
293.481208	1776.495238
295.964805	1809.304762
298.443560	1849.219048
300.923737	1868.285714
303.401163	1884.609524
305.877925	1854.790476
308.354023	1797.580952
310.827373	1737.533333
313.300062	1707.609524
315.772088	1694.800000
318.243454	1726.723810
320.712076	1727.961905
323.180038	1697.895238
325.649423	1650.961905
328.113985	1595.209524
330.582050	1541.390476
333.045296	1511.914286
335.507885	1494.638095
337.969816	1485.933333
340.431091	1487.076190
342.889632	1484.933333
345.349595	1465.800000
347.806826	1427.466667
350.263402	1402.323810
352.719323	1385.609524
355.172516	1385.476190
357.627131	1376.352381
360.076944	1369.542857
362.530253	1347.238095
364.978763	1320.876190
367.426623	1300.152381
369.875904	1271.095238
372.320392	1249.876190
374.766302	1253.085714
377.211563	1254.561905
379.654105	1246.647619
382.095999	1237.533333
384.537245	1216.304762
386.975776	1203.942857
389.415729	1195.876190
391.852968	1178.295238
394.287495	1170.085714
396.725510	1159.628571
399.158748	1163.609524
401.593408	1167.895238
404.023294	1184.580952
406.456667	1180.057143
408.885268	1170.361905
411.313229	1155.609524
413.742610	1145.371429
416.167227	1119.685714
418.593264	1118.666667
421.018662	1103.523810
423.443419	1088.590476
425.863417	1084.561905
428.284837	1081.933333
430.703560	1069.561905
433.123704	1053.695238
435.541153	1029.171429
437.960022	1000.247619
440.376198	965.809524
442.787627	944.257143
445.202532	931.342857
447.614747	906.476190
450.026328	891.809524
452.437275	870.638095
454.845536	848.438095
457.253165	846.238095
459.660161	848.409524
462.066525	846.133333
464.470208	846.914286
466.873260	838.390476
469.275682	840.238095
471.677474	846.304762
474.076588	856.438095
476.477122	863.523810
478.877027	882.161905
481.272209	900.285714
483.670858	929.066667
486.064787	971.066667
488.458090	1018.761905
490.850767	1075.171429
493.242819	1155.885714
495.636290	1283.038095
498.025048	1489.057143
500.411140	1783.323810
502.798652	2281.628571
505.185540	3085.057143
507.569765	4397.771429
509.955409	6409.790476
512.338390	9002.742857
514.718711	11409.666667
517.100451	12915.076190
519.479532	12945.076190
521.860032	11671.723810
524.237874	9798.923810
526.613061	8060.276190
528.987630	6665.257143
531.363618	5690.200000
533.736952	4933.933333
536.111705	4346.971429
538.481771	3880.114286
540.851222	3512.419048
543.222092	3199.771429
545.588280	2968.285714
547.955887	2756.266667
550.320848	2601.390476
552.685196	2446.647619
555.048932	2327.695238
557.414085	2228.180952
559.774566	2151.914286
562.136464	2080.152381
564.495723	2024.142857
566.852343	1940.247619
569.212409	1871.971429
571.565783	1815.142857
573.922602	1768.209524
576.276786	1724.676190
578.630361	1679.542857
580.983328	1625.733333
583.333664	1563.447619
585.685416	1497.723810
588.030492	1454.838095
590.381032	1420.171429
592.724899	1402.733333
595.074226	1403.057143
597.418906	1376.095238
599.760961	1347.819048
602.104433	1323.961905
604.445281	1317.514286
606.785528	1332.742857
609.123154	1384.819048
611.464215	1456.085714
613.800639	1531.857143
616.138479	1551.352381
618.473701	1530.380952
620.806308	1464.161905
623.140332	1390.000000
625.471741	1332.095238
627.802552	1295.857143
630.132765	1270.780952
632.462380	1258.580952
634.787373	1255.076190
637.117807	1252.438095
639.443619	1249.390476
641.766825	1238.752381
644.091447	1238.095238
646.413463	1219.809524
648.734885	1210.571429
651.053704	1189.990476
653.373939	1168.561905
655.693581	1163.752381
658.010622	1167.419048
660.327072	1161.571429
662.640923	1177.542857
664.956189	1170.038095
667.268859	1158.876190
669.582944	1170.400000
671.892430	1165.714286
674.203330	1165.228571
676.511638	1167.809524
678.819358	1151.323810
681.128493	1129.638095
683.433035	1107.657143
685.736991	1088.438095
688.040360	1075.171429
690.345144	1057.323810
692.645342	1029.838095
694.946955	1004.857143
697.247982	984.523810
699.544428	984.314286
701.842288	986.076190
704.139565	996.561905
706.436259	991.495238
708.728377	983.428571
711.023906	961.933333
713.314862	945.009524
715.607232	935.219048
717.897026	948.333333
720.186241	951.514286
722.474875	952.857143
724.760938	942.190476
727.048414	931.638095
729.333320	924.666667
731.617647	926.333333
733.899407	920.904762
736.182580	919.095238
738.465176	904.876190
740.743216	900.047619
743.022670	888.685714
745.301549	889.590476
747.579852	889.247619
749.853606	900.609524
752.128774	902.409524
754.403368	903.542857
756.675403	889.380952
758.948851	875.619048
761.219741	859.038095
763.488074	873.000000
765.757822	888.047619
768.025014	896.285714
770.291636	895.180952
772.557689	887.161905
774.821190	890.438095
777.086103	898.371429
779.350448	896.676190
781.610262	892.619048
783.871490	888.514286
786.132150	892.219048
788.390263	906.952381
790.645832	917.390476
792.904792	911.580952
795.157253	902.847619
797.415081	905.076190
799.668390	909.809524
801.919158	912.066667
804.171339	925.895238
806.420982	912.152381
808.672036	898.638095
810.918579	895.561905
813.166535	895.580952
815.411955	897.314286
817.658787	903.628571
819.905058	882.323810
822.146825	874.466667
824.391974	868.923810
826.630651	868.409524
828.872711	870.990476
831.110272	874.580952
833.349244	868.857143
835.585690	866.285714
837.823548	871.828571
840.058880	860.857143
842.291688	843.866667
844.525908	843.590476
846.757606	846.628571
848.988749	840.761905
851.219337	859.761905
853.449371	852.190476
855.678850	841.761905
857.903849	847.657143
860.132221	841.161905
862.356115	828.342857
864.581419	820.857143
866.802248	801.990476
869.026449	806.866667
871.246177	821.819048
873.467316	830.942857
875.687904	847.457143
877.905983	847.333333
880.125471	837.676190
882.340493	831.047619
884.554967	816.133333
886.768894	800.914286
888.982273	799.904762
891.195106	798.561905
893.407391	805.361905
895.617175	802.885714
897.826413	808.152381
900.035105	800.047619
902.241299	801.638095
904.448902	814.742857
906.654008	820.923810
908.858570	825.361905
911.060636	839.400000
913.264112	845.304762
915.465095	871.971429
917.665535	911.542857
919.867384	939.800000
922.062841	980.638095
924.261658	1030.419048
926.456037	1118.476190
928.653773	1229.400000
930.847073	1363.657143
933.041781	1508.571429
935.234004	1643.514286
937.425689	1766.114286
939.616836	1871.352381
941.805500	1901.190476
943.993627	1889.142857
946.179274	1879.095238
948.368273	1847.704762
950.552849	1831.304762
952.736890	1833.780952
954.924281	1833.790476
957.103369	1839.828571
959.285806	1875.609524
961.467710	1887.209524
963.647140	1905.752381
965.824097	1916.114286
968.002462	1918.342857
970.182233	1912.657143
972.355656	1922.723810
974.532425	1915.257143
976.704788	1916.304762
978.878557	1895.609524
981.047924	1842.552381
983.220634	1753.495238
985.390878	1643.295238
987.560594	1497.971429
989.729781	1364.361905
991.894571	1261.914286
994.062702	1192.580952
996.226439	1142.333333
998.391582	1094.352381
1000.554267	1047.838095
1002.716426	1016.295238
1004.876127	992.019048
1007.035305	979.961905
1009.195889	956.457143
1011.354018	916.228571
1013.511623	877.580952
1015.668705	856.580952
1017.825264	841.752381
1019.977443	847.847619
1022.131029	834.695238
1024.284092	811.533333
1026.434708	781.219048
1028.586729	772.209524
1030.734377	749.276190
1032.885357	741.838095
1035.031966	735.161905
1037.178057	731.019048
1039.323629	722.304762
1041.470605	722.304762
1043.611294	714.666667
1045.755311	708.876190
1047.896888	713.038095
1050.037949	715.733333
1052.180414	710.514286
1054.316600	695.400000
1056.456112	686.895238
1058.591268	680.742857
1060.729749	686.600000
1062.863877	686.752381
1064.997491	701.209524
1067.132509	707.161905
1069.263178	704.390476
1071.395252	702.847619
1073.524897	705.457143
1075.654030	696.866667
1077.782652	698.723810
1079.910762	693.038095
1082.036446	672.390476
1084.161620	668.200000
1086.288197	669.790476
1088.410438	673.619048
1090.534083	686.038095
1092.653393	683.009524
1094.777932	679.066667
1096.896227	687.123810
1099.015925	690.580952
1101.133205	693.619048
1103.249979	690.657143
1105.366246	678.952381
1107.480098	676.219048
1109.595353	672.904762
1111.706286	669.542857
1113.820530	672.352381
1115.930455	668.333333
1118.041782	663.142857
1120.152606	657.161905
1122.259113	655.695238
1124.368929	658.647619
1126.474431	650.209524
1128.581337	646.085714
1130.682026	632.047619
1132.787928	627.276190
1134.889521	631.514286
1136.992517	639.180952
1139.095012	620.266667
1141.191301	617.800000
1143.292796	611.238095
1145.389989	613.085714
1147.486683	620.895238
1149.582880	626.476190
1151.678578	622.123810
1153.773779	624.933333
1155.866583	617.485714
1157.960789	616.657143
1160.048804	617.028571
1162.142017	614.542857
1164.229042	621.085714
1166.319367	627.942857
1168.405403	619.095238
1170.494737	615.247619
1172.577890	605.257143
1174.662446	601.295238
1176.748402	618.257143
1178.830077	636.466667
1180.913154	633.771429
1182.993845	637.504762
1185.074044	632.857143
1187.153753	632.638095
1189.232969	633.409524
1191.309804	638.809524
1193.384258	636.161905
1195.462004	636.542857
1197.535479	624.352381
1199.610356	614.752381
1201.680965	605.657143
1203.752975	607.780952
1205.822609	607.257143
1207.893644	608.133333
1209.964191	605.228571
1212.030477	604.580952
1214.098164	608.380952
1216.163479	605.752381
1218.230194	604.000000
1220.292653	594.266667
1222.358397	594.895238
1224.419888	597.390476
1226.482778	598.819048
1228.543301	603.333333
1230.603341	624.047619
1232.662897	631.638095
1234.720089	643.866667
1236.776798	647.028571
1238.831145	647.161905
1240.888772	654.419048
1242.944037	649.466667
1244.995061	637.057143
1247.047485	633.361905
1249.099430	627.952381
1251.149015	636.561905
1253.198123	648.295238
1255.246751	649.276190
1257.294901	651.942857
1259.342573	662.057143
1261.386014	658.761905
1263.432730	666.371429
1265.477094	670.200000
1267.520980	678.914286
1269.562516	683.361905
1271.601702	684.990476
1273.644160	674.771429
1275.682397	674.542857
1277.722031	677.304762
1279.761191	673.485714
1281.796133	662.761905
1283.832473	653.523810
1285.866468	655.323810
1287.901862	658.342857
1289.933042	656.133333
1291.965621	655.533333
1293.997727	642.647619
1296.027493	630.990476
1298.058657	631.476190
1300.085613	631.171429
1302.113967	626.933333
1304.138117	640.238095
1306.165531	643.857143
1308.188744	638.600000
1310.213353	632.514286
1312.235629	627.466667
1314.259302	625.304762
1316.280642	627.438095
1318.301514	626.723810
1320.321920	625.009524
1322.338131	620.761905
1324.355741	615.571429
1326.371022	614.742857
1328.389562	621.133333
1330.403912	632.590476
1332.415937	651.352381
1334.431220	657.761905
1336.442317	670.685714
1338.454810	673.000000
1340.463121	676.895238
1342.474688	665.266667
1344.480216	657.209524
1346.488998	646.257143
1348.493604	648.971429
1350.501463	645.342857
1352.508859	656.485714
1354.510225	653.085714
1356.512988	660.485714
1358.515291	661.247619
1360.517133	661.647619
1362.518517	650.828571
1364.517586	651.076190
1366.516197	633.028571
1368.514350	628.200000
1370.512045	625.590476
1372.505576	625.476190
1374.500504	625.885714
1376.494975	630.514286
1378.488989	622.371429
1380.480696	603.333333
1382.471947	587.161905
1384.460893	574.733333
1386.451234	572.800000
1388.441120	577.980952
1390.428703	585.561905
1392.415832	581.228571
1394.400659	589.495238
1396.386881	588.361905
1398.370802	581.019048
1400.354271	571.580952
1402.337288	567.038095
1404.318007	576.276190
1406.300120	597.704762
1408.279936	606.438095
1410.259302	602.114286
1412.234529	587.561905
1414.212994	578.580952
1416.189166	574.523810
1418.164888	576.076190
1420.140161	582.657143
1422.113143	578.676190
1424.085678	565.904762
1426.057764	562.866667
1428.029402	566.247619
1429.996913	563.438095
1431.969497	561.733333
1433.934275	557.352381
1435.904126	565.857143
1437.869852	572.933333
1439.836972	590.819048
1441.801808	588.904762
1443.762524	584.390476
1445.728308	580.723810
1447.688137	592.438095
1449.649359	588.761905
1451.611974	588.580952
1453.570474	591.714286
1455.528532	602.619048
1457.486147	595.809524
1459.443321	591.171429
1461.398219	580.314286
1463.354509	576.514286
1465.308525	574.028571
1467.262101	585.676190
1469.213404	575.590476
1471.166099	576.142857
1473.116523	561.295238
1475.066508	556.066667
1477.016053	547.914286
1478.963330	547.371429
1480.908340	533.361905
1482.854742	530.000000
1484.800706	520.352381
1486.746232	517.800000
1488.689494	521.895238
1490.632319	525.571429
1492.572881	516.552381
1494.514834	517.838095
1496.454526	524.257143
1498.393782	526.371429
1500.332604	549.447619
1502.269166	568.371429
1504.207118	568.028571
1506.142813	564.457143
1508.078074	560.561905
1510.011078	549.914286
1511.943650	546.742857
1513.875790	543.809524
1515.807498	544.028571
1517.736952	550.838095
1519.667797	567.342857
1521.598211	581.676190
1523.524552	585.476190
1525.452283	591.019048
1527.377764	587.828571
1529.302816	581.276190
1531.227439	574.780952
1533.151633	571.580952
1535.073580	581.276190
1536.996916	594.000000
1538.918007	596.466667
1540.836853	613.971429
1542.757089	621.104762
1544.675081	620.533333
1546.592647	638.447619
1548.507971	659.638095
1550.424685	665.019048
1552.337344	687.561905
1554.253207	700.009524
1556.166831	715.247619
1558.078216	730.847619
1559.990990	752.742857
1561.899715	772.247619
1563.809830	812.904762
1565.719521	867.161905
1567.628788	953.485714
1569.535822	1036.009524
1571.440623	1141.533333
1573.346813	1249.485714
1575.250771	1359.485714
1577.154309	1470.828571
1579.057425	1576.647619
1580.958313	1632.552381
1582.860588	1629.780952
1584.760636	1534.028571
1586.662072	1381.419048
1588.559473	1215.228571
1590.456457	1062.057143
1592.353022	952.628571
1594.250974	876.295238
1596.143092	808.590476
1598.038403	770.000000
1599.933297	744.228571
1601.825969	722.847619
1603.718225	713.600000
1605.608261	704.952381
1607.497881	681.876190
1609.387086	660.609524
1611.275875	655.438095
1613.162448	638.123810
1615.050407	626.904762
1616.934351	627.209524
1618.819681	612.866667
1620.704597	590.971429
1622.587301	583.704762
1624.471390	560.742857
1626.351469	544.152381
1628.232934	545.533333
1630.112189	538.504762
1631.992830	514.200000
1633.867667	503.466667
1635.747486	488.952381
1637.623299	479.457143
1639.498703	495.504762
1641.375492	507.523810
1643.246484	509.400000
1645.120658	512.600000
1646.990834	501.561905
1648.864190	490.580952
1650.735343	481.542857
1652.604294	472.171429
1654.474631	473.752381
1656.340974	469.066667
1658.208703	463.142857
1660.074234	460.752381
1661.941149	449.666667
1663.804076	450.028571
1665.668388	446.676190
1667.530505	445.800000
1669.392216	450.342857
1671.255312	454.971429
1673.116214	448.295238
1674.974922	434.476190
1676.833227	426.009524
1678.692917	420.980952
1680.546840	417.847619
1682.403935	424.161905
1684.260628	416.133333
1686.113345	411.828571
1687.969233	424.342857
1689.821147	419.685714
1691.672659	404.657143
1693.523772	391.571429
1695.374483	381.590476
1697.224794	386.752381
1699.072921	401.295238
1700.922431	404.800000
1702.766193	413.209524
1704.614905	413.009524
1706.457870	409.257143
1708.304001	405.971429
1710.146171	412.904762
1711.991505	412.495238
1713.831099	417.371429
1715.672077	415.057143
1717.514438	407.361905
1719.352843	412.085714
1721.192631	413.885714
1723.030244	405.838095
1724.867461	397.419048
1726.702505	395.666667
1728.538932	404.828571
1730.373187	421.219048
1732.207048	427.514286
1734.040514	418.495238
1735.870034	407.809524
1737.702713	396.104762
1739.531448	399.628571
1741.363341	397.295238
1743.191291	398.419048
1745.018849	390.600000
1746.846016	387.466667
1748.672790	381.095238
1750.499174	387.647619
1752.321621	395.533333
1754.147222	408.142857
1755.968889	406.866667
1757.791938	409.361905
1759.612826	408.304762
1761.433324	399.000000
1763.255204	397.952381
1765.071384	393.333333
1766.890716	380.152381
1768.706121	373.066667
1770.524676	376.933333
1772.339307	379.085714
1774.153550	377.619048
1775.967407	381.733333
1777.780877	379.971429
1779.592193	380.200000
1781.404891	391.171429
1783.217202	394.942857
1785.025596	390.352381
1786.835371	401.390476
1788.641230	395.028571
1790.450236	400.895238
1792.255328	399.085714
1794.061800	396.609524
1795.867889	390.485714
1797.670068	394.152381
1799.475390	382.114286
1801.276804	375.447619
1803.079598	371.609524
1804.878487	368.971429
1806.678755	368.514286
1808.478643	377.780952
1810.276388	377.704762
1812.073753	379.123810
1813.870737	387.514286
1815.667341	378.704762
1817.461806	377.123810
1819.257651	378.542857
1821.047840	375.085714
1822.842926	384.323810
1824.632359	394.371429
1826.424930	398.600000
1828.215365	394.571429
1830.003665	387.590476
1831.795101	376.809524
1833.580891	380.438095
1835.368061	385.009524
1837.153099	401.066667
1838.941271	404.580952
1840.725557	405.666667
1842.507714	401.600000
1844.291249	405.828571
1846.072657	404.561905
1847.855442	416.990476
1849.634348	413.771429
1851.414632	407.504762
1853.192791	392.790476
1854.972327	395.838095
1856.749739	397.742857
1858.525027	405.676190
1860.301694	413.095238
1862.076238	416.152381
1863.852159	410.714286
1865.622461	416.466667
1867.395890	410.847619
1869.167199	406.552381
1870.938137	409.704762
1872.710452	418.590476
1874.477155	413.333333
1876.246982	411.952381
1878.012946	398.190476
1879.782034	400.180952
1881.547260	408.104762
1883.312118	423.780952
1885.078352	420.276190
1886.840728	413.409524
1888.602737	397.647619
1890.364379	388.314286
1892.125653	378.380952
1893.886561	385.057143
1895.647101	383.619048
1897.405532	378.942857
1899.163598	380.885714
1900.919556	373.952381
1902.676890	371.257143
1904.433858	381.428571
1906.188721	379.447619
1907.941478	381.590476
1909.693872	384.028571
1911.447641	382.695238
1913.199307	381.457143
1914.948871	369.657143
1916.699811	355.666667
1918.450387	352.752381
1920.197125	347.590476
1921.945238	354.885714
1923.691252	364.257143
1925.438642	359.228571
1927.183933	361.685714
1928.927127	354.342857
1930.671697	351.780952
1932.414170	354.457143
1934.156283	358.038095
1935.898036	363.876190
1937.639430	368.314286
1939.378730	363.647619
1941.117671	367.257143
1942.856253	368.295238
1944.592743	372.457143
1946.328876	379.476190
1948.066383	372.190476
1949.800069	363.438095
1951.535128	348.771429
1953.268100	347.933333
1955.000715	346.028571
1956.732973	344.571429
1958.464875	352.838095
1960.194691	349.771429
1961.922423	342.657143
1963.651528	349.961905
1965.380279	354.638095
1967.106946	361.819048
1968.833259	371.819048
1970.560945	358.333333
1972.283095	342.980952
1974.008346	341.104762
1975.729791	348.057143
1977.454335	352.923810
1979.176800	358.971429
1980.895461	357.485714
1982.617221	348.171429
1984.335179	355.171429
1986.054511	355.885714
1987.770042	351.438095
1989.490395	353.552381
1991.206948	355.285714
1992.919706	351.190476
1994.635559	361.514286
1996.349339	355.142857
1998.062770	350.790476
1999.774130	350.342857
2001.486863	363.276190
2003.195804	371.104762
2004.907839	376.800000
2006.614364	359.657143
2008.323982	338.419048
2010.031532	324.695238
2011.738735	325.628571
2013.443872	350.304762
2015.148662	370.076190
2016.854824	377.361905
2018.557204	367.980952
2020.260956	354.323810
2021.962645	333.647619
2023.663988	338.904762
2025.364986	335.590476
2027.063924	346.219048
2028.764233	354.961905
2030.460766	364.828571
2032.158671	360.647619
2033.854518	345.161905
2035.553450	335.028571
2037.246895	325.009524
2038.941713	325.028571
2040.636187	336.914286
2042.326893	338.419048
2044.020683	336.828571
2045.710706	345.923810
2047.402100	333.180952
2049.091441	320.161905
2050.782152	313.152381
2052.469101	304.504762
2054.155709	312.809524
2055.843688	334.228571
2057.527907	337.400000
2059.213496	339.885714
2060.898746	343.390476
2062.581948	345.057143
2064.266520	352.085714
2065.945628	352.133333
2067.629522	332.485714
2069.307956	319.838095
2070.989467	316.742857
2072.667226	329.285714
2074.344649	338.142857
2076.023441	347.428571
2077.700190	338.771429
2079.374898	340.742857
2081.050975	331.600000
2082.725012	342.666667
2084.398713	337.247619
2086.072079	341.580952
2087.743407	330.323810
2089.414400	337.552381
2091.085059	333.438095
2092.755384	336.809524
2094.425374	329.095238
2096.093329	327.400000
2097.760951	328.695238
2099.426539	333.561905
2101.093495	343.790476
2102.758418	342.590476
2104.423008	345.285714
2106.085567	335.809524
2107.749495	341.133333
2109.411391	337.923810
2111.072956	336.542857
2112.734191	330.361905
2114.393396	328.333333
2116.052272	320.047619
2117.710817	332.561905
2119.369033	339.933333
2121.023525	338.228571
2122.681083	329.009524
2124.338310	312.066667
2125.991817	302.400000
2127.646691	297.409524
2129.297846	291.438095
2130.952064	304.485714
2132.602564	317.485714
2134.254432	327.228571
2135.900891	337.228571
2137.552104	326.209524
2139.199604	310.638095
2140.848472	304.038095
2142.495320	298.552381
2144.141842	293.009524
2145.788039	299.685714
2147.430528	304.780952
2149.076075	313.133333
2150.717915	307.028571
2152.362812	308.228571
2154.004004	300.000000
2155.644872	298.628571
2157.285417	305.123810
2158.923949	316.333333
2160.563847	313.800000
2162.200045	327.104762
2163.837609	327.609524
2165.474851	330.057143
2167.110083	332.895238
2168.744993	334.685714
2170.379582	328.828571
2172.013850	333.580952
2173.644424	334.466667
2175.278049	336.628571
2176.907983	333.238095
2178.539282	327.752381
2180.168577	319.123810
2181.797551	318.428571
2183.426207	317.838095
2185.054543	316.409524
2186.680876	321.866667
2188.306891	322.228571
2189.930905	318.761905
2191.556284	323.733333
2193.179662	323.057143
2194.804405	314.580952
2196.425466	315.180952
2198.046212	318.990476
2199.668321	325.095238
2201.288433	330.676190
2202.906549	328.466667
2204.524349	326.161905
2206.141833	318.780952
2207.759002	319.028571
2209.375856	319.485714
2210.992395	320.104762
2212.606940	308.485714
2214.219493	316.047619
2215.833411	310.809524
2217.445336	307.761905
2219.058626	311.809524
2220.669924	313.476190
2222.279233	305.923810
2223.889906	313.457143
2225.498590	310.095238
2227.106962	305.904762
2228.713346	308.571429
2230.321094	313.552381
2231.926855	312.238095
2233.532305	321.514286
2235.135771	317.685714
2236.740599	309.057143
2238.343443	294.457143
2239.944304	294.495238
2241.546528	288.704762
2243.146769	297.400000
2244.748373	308.704762
2246.346325	316.047619
2247.945639	312.952381
2249.542973	312.485714
2251.139999	307.895238
2252.738386	309.161905
2254.333125	319.923810
2255.925888	327.695238
2257.520012	327.314286
2259.115498	322.542857
2260.707340	322.971429
2262.298875	318.857143
2263.891771	318.704762
2265.479358	316.047619
2267.071642	313.295238
2268.658618	309.476190
2270.248623	317.019048
2271.833323	317.466667
2273.422717	314.380952
2275.006808	314.904762
2276.592261	316.819048
2278.175745	315.704762
2279.762254	310.752381
2281.345130	302.180952
2282.927702	295.314286
2284.509972	293.780952
2286.088611	295.361905
2287.670274	301.714286
2289.248309	303.314286
2290.829368	304.009524
2292.406799	309.438095
2293.982267	305.685714
2295.560757	304.771429
2297.135622	304.704762
2298.710187	301.904762
2300.284452	307.552381
2301.858416	305.876190
2303.432080	301.914286
2305.005443	296.619048
2306.575188	290.952381
2308.144634	280.819048
2309.717099	285.390476
2311.284288	288.771429
2312.854496	296.923810
2314.421089	301.704762
2315.989042	307.533333
2317.555040	298.514286
2319.120740	299.180952
2320.686142	297.552381
2322.249591	302.571429
2323.814398	304.419048
2325.375598	319.104762
2326.939812	324.190476
2328.498765	329.971429
2330.060731	316.295238
2331.620747	316.619048
2333.180467	306.761905
2334.738238	308.209524
2336.295715	308.400000
2337.852896	309.914286
2339.408131	303.057143
2340.963071	306.180952
2342.517718	313.219048
2344.072071	310.180952
2345.626130	304.209524
2347.179896	306.504762
2348.731717	303.257143
2350.281595	301.238095
2351.834481	305.961905
2353.382125	298.238095
2354.932776	298.371429
2356.479837	307.047619
2358.028255	311.266667
2359.576381	314.295238
2361.120920	308.504762
2362.666816	300.542857
2364.210773	295.314286
2365.756088	293.552381
2367.297818	287.409524
2368.840906	288.047619
2370.382057	283.828571
2371.922919	283.133333
2373.463492	280.076190
2375.003776	279.857143
2376.543771	271.085714
2378.080187	274.742857
2379.619605	277.542857
2381.155446	285.723810
2382.692643	292.990476
2384.226266	303.180952
2385.762888	297.142857
2387.297579	291.038095
2388.830341	283.085714
2390.362817	278.000000
2391.893364	280.600000
2393.426909	291.047619
2394.955243	296.723810
2396.484933	301.714286
2398.014338	295.657143
2399.543458	287.066667
2401.072292	276.990476
2402.595922	284.638095
2404.124187	287.657143
2405.647249	292.923810
2407.174946	295.676190
2408.695802	295.266667
2410.221292	292.647619
2411.743221	301.085714
2413.266506	301.714286
2414.787870	304.085714
2416.307314	311.514286
2417.828113	311.733333
2419.346993	319.409524
2420.865591	317.800000
2422.382272	314.980952
2423.900308	314.590476
2425.418062	322.790476
2426.932264	327.809524
2428.446186	333.076190
2429.959829	334.828571
2431.474825	321.133333
2432.986273	320.457143
2434.499076	335.666667
2436.009966	340.257143
2437.520576	343.952381
2439.029275	351.819048
2440.540961	347.542857
2442.049103	350.771429
2443.556966	360.361905
2445.064552	357.714286
2446.568598	362.609524
2448.075628	372.866667
2449.580750	385.009524
2451.085595	395.733333
2452.588533	398.057143
2454.091194	387.580952
2455.593579	369.942857
2457.094059	357.980952
2458.595892	348.466667
2460.095821	346.314286
2461.595474	356.838095
2463.094852	361.695238
2464.592327	350.400000
2466.087900	344.295238
2467.586453	330.485714
2469.081477	319.085714
2470.577855	326.895238
2472.070706	324.266667
2473.564909	316.685714
2475.058839	314.685714
2476.549246	315.066667
2478.042630	317.276190
2479.534115	317.542857
2481.023704	316.047619
2482.513021	321.780952
2484.000443	321.504762
2485.490840	310.152381
2486.977718	315.314286
2488.465948	318.047619
2489.950662	320.019048
2491.435105	316.723810
2492.920900	310.600000
2494.404802	288.123810
2495.890056	285.209524
2497.370176	283.752381
2498.853268	279.666667
2500.334470	274.742857
2501.815403	278.380952
2503.294447	281.714286
2504.773223	287.571429
2506.251730	289.990476
2507.729968	288.628571
2509.207938	286.047619
2510.682404	276.038095
2512.159838	273.495238
2513.633769	274.409524
2515.109051	278.514286
2516.584065	279.638095
2518.055578	285.866667
2519.528442	287.800000
2520.999422	290.438095
2522.471753	286.095238
2523.938971	284.942857
2525.409155	276.076190
2526.877457	272.380952
2528.345495	268.180952
2529.813268	269.352381
2531.280776	271.219048
2532.748019	274.171429
2534.211771	277.409524
2535.676872	281.047619
2537.140096	279.647619
2538.604669	275.238095
2540.065753	272.685714
2541.528188	266.580952
2542.990359	267.742857
2544.449043	270.380952
2545.912300	270.723810
2547.370460	276.161905
2548.829969	289.609524
2550.284385	298.190476
2551.743371	302.161905
2553.200484	305.133333
2554.655727	300.685714
2556.110709	295.400000
2557.563821	303.180952
2559.018282	298.542857
2560.470874	290.285714
2561.923206	278.352381
2563.373670	280.000000
2564.827090	276.247619
2566.275428	284.171429
2567.726722	285.114286
2569.176149	288.752381
2570.622105	283.533333
2572.071015	285.714286
2573.516454	291.952381
2574.963242	290.047619
2576.408166	295.419048
2577.852833	297.723810
2579.298847	309.647619
2580.741394	310.961905
2582.185289	319.095238
2583.625719	313.428571
2585.067497	308.809524
2586.507414	293.333333
2587.948680	289.247619
2589.386483	285.609524
2590.827236	286.323810
2592.262926	286.771429
2593.701566	287.752381
2595.138349	284.885714
2596.573275	284.314286
2598.011150	290.504762
2599.443967	293.961905
2600.878131	292.961905
2602.310440	290.952381
2603.744096	294.009524
2605.175899	293.552381
2606.607449	306.304762
2608.038745	316.323810
2609.468190	326.685714
2610.897382	329.666667
2612.324723	324.457143
2613.753411	321.914286
2615.181846	322.542857
2616.606835	332.904762
2618.033169	351.838095
2619.457655	359.409524
2620.883487	364.838095
2622.305875	378.923810
2623.729609	384.076190
2625.151497	397.276190
2626.573134	408.885714
2627.992926	418.085714
2629.414064	435.057143
2630.834952	460.800000
2632.252402	483.371429
2633.672791	499.333333
2635.089743	522.066667
2636.506447	547.114286
2637.922902	575.142857
2639.339109	609.847619
2640.755067	632.428571
2642.169185	652.704762
2643.583056	665.161905
2644.995087	695.219048
2646.408463	740.114286
2647.818409	784.457143
2649.231291	838.819048
2650.640744	891.428571
2652.049951	921.285714
2653.457322	969.533333
2654.867627	1018.647619
2656.276096	1062.885714
2657.682730	1114.990476
2659.089119	1151.314286
2660.493674	1196.790476
2661.899573	1254.380952
2663.303639	1281.400000
2664.707461	1317.219048
2666.111038	1368.466667
2667.512783	1408.876190
2668.915872	1466.400000
2670.315544	1517.180952
2671.716559	1527.295238
2673.114157	1536.142857
2674.514686	1534.971429
2675.911800	1526.895238
2677.310257	1516.647619
2678.706886	1489.552381
2680.103274	1460.514286
2681.499419	1425.038095
2682.893738	1374.409524
2684.289400	1325.333333
2685.681652	1264.476190
2687.075248	1186.695238
2688.467019	1113.190476
2689.860132	1036.619048
2691.251422	963.180952
2692.640889	893.666667
2694.030117	828.542857
2695.419104	771.923810
2696.809434	726.847619
2698.194779	679.714286
2699.583049	634.571429
2700.969497	593.009524
2702.355708	565.466667
2703.741679	533.714286
2705.124252	507.485714
2706.508166	485.800000
2707.891843	459.761905
2709.275282	441.790476
2710.655325	436.209524
2712.036710	414.247619
2713.416279	403.161905
2714.797190	393.419048
2716.176286	381.304762
2717.553567	369.838095
2718.932190	356.942857
2720.309000	336.952381
2721.685574	327.819048
2723.061912	326.942857
2724.436438	336.800000
2725.812305	337.990476
2727.184785	337.142857
2728.560182	320.285714
2729.930617	307.485714
2731.302394	299.771429
2732.673937	296.266667
2734.043671	293.152381
2735.414745	296.228571
2736.784012	289.485714
2738.153045	293.476190
2739.520271	285.895238
2740.887265	286.676190
2742.254026	288.590476
2743.620554	291.942857
2744.985277	287.961905
2746.349769	284.447619
2747.714028	274.209524
2749.078056	274.247619
2750.441851	274.552381
2751.802273	276.400000
2753.165606	273.380952
2754.523996	275.314286
2755.885296	273.819048
2757.243225	262.409524
2758.604064	253.552381
2759.963102	256.085714
2761.318772	257.780952
2762.677350	260.685714
2764.032562	260.819048
2765.387544	241.904762
2766.740729	259.476190
2768.096821	277.104762
2769.449549	281.085714
2770.802048	273.152381
2772.154319	257.866667
2773.507929	239.933333
2774.858177	248.495238
2776.206632	254.828571
2777.557991	244.352381
2778.905991	250.685714
2780.255330	250.819048
2781.602876	250.628571
2782.950195	248.419048
2784.297288	248.571429
2785.642590	237.447619
2786.987666	238.876190
2788.332516	231.047619
2789.677140	223.771429
2791.018411	228.885714
2792.361021	238.066667
2793.703406	245.352381
2795.045565	250.542857
2796.384375	248.704762
2797.726085	243.161905
2799.064446	238.657143
2800.404145	237.485714
2801.742058	233.533333
2803.078187	242.295238
2804.414093	244.780952
2805.751335	243.152381
2807.086794	239.228571
2808.422030	240.933333
2809.755484	247.390476
2811.090274	253.590476
2812.421723	252.542857
2813.756068	245.980952
2815.085515	231.723810
2816.416299	234.114286
2817.746861	234.600000
2819.075644	232.038095
2820.405764	232.819048
2821.734104	238.161905
2823.062224	230.142857
2824.388567	235.561905
2825.716245	226.152381
2827.040591	224.666667
2828.366272	225.342857
2829.690179	233.123810
2831.013865	231.333333
2832.338887	230.038095
2833.660580	222.466667
2834.982053	228.457143
2836.303308	229.990476
2837.624344	233.828571
2838.943608	232.800000
2840.264207	227.752381
2841.583034	224.380952
2842.901643	225.123810
2844.218482	217.476190
2845.535103	213.895238
2846.851506	207.828571
2848.166141	208.657143
2849.482110	204.828571
2850.794759	212.019048
2852.108744	212.190476
2853.422512	212.171429
2854.736063	208.266667
2856.047847	207.857143
2857.357866	196.552381
2858.669219	206.933333
2859.977256	213.323810
2861.286629	217.780952
2862.595786	216.361905
2863.904728	213.485714
2865.211907	207.295238
2866.517322	212.619048
2867.824072	217.609524
2869.129059	221.095238
2870.433833	219.019048
2871.736845	221.219048
2873.042739	219.866667
2874.343777	216.619048
2875.646150	215.038095
2876.946763	208.323810
2878.248710	202.561905
2879.550444	213.695238
2880.848874	219.790476
2882.148637	217.571429
2883.446643	223.800000
2884.744437	214.219048
2886.040474	206.104762
2887.337845	214.628571
2888.633460	203.095238
2889.928865	204.600000
2891.224058	212.504762
2892.515953	216.161905
2893.810725	215.847619
2895.102200	221.171429
2896.395009	207.333333
2897.687607	213.895238
2898.976910	208.828571
2900.267546	217.476190
2901.556431	214.076190
2902.846649	218.266667
2904.133575	212.419048
2905.421833	207.714286
2906.708342	204.104762
2907.994642	204.161905
2909.280734	202.085714
2910.565078	209.161905
2911.852294	209.904762
2913.134683	209.952381
2914.418404	214.180952
2915.700378	218.257143
2916.982146	221.114286
2918.262168	224.152381
2919.545060	223.123810
2920.826207	214.133333
2922.104072	212.533333
2923.384806	215.314286
2924.662259	212.438095
2925.939507	208.866667
2927.215012	208.504762
2928.493385	198.161905
2929.766943	197.333333
2931.043369	203.552381
2932.318054	206.057143
2933.590999	200.038095
2934.865274	202.304762
2936.137810	202.885714
2937.410142	198.495238
2938.679201	201.247619
2939.951125	200.876190
2941.221310	191.180952
2942.491293	186.761905
2943.761072	190.257143
2945.029114	185.628571
2946.295421	184.561905
2947.561525	184.876190
2948.828960	187.857143
2950.094659	186.961905
2951.360156	191.180952
2952.625451	191.209524
2953.887482	195.819048
2955.150842	192.171429
2956.414001	194.314286
2957.675427	188.228571
2958.938183	187.942857
2960.199208	187.276190
2961.458502	190.152381
2962.717595	182.780952
2963.976488	182.657143
2965.235181	178.714286
2966.493674	185.266667
2967.750438	194.495238
2969.007002	200.933333
2970.261839	196.780952
2971.518005	190.180952
2972.770915	187.561905
2974.025155	189.552381
2975.279196	197.009524
2976.531511	195.428571
2977.783628	193.266667
2979.034020	186.628571
2980.287267	189.095238
2981.535737	190.152381
2982.787061	192.771429
2984.035137	186.990476
2985.283015	183.066667
2986.530696	184.857143
2987.778181	188.000000
2989.023944	185.009524
2990.269510	181.780952
2991.516405	177.514286
2992.760054	170.552381
2994.005032	170.580952
2995.246767	173.028571
2996.491353	173.876190
2997.734220	176.933333
2998.973845	183.800000
3000.216322	182.980952
3001.455558	188.009524
3002.696122	191.828571
3003.934969	189.466667
3005.173622	181.800000
3006.410559	177.180952
3007.648823	175.485714
3008.885373	176.409524
3010.121729	177.466667
3011.357891	175.400000
3012.592339	171.076190
3013.826594	173.990476
3015.060656	172.523810
3016.293006	172.819048
3017.523644	174.400000
3018.757128	167.342857
3019.988901	157.590476
3021.218962	156.171429
3022.448832	154.971429
3023.676992	170.942857
3024.906479	185.409524
3026.134256	183.476190
3027.361842	175.723810
3028.590754	170.180952
3029.814924	170.590476
3031.041937	176.809524
3032.265727	178.866667
3033.490842	183.142857
3034.714251	177.666667
3035.937471	171.409524
3037.158985	166.885714
3038.383340	160.961905
3039.602960	153.552381
3040.823906	155.400000
3042.044662	154.733333
3043.263715	162.885714
3044.484094	168.742857
3045.701256	166.438095
3046.919743	164.857143
3048.136529	157.352381
3049.353126	154.971429
3050.569536	161.161905
3051.782732	157.361905
3052.998766	152.161905
3054.211588	151.076190
3055.427247	155.895238
3056.638183	162.590476
3057.850445	176.723810
3059.062519	176.923810
3060.274407	161.695238
3061.484597	149.628571
3062.694602	143.914286
3063.904420	139.466667
3065.112542	152.285714
3066.320478	152.847619
3067.526720	142.947619
3068.734286	147.771429
3069.940157	145.880952
3071.145843	147.342857
3072.351344	149.719048
3073.555153	139.685714
3074.760285	135.333333
3075.963724	141.876190
3077.165471	146.304762
3078.367035	153.847619
3079.568415	155.304762
3080.769611	152.438095
3081.969117	151.923810
3083.168439	155.733333
3084.369085	152.409524
3085.568042	147.171429
3086.763803	152.895238
3087.962394	152.971429
3089.157791	154.133333
3090.354512	154.200000
3091.548040	147.876190
3092.744396	144.723810
3093.939065	148.876190
3095.130544	143.085714
3096.326354	148.057143
3097.517471	144.371429
3098.709910	145.676190
3099.899162	151.914286
3101.091240	151.809524
3102.281634	142.904762
3103.468841	147.676190
3104.657372	139.361905
3105.847225	137.923810
3107.033893	140.657143
3108.220382	141.219048
3109.406691	138.019048
3110.594323	137.685714
3111.778772	142.266667
3112.961541	148.190476
3114.147134	146.838095
3115.331046	146.809524
3116.513280	137.923810
3117.695336	133.552381
3118.877213	140.847619
3120.058912	138.885714
3121.238934	132.000000
3122.417278	134.342857
3123.598444	133.923810
3124.776434	141.523810
3125.954247	138.438095
3127.131883	125.780952
3128.307844	123.771429
3129.483629	128.638095
3130.660734	137.333333
3131.836166	152.447619
3133.009924	151.123810
3134.182009	140.390476
3135.355415	136.238095
3136.528646	137.161905
3137.700204	136.657143
3138.873084	145.638095
3140.042796	153.504762
3141.213829	142.561905
3142.383191	139.190476
3143.550884	142.371429
3144.721392	139.990476
3145.887241	144.104762
3147.057400	147.047619
3148.222901	135.857143
3149.388229	142.495238
3150.553383	143.600000
3151.718363	141.628571
3152.884664	147.533333
3154.046311	147.495238
3155.209279	146.733333
3156.372073	155.542857
3157.534695	156.695238
3158.695652	143.828571
3159.856436	139.190476
3161.017048	127.800000
3162.175997	129.295238
3163.334773	133.609524
3164.493378	136.390476
3165.651811	128.428571
3166.810072	123.238095
3167.966671	117.409524
3169.121609	123.209524
3170.277866	123.419048
3171.432463	125.961905
3172.586888	126.380952
3173.739654	127.885714
3174.892250	130.647619
3176.044676	133.580952
3177.196931	134.923810
3178.349017	138.104762
3179.497956	141.523810
3180.649702	148.476190
3181.799791	144.761905
3182.948222	137.028571
3184.096485	127.219048
3185.244579	127.419048
3186.392503	125.914286
3187.538773	133.466667
3188.684874	134.409524
3189.829321	138.057143
3190.973599	135.828571
3192.117710	140.200000
3193.263139	139.752381
3194.405429	139.047619
3195.547551	132.857143
3196.689507	127.866667
3197.831295	121.714286
3198.972916	127.038095
3200.111401	134.600000
3201.251205	142.628571
3202.392325	142.247619
3203.530311	141.838095
3204.666648	136.276190
3205.802819	141.419048
3206.940308	142.266667
3208.076148	145.409524
3209.213304	140.809524
3210.345848	144.752381
3211.482674	137.752381
3212.614888	134.704762
3213.748420	137.952381
3214.881786	133.838095
3216.012025	138.828571
3217.145062	149.523810
3218.274973	153.647619
3219.406201	151.619048
3220.534303	145.428571
3221.665203	134.914286
3222.794458	143.666667
3223.922069	142.733333
3225.046559	149.409524
3226.175324	151.238095
3227.300967	148.933333
3228.426447	152.095238
3229.550286	159.657143
3230.676920	153.380952
3231.798955	160.380952
3232.922307	165.742857
3234.045497	166.733333
3235.168525	161.514286
3236.289913	158.390476
3237.411140	150.638095
3238.530728	148.371429
3239.650155	158.809524
3240.767944	164.514286
3241.888526	163.152381
3243.005994	169.761905
3244.123301	178.238095
3245.240447	174.828571
3246.355958	174.638095
3247.472784	163.847619
3248.586499	151.000000
3249.703005	138.733333
3250.817875	140.409524
3251.929637	140.761905
3253.041240	131.828571
3254.154158	125.590476
3255.266916	127.990476
3256.376568	117.152381
3257.487535	114.314286
3258.598343	119.342857
3259.707519	124.942857
3260.815064	128.580952
3261.923924	129.866667
3263.032625	122.028571
3264.138224	141.771429
3265.245138	161.028571
3266.350422	170.780952
3267.457020	157.133333
3268.560518	128.409524
3269.665330	107.019048
3270.769985	115.980952
3271.871542	123.733333
3272.972942	126.533333
3274.075656	122.733333
3275.178213	124.600000
3276.277675	125.390476
3277.379919	129.380952
3278.479069	131.742857
3279.576593	127.304762
3280.673962	119.942857
3281.774114	120.571429
3282.871172	117.095238
3283.968076	122.095238
3285.064824	122.009524
3286.157013	122.466667
3287.253452	120.961905
3288.348268	124.333333
3289.442929	119.152381
3290.535969	118.657143
3291.628855	112.133333
3292.720120	112.009524
3293.812698	115.333333
3294.903656	121.171429
3295.992994	111.600000
3297.082179	109.914286
3298.172676	111.980952
3299.260089	116.714286
3300.347350	118.809524
3301.435923	113.752381
3302.524343	109.361905
3303.608216	100.047619
3304.696331	106.285714
3305.781365	113.742857
3306.864783	111.819048
3307.949513	113.885714
3309.032627	120.247619
3310.117053	114.723810
3311.198401	114.952381
3312.281061	112.076190
3313.362107	106.200000
3314.443002	105.619048
3315.522284	107.866667
3316.601415	107.714286
3317.681857	107.942857
3318.759226	105.857143
3319.837906	104.685714
3320.914974	101.571429
3321.991892	99.600000
3323.067200	97.914286
3324.142358	98.295238
3325.218827	97.733333
3326.292225	101.400000
3327.365475	108.533333
3328.440036	108.333333
3329.512987	110.780952
3330.584331	109.171429
3331.656985	106.780952
3332.726572	108.685714
3333.797470	116.866667
3334.866761	111.819048
3335.937363	111.752381
3337.006358	107.885714
3338.073747	108.019048
3339.139531	109.342857
3340.209541	118.676190
3341.276488	120.066667
3342.340373	115.552381
3343.407026	120.504762
3344.472075	117.876190
3345.535520	115.790476
3346.598818	111.666667
3347.661971	104.504762
3348.724977	92.838095
3349.787836	94.561905
3350.849094	95.609524
3351.907295	92.342857
3352.969717	102.504762
3354.029082	109.904762
3355.088303	115.895238
3356.148832	117.190476
3357.204852	120.171429
3358.263637	107.104762
3359.317914	107.180952
3360.374955	98.704762
3361.430397	95.019048
3362.487148	92.533333
3363.542302	101.971429
3364.595858	105.333333
3365.647817	104.304762
3366.702538	98.276190
3367.754211	98.895238
3368.805739	88.457143
3369.858577	89.828571
3370.908367	89.114286
3371.959466	92.133333
3373.007518	91.819048
3374.058331	100.628571
3375.106098	88.200000
3376.153723	92.133333
3377.201206	98.514286
3378.247095	104.466667
3379.294294	103.152381
3380.338449	100.495238
3381.385363	91.180952
3382.430685	97.342857
3383.472967	104.142857
3384.515107	104.980952
3385.558556	95.019048
3386.601863	90.314286
3387.643580	91.828571
3388.685156	91.904762
3389.726592	95.914286
3390.766439	94.400000
3391.804697	85.952381
3392.844263	86.200000
3393.883689	87.314286
3394.921527	90.266667
3395.957778	93.085714
3396.993889	88.923810
3398.031308	84.076190
3399.065694	78.447619
3400.101388	75.857143
3401.136942	82.304762
3402.169464	85.200000
3403.204740	88.990476
3404.236985	92.952381
3405.269092	93.447619
3406.299615	89.085714
3407.331446	90.542857
3408.363138	86.200000
3409.391802	80.057143
3410.420328	80.323810
3411.450162	89.247619
3412.479857	90.561905
3413.506527	102.019048
3414.534504	103.333333
3415.559456	97.085714
3416.587158	99.400000
3417.611837	107.933333
3418.637822	104.685714
3419.662227	97.495238
3420.686496	90.238095
3421.709186	89.552381
3422.731740	94.333333
3423.755600	100.552381
3424.776440	96.571429
3425.797145	90.123810
3426.819155	79.000000
3427.838147	82.590476
3428.857004	84.095238
3429.877166	81.580952
3430.894312	71.180952
