-118.362301	-2.600000
-115.692700	-8.200000
-113.026036	-0.800000
-110.360123	-8.200000
-107.697142	-21.800000
-105.032732	-3.000000
-102.371252	-11.600000
-99.708342	13.800000
-97.050540	-4.400000
-94.391307	34.400000
-91.732823	-5.600000
-89.077264	16.200000
-86.420276	-21.800000
-83.768385	0.400000
-81.115065	-13.000000
-78.464665	-10.200000
-75.812835	3.000000
-73.166096	-5.400000
-70.517927	19.600000
-67.870502	0.800000
-65.225990	-3.000000
-62.580050	-5.600000
-59.939191	2.800000
-57.296902	14.800000
-54.657523	0.200000
-52.016715	5.400000
-49.376646	7.200000
-46.741651	-1.200000
-44.105226	-19.400000
-41.471705	-6.200000
-38.836755	18.600000
-36.206870	20.200000
-33.573392	25.000000
-30.944977	9.600000
-28.317296	13.800000
-25.688187	18.200000
-23.064134	38.800000
-20.436492	34.200000
-17.813903	45.400000
-15.192045	97.400000
-12.570918	146.200000
-9.950522	387.600000
-7.333013	1254.400000
-4.714076	4482.200000
-2.098025	10435.600000
0.517298	11834.400000
3.131894	7725.400000
5.743608	926.800000
8.356749	100.800000
10.964857	30.800000
13.576547	63.200000
16.183206	14.800000
18.791293	20.600000
21.398656	15.000000
24.000994	1.600000
26.606910	1.600000
29.207805	18.400000
31.810127	22.600000
34.407431	4.400000
37.008311	-3.000000
39.604177	12.000000
42.201470	22.400000
44.798044	31.200000
47.389609	50.800000
49.982602	1.000000
52.572734	0.600000
55.164294	5.600000
57.752994	8.600000
60.343122	-9.600000
62.928250	11.800000
65.514806	-18.000000
68.100647	4.800000
70.683635	13.600000
73.268050	21.000000
75.845335	7.400000
78.426187	0.800000
81.004190	18.000000
83.581483	6.400000
86.160202	7.000000
88.733940	-13.200000
91.309104	-2.400000
93.881425	-0.800000
96.453039	-2.600000
99.021812	10.600000
101.592012	-4.200000
104.159373	21.000000
106.728161	12.200000
109.294111	19.200000
111.857227	22.000000
114.423900	25.400000
116.981350	30.200000
119.544486	49.600000
122.102663	61.400000
124.664393	85.800000
127.221168	135.000000
129.779368	248.400000
132.332616	381.000000
134.885165	527.400000
137.441266	764.600000
139.992418	942.800000
142.542872	1166.200000
145.092630	1331.400000
147.639568	1444.800000
150.185810	1496.400000
152.733479	1542.600000
155.280451	1544.000000
157.822487	1549.000000
160.363830	1543.400000
162.904481	1513.200000
165.446556	1500.000000
167.985821	1488.200000
170.522276	1485.800000
173.058041	1493.400000
175.595231	1476.600000
178.131729	1441.600000
180.665422	1423.800000
183.196312	1397.000000
185.726513	1434.400000
188.258139	1447.200000
190.786964	1413.000000
193.312991	1460.200000
195.838331	1460.800000
198.365096	1427.200000
200.889065	1416.600000
203.412348	1442.000000
205.934947	1413.600000
208.454753	1394.800000
210.973876	1378.200000
213.492316	1434.200000
216.012180	1449.000000
218.525043	1442.000000
221.041437	1449.200000
223.557149	1525.200000
226.067972	1567.200000
228.580219	1582.200000
231.089683	1577.000000
233.598469	1583.400000
236.106577	1559.400000
238.616109	1600.000000
241.120760	1626.200000
243.624735	1609.800000
246.130134	1517.800000
248.630658	1602.200000
251.134705	1578.600000
253.631782	1551.400000
256.132381	1527.400000
258.630209	1546.000000
261.127364	1540.600000
263.623846	1525.400000
266.115466	1530.000000
268.610604	1524.200000
271.102977	1574.000000
273.594679	1546.200000
276.083618	1508.400000
278.573980	1542.600000
281.061581	1623.400000
283.546422	1578.600000
286.034777	1611.200000
288.516193	1581.400000
291.001124	1647.800000
293.481208	1704.200000
295.964805	1733.800000
298.443560	1771.600000
300.923737	1842.000000
303.401163	1860.000000
305.877925	1809.400000
308.354023	1702.800000
310.827373	1681.400000
313.300062	1690.200000
315.772088	1699.400000
318.243454	1687.200000
320.712076	1705.000000
323.180038	1696.000000
325.649423	1681.200000
328.113985	1601.000000
330.582050	1523.200000
333.045296	1507.000000
335.507885	1524.200000
337.969816	1458.600000
340.431091	1502.800000
342.889632	1463.200000
345.349595	1384.200000
347.806826	1405.800000
350.263402	1385.000000
352.719323	1352.600000
355.172516	1378.400000
357.627131	1327.000000
360.076944	1292.400000
362.530253	1324.000000
364.978763	1290.000000
367.426623	1272.000000
369.875904	1247.600000
372.320392	1289.400000
374.766302	1241.800000
377.211563	1235.800000
379.654105	1244.200000
382.095999	1249.200000
384.537245	1209.800000
386.975776	1160.200000
389.415729	1191.400000
391.852968	1195.400000
394.287495	1152.400000
396.725510	1174.200000
399.158748	1171.400000
401.593408	1145.800000
404.023294	1146.400000
406.456667	1126.000000
408.885268	1156.400000
411.313229	1130.000000
413.742610	1117.200000
416.167227	1107.200000
418.593264	1113.600000
421.018662	1043.600000
423.443419	1112.600000
425.863417	1070.200000
428.284837	1084.000000
430.703560	1051.000000
433.123704	1054.600000
435.541153	1047.800000
437.960022	1050.200000
440.376198	980.400000
442.787627	975.200000
445.202532	933.200000
447.614747	909.600000
450.026328	932.000000
452.437275	832.200000
454.845536	829.800000
457.253165	838.000000
459.660161	853.800000
462.066525	828.800000
464.470208	838.000000
466.873260	843.000000
469.275682	856.000000
471.677474	859.000000
474.076588	836.400000
476.477122	853.200000
478.877027	886.600000
481.272209	873.400000
483.670858	942.000000
486.064787	967.400000
488.458090	1005.400000
490.850767	1057.400000
493.242819	1172.200000
495.636290	1283.600000
498.025048	1489.800000
500.411140	1777.800000
502.798652	2247.200000
505.185540	2988.800000
507.569765	4245.800000
509.955409	5939.000000
512.338390	8347.600000
514.718711	11018.800000
517.100451	12774.000000
519.479532	12691.800000
521.860032	11113.200000
524.237874	9247.600000
526.613061	7585.000000
528.987630	6408.600000
531.363618	5486.000000
533.736952	4708.000000
536.111705	4221.200000
538.481771	3732.600000
540.851222	3430.800000
543.222092	3119.200000
545.588280	2913.600000
547.955887	2729.600000
550.320848	2505.200000
552.685196	2374.200000
555.048932	2301.600000
557.414085	2189.600000
559.774566	2066.000000
562.136464	2010.000000
564.495723	1972.000000
566.852343	1926.000000
569.212409	1895.000000
571.565783	1796.400000
573.922602	1745.600000
576.276786	1679.400000
578.630361	1628.400000
580.983328	1564.800000
583.333664	1536.800000
585.685416	1547.200000
588.030492	1431.000000
590.381032	1397.200000
592.724899	1403.200000
595.074226	1393.400000
597.418906	1349.000000
599.760961	1294.200000
602.104433	1312.400000
604.445281	1277.600000
606.785528	1339.600000
609.123154	1388.600000
611.464215	1415.400000
613.800639	1510.600000
616.138479	1558.800000
618.473701	1555.400000
620.806308	1471.400000
623.140332	1417.000000
625.471741	1304.000000
627.802552	1289.800000
630.132765	1304.000000
632.462380	1266.200000
634.787373	1268.200000
637.117807	1256.200000
639.443619	1296.600000
641.766825	1243.800000
644.091447	1266.400000
646.413463	1224.200000
648.734885	1209.000000
651.053704	1204.400000
653.373939	1214.600000
655.693581	1182.000000
658.010622	1186.200000
660.327072	1220.800000
662.640923	1175.000000
664.956189	1153.600000
667.268859	1161.000000
669.582944	1161.800000
671.892430	1172.400000
674.203330	1175.600000
676.511638	1171.800000
678.819358	1177.400000
681.128493	1170.200000
683.433035	1110.000000
685.736991	1146.800000
688.040360	1109.200000
690.345144	1086.800000
692.645342	1062.600000
694.946955	1075.000000
697.247982	1018.200000
699.544428	1017.200000
701.842288	954.200000
704.139565	1007.200000
706.436259	994.800000
708.728377	1001.000000
711.023906	980.800000
713.314862	981.400000
715.607232	994.800000
717.897026	979.000000
720.186241	955.400000
722.474875	964.800000
724.760938	995.600000
727.048414	955.600000
729.333320	961.600000
731.617647	948.600000
733.899407	951.200000
736.182580	937.400000
738.465176	952.800000
740.743216	934.000000
743.022670	937.200000
745.301549	943.400000
747.579852	919.600000
749.853606	965.800000
752.128774	921.800000
754.403368	943.000000
756.675403	922.200000
758.948851	918.800000
761.219741	941.400000
763.488074	878.600000
765.757822	943.200000
768.025014	893.000000
770.291636	927.000000
772.557689	927.200000
774.821190	919.600000
777.086103	877.000000
779.350448	952.200000
781.610262	954.200000
783.871490	919.400000
786.132150	927.400000
788.390263	946.400000
790.645832	904.800000
792.904792	943.600000
795.157253	922.200000
797.415081	919.800000
799.668390	933.000000
801.919158	937.000000
804.171339	956.200000
806.420982	960.200000
808.672036	927.800000
810.918579	898.200000
813.166535	908.800000
815.411955	925.000000
817.658787	949.600000
819.905058	928.200000
822.146825	872.800000
824.391974	911.600000
826.630651	908.800000
828.872711	897.200000
831.110272	861.000000
833.349244	876.200000
835.585690	885.600000
837.823548	904.800000
840.058880	869.800000
842.291688	870.000000
844.525908	876.200000
846.757606	883.600000
848.988749	820.200000
851.219337	848.200000
853.449371	828.000000
855.678850	848.200000
857.903849	864.400000
860.132221	842.600000
862.356115	816.600000
864.581419	834.200000
866.802248	811.400000
869.026449	828.400000
871.246177	803.000000
873.467316	839.800000
875.687904	800.200000
877.905983	840.200000
880.125471	831.800000
882.340493	802.400000
884.554967	817.600000
886.768894	803.600000
888.982273	821.600000
891.195106	791.800000
893.407391	777.800000
895.617175	821.600000
897.826413	799.000000
900.035105	795.000000
902.241299	828.400000
904.448902	829.800000
906.654008	860.600000
908.858570	870.000000
911.060636	838.400000
913.264112	896.000000
915.465095	906.400000
917.665535	916.000000
919.867384	948.800000
922.062841	996.200000
924.261658	1033.800000
926.456037	1120.600000
928.653773	1248.400000
930.847073	1366.000000
933.041781	1480.600000
935.234004	1608.800000
937.425689	1808.000000
939.616836	1808.800000
941.805500	1851.400000
943.993627	1840.600000
946.179274	1800.400000
948.368273	1816.600000
950.552849	1802.800000
952.736890	1785.000000
954.924281	1849.200000
957.103369	1865.400000
959.285806	1795.400000
961.467710	1826.800000
963.647140	1829.200000
965.824097	1864.600000
968.002462	1892.400000
970.182233	1917.600000
972.355656	1904.200000
974.532425	1906.800000
976.704788	1847.800000
978.878557	1860.400000
981.047924	1862.400000
983.220634	1727.800000
985.390878	1639.200000
987.560594	1523.600000
989.729781	1376.600000
991.894571	1296.000000
994.062702	1224.400000
996.226439	1129.400000
998.391582	1075.400000
1000.554267	1102.000000
1002.716426	1021.800000
1004.876127	972.000000
1007.035305	998.400000
1009.195889	965.000000
1011.354018	929.000000
1013.511623	898.600000
1015.668705	900.400000
1017.825264	841.400000
1019.977443	868.400000
1022.131029	847.000000
1024.284092	856.600000
1026.434708	814.400000
1028.586729	777.600000
1030.734377	785.800000
1032.885357	772.800000
1035.031966	754.200000
1037.178057	751.600000
1039.323629	763.000000
1041.470605	751.200000
1043.611294	755.800000
1045.755311	724.200000
1047.896888	769.400000
1050.037949	726.400000
1052.180414	741.200000
1054.316600	737.600000
1056.456112	736.200000
1058.591268	721.400000
1060.729749	713.600000
1062.863877	744.600000
1064.997491	727.400000
1067.132509	729.000000
1069.263178	746.400000
1071.395252	737.200000
1073.524897	751.000000
1075.654030	747.400000
1077.782652	697.800000
1079.910762	708.400000
1082.036446	728.000000
1084.161620	750.200000
1086.288197	686.800000
1088.410438	726.600000
1090.534083	717.600000
1092.653393	738.800000
1094.777932	702.400000
1096.896227	714.600000
1099.015925	745.600000
1101.133205	729.800000
1103.249979	723.200000
1105.366246	715.000000
1107.480098	725.000000
1109.595353	690.000000
1111.706286	692.600000
1113.820530	703.800000
1115.930455	704.000000
1118.041782	719.000000
1120.152606	684.200000
1122.259113	680.600000
1124.368929	696.800000
1126.474431	664.600000
1128.581337	664.800000
1130.682026	662.800000
1132.787928	658.200000
1134.889521	665.000000
1136.992517	654.400000
1139.095012	659.600000
1141.191301	656.400000
1143.292796	668.200000
1145.389989	650.600000
1147.486683	638.600000
1149.582880	688.400000
1151.678578	650.200000
1153.773779	658.200000
1155.866583	659.600000
1157.960789	653.800000
1160.048804	687.200000
1162.142017	689.400000
1164.229042	656.800000
1166.319367	651.800000
1168.405403	660.600000
1170.494737	658.800000
1172.577890	636.800000
1174.662446	660.400000
1176.748402	688.400000
1178.830077	648.600000
1180.913154	686.600000
1182.993845	658.200000
1185.074044	671.800000
1187.153753	670.000000
1189.232969	686.200000
1191.309804	675.200000
1193.384258	675.000000
1195.462004	674.800000
1197.535479	651.200000
1199.610356	676.200000
1201.680965	664.000000
1203.752975	667.000000
1205.822609	640.200000
1207.893644	667.600000
1209.964191	657.000000
1212.030477	658.800000
1214.098164	632.400000
1216.163479	661.800000
1218.230194	651.000000
1220.292653	671.200000
1222.358397	667.200000
1224.419888	651.200000
1226.482778	668.600000
1228.543301	682.000000
1230.603341	641.200000
1232.662897	646.000000
1234.720089	700.400000
1236.776798	674.000000
1238.831145	652.200000
1240.888772	648.800000
1242.944037	684.800000
1244.995061	694.200000
1247.047485	663.600000
1249.099430	663.200000
1251.149015	674.400000
1253.198123	701.400000
1255.246751	642.800000
1257.294901	677.200000
1259.342573	649.600000
1261.386014	663.800000
1263.432730	703.800000
1265.477094	667.400000
1267.520980	694.600000
1269.562516	672.800000
1271.601702	694.200000
1273.644160	695.000000
1275.682397	706.000000
1277.722031	711.600000
1279.761191	680.800000
1281.796133	649.000000
1283.832473	652.600000
1285.866468	662.600000
1287.901862	650.800000
1289.933042	655.000000
1291.965621	643.200000
1293.997727	698.600000
1296.027493	643.400000
1298.058657	646.800000
1300.085613	652.000000
1302.113967	653.400000
1304.138117	651.400000
1306.165531	666.400000
1308.188744	634.200000
1310.213353	667.600000
1312.235629	616.000000
1314.259302	644.800000
1316.280642	647.200000
1318.301514	649.000000
1320.321920	623.600000
1322.338131	640.800000
1324.355741	619.000000
1326.371022	613.600000
1328.389562	645.400000
1330.403912	632.000000
1332.415937	679.400000
1334.431220	661.800000
1336.442317	655.400000
1338.454810	679.200000
1340.463121	679.200000
1342.474688	658.200000
1344.480216	654.200000
1346.488998	637.400000
1348.493604	674.200000
1350.501463	671.800000
1352.508859	657.600000
1354.510225	648.000000
1356.512988	640.800000
1358.515291	625.600000
1360.517133	655.600000
1362.518517	638.000000
1364.517586	658.400000
1366.516197	623.400000
1368.514350	647.200000
1370.512045	607.000000
1372.505576	637.000000
1374.500504	648.800000
1376.494975	624.200000
1378.488989	632.200000
1380.480696	656.200000
1382.471947	618.800000
1384.460893	640.200000
1386.451234	638.600000
1388.441120	606.200000
1390.428703	592.400000
1392.415832	588.800000
1394.400659	566.200000
1396.386881	597.800000
1398.370802	602.000000
1400.354271	583.400000
1402.337288	601.000000
1404.318007	607.600000
1406.300120	609.400000
1408.279936	573.600000
1410.259302	592.800000
1412.234529	582.000000
1414.212994	579.200000
1416.189166	600.400000
1418.164888	576.600000
1420.140161	578.800000
1422.113143	574.200000
1424.085678	607.000000
1426.057764	577.200000
1428.029402	594.000000
1429.996913	614.200000
1431.969497	595.800000
1433.934275	572.000000
1435.904126	603.000000
1437.869852	546.200000
1439.836972	587.800000
1441.801808	602.600000
1443.762524	607.200000
1445.728308	601.400000
1447.688137	566.400000
1449.649359	587.800000
1451.611974	584.600000
1453.570474	622.200000
1455.528532	595.800000
1457.486147	636.600000
1459.443321	626.000000
1461.398219	579.200000
1463.354509	608.400000
1465.308525	593.600000
1467.262101	606.000000
1469.213404	610.200000
1471.166099	583.000000
1473.116523	597.800000
1475.066508	575.800000
1477.016053	561.800000
1478.963330	567.600000
1480.908340	594.600000
1482.854742	584.600000
1484.800706	584.600000
1486.746232	585.400000
1488.689494	577.400000
1490.632319	577.800000
1492.572881	528.400000
1494.514834	557.200000
1496.454526	552.400000
1498.393782	562.000000
1500.332604	545.800000
1502.269166	544.600000
1504.207118	575.600000
1506.142813	542.200000
1508.078074	591.800000
1510.011078	562.400000
1511.943650	561.200000
1513.875790	547.400000
1515.807498	598.800000
1517.736952	553.200000
1519.667797	576.200000
1521.598211	565.000000
1523.524552	567.400000
1525.452283	563.200000
1527.377764	590.000000
1529.302816	562.000000
1531.227439	545.000000
1533.151633	570.800000
1535.073580	582.000000
1536.996916	582.200000
1538.918007	593.200000
1540.836853	600.800000
1542.757089	596.400000
1544.675081	648.200000
1546.592647	603.000000
1548.507971	636.000000
1550.424685	663.800000
1552.337344	660.400000
1554.253207	662.800000
1556.166831	688.400000
1558.078216	664.200000
1559.990990	694.800000
1561.899715	721.800000
1563.809830	750.200000
1565.719521	779.200000
1567.628788	835.400000
1569.535822	858.000000
1571.440623	954.600000
1573.346813	1055.200000
1575.250771	1138.400000
1577.154309	1253.400000
1579.057425	1370.000000
1580.958313	1512.600000
1582.860588	1684.800000
1584.760636	1700.400000
1586.662072	1633.400000
1588.559473	1544.400000
1590.456457	1371.200000
1592.353022	1210.200000
1594.250974	1023.800000
1596.143092	905.400000
1598.038403	845.000000
1599.933297	809.200000
1601.825969	755.600000
1603.718225	703.600000
1605.608261	690.400000
1607.497881	662.200000
1609.387086	629.600000
1611.275875	647.200000
1613.162448	618.200000
1615.050407	632.000000
1616.934351	600.400000
1618.819681	617.000000
1620.704597	624.800000
1622.587301	604.800000
1624.471390	590.600000
1626.351469	547.000000
1628.232934	564.000000
1630.112189	531.000000
1631.992830	550.800000
1633.867667	526.600000
1635.747486	510.600000
1637.623299	506.400000
1639.498703	536.400000
1641.375492	520.000000
1643.246484	543.400000
1645.120658	512.800000
1646.990834	520.800000
1648.864190	514.400000
1650.735343	526.800000
1652.604294	503.800000
1654.474631	497.200000
1656.340974	481.400000
1658.208703	513.200000
1660.074234	481.400000
1661.941149	506.400000
1663.804076	521.800000
1665.668388	482.400000
1667.530505	516.800000
1669.392216	481.600000
1671.255312	472.200000
1673.116214	491.800000
1674.974922	490.400000
1676.833227	468.800000
1678.692917	478.200000
1680.546840	496.600000
1682.403935	489.600000
1684.260628	472.600000
1686.113345	472.600000
1687.969233	505.200000
1689.821147	499.600000
1691.672659	476.400000
1693.523772	456.400000
1695.374483	443.200000
1697.224794	445.200000
1699.072921	445.400000
1700.922431	432.000000
1702.766193	455.800000
1704.614905	478.400000
1706.457870	469.000000
1708.304001	479.000000
1710.146171	457.000000
1711.991505	497.200000
1713.831099	485.800000
1715.672077	462.200000
1717.514438	450.200000
1719.352843	436.600000
1721.192631	471.000000
1723.030244	473.000000
1724.867461	448.800000
1726.702505	457.400000
1728.538932	434.000000
1730.373187	476.800000
1732.207048	495.000000
1734.040514	457.800000
1735.870034	493.200000
1737.702713	451.400000
1739.531448	457.000000
1741.363341	433.800000
1743.191291	453.400000
1745.018849	455.600000
1746.846016	429.800000
1748.672790	445.000000
1750.499174	445.400000
1752.321621	448.800000
1754.147222	444.000000
1755.968889	458.600000
1757.791938	444.200000
1759.612826	410.200000
1761.433324	432.400000
1763.255204	446.200000
1765.071384	451.400000
1766.890716	420.600000
1768.706121	446.600000
1770.524676	440.600000
1772.339307	450.800000
1774.153550	483.600000
1775.967407	437.600000
1777.780877	432.600000
1779.592193	437.600000
1781.404891	451.200000
1783.217202	445.600000
1785.025596	445.600000
1786.835371	428.400000
1788.641230	440.200000
1790.450236	435.800000
1792.255328	434.400000
1794.061800	443.000000
1795.867889	438.200000
1797.670068	440.600000
1799.475390	405.600000
1801.276804	377.800000
1803.079598	453.000000
1804.878487	416.000000
1806.678755	462.800000
1808.478643	419.200000
1810.276388	437.400000
1812.073753	461.000000
1813.870737	401.600000
1815.667341	415.800000
1817.461806	445.200000
1819.257651	420.000000
1821.047840	422.600000
1822.842926	418.200000
1824.632359	416.200000
1826.424930	470.400000
1828.215365	426.800000
1830.003665	420.600000
1831.795101	435.400000
1833.580891	406.800000
1835.368061	413.000000
1837.153099	421.400000
1838.941271	424.400000
1840.725557	417.200000
1842.507714	443.400000
1844.291249	438.400000
1846.072657	439.200000
1847.855442	419.000000
1849.634348	439.200000
1851.414632	434.600000
1853.192791	438.200000
1854.972327	436.400000
1856.749739	426.000000
1858.525027	432.400000
1860.301694	436.600000
1862.076238	432.200000
1863.852159	412.000000
1865.622461	435.000000
1867.395890	459.200000
1869.167199	425.200000
1870.938137	441.200000
1872.710452	418.400000
1874.477155	422.200000
1876.246982	434.400000
1878.012946	434.600000
1879.782034	429.000000
1881.547260	421.400000
1883.312118	447.600000
1885.078352	468.600000
1886.840728	440.400000
1888.602737	437.400000
1890.364379	418.200000
1892.125653	419.000000
1893.886561	413.600000
1895.647101	390.400000
1897.405532	419.400000
1899.163598	428.000000
1900.919556	426.200000
1902.676890	406.200000
1904.433858	427.600000
1906.188721	442.400000
1907.941478	414.000000
1909.693872	407.200000
1911.447641	398.000000
1913.199307	388.400000
1914.948871	380.400000
1916.699811	378.800000
1918.450387	390.000000
1920.197125	392.800000
1921.945238	398.600000
1923.691252	380.600000
1925.438642	396.200000
1927.183933	389.200000
1928.927127	404.800000
1930.671697	391.200000
1932.414170	405.400000
1934.156283	390.800000
1935.898036	402.800000
1937.639430	395.800000
1939.378730	403.400000
1941.117671	399.000000
1942.856253	393.600000
1944.592743	425.600000
1946.328876	409.300000
1948.066383	393.000000
1949.800069	411.600000
1951.535128	399.800000
1953.268100	407.600000
1955.000715	396.200000
1956.732973	422.400000
1958.464875	372.600000
1960.194691	409.400000
1961.922423	393.600000
1963.651528	424.600000
1965.380279	408.800000
1967.106946	415.400000
1968.833259	404.800000
1970.560945	399.000000
1972.283095	397.000000
1974.008346	426.400000
1975.729791	411.800000
1977.454335	413.400000
1979.176800	418.400000
1980.895461	399.400000
1982.617221	426.400000
1984.335179	406.800000
1986.054511	416.400000
1987.770042	396.400000
1989.490395	415.800000
1991.206948	393.000000
1992.919706	426.400000
1994.635559	400.600000
1996.349339	402.800000
1998.062770	387.600000
1999.774130	405.000000
2001.486863	394.000000
2003.195804	385.600000
2004.907839	399.400000
2006.614364	402.000000
2008.323982	425.000000
2010.031532	365.800000
2011.738735	400.000000
2013.443872	371.800000
2015.148662	412.400000
2016.854824	439.800000
2018.557204	391.600000
2020.260956	392.400000
2021.962645	386.000000
2023.663988	386.400000
2025.364986	370.400000
2027.063924	423.600000
2028.764233	377.800000
2030.460766	429.400000
2032.158671	410.800000
2033.854518	415.200000
2035.553450	366.800000
2037.246895	384.600000
2038.941713	386.400000
2040.636187	394.200000
2042.326893	402.000000
2044.020683	379.000000
2045.710706	365.000000
2047.402100	376.600000
2049.091441	397.600000
2050.782152	385.400000
2052.469101	393.800000
2054.155709	374.400000
2055.843688	370.600000
2057.527907	405.000000
2059.213496	373.800000
2060.898746	376.600000
2062.581948	373.200000
2064.266520	359.400000
2065.945628	367.400000
2067.629522	364.800000
2069.307956	374.800000
2070.989467	374.000000
2072.667226	389.800000
2074.344649	390.800000
2076.023441	357.200000
2077.700190	372.400000
2079.374898	368.600000
2081.050975	376.800000
2082.725012	402.400000
2084.398713	380.000000
2086.072079	350.200000
2087.743407	370.200000
2089.414400	370.000000
2091.085059	386.200000
2092.755384	362.400000
2094.425374	362.600000
2096.093329	370.600000
2097.760951	379.400000
2099.426539	372.600000
2101.093495	431.400000
2102.758418	378.400000
2104.423008	386.200000
2106.085567	369.400000
2107.749495	385.200000
2109.411391	389.800000
2111.072956	365.800000
2112.734191	381.600000
2114.393396	347.200000
2116.052272	355.800000
2117.710817	412.200000
2119.369033	379.600000
2121.023525	395.200000
2122.681083	359.000000
2124.338310	379.600000
2125.991817	348.400000
2127.646691	339.800000
2129.297846	341.000000
2130.952064	352.400000
2132.602564	341.600000
2134.254432	414.400000
2135.900891	349.600000
2137.552104	385.400000
2139.199604	348.600000
2140.848472	361.000000
2142.495320	389.600000
2144.141842	377.800000
2145.788039	368.400000
2147.430528	355.800000
2149.076075	370.800000
2150.717915	348.000000
2152.362812	360.000000
2154.004004	364.800000
2155.644872	388.800000
2157.285417	356.800000
2158.923949	366.800000
2160.563847	371.400000
2162.200045	353.200000
2163.837609	399.400000
2165.474851	367.400000
2167.110083	368.200000
2168.744993	384.200000
2170.379582	350.800000
2172.013850	364.400000
2173.644424	358.000000
2175.278049	376.600000
2176.907983	369.200000
2178.539282	362.600000
2180.168577	383.000000
2181.797551	353.000000
2183.426207	344.000000
2185.054543	373.800000
2186.680876	346.200000
2188.306891	363.000000
2189.930905	373.400000
2191.556284	355.200000
2193.179662	354.200000
2194.804405	346.800000
2196.425466	363.200000
2198.046212	353.600000
2199.668321	331.600000
2201.288433	354.400000
2202.906549	355.600000
2204.524349	360.800000
2206.141833	356.400000
2207.759002	335.000000
2209.375856	342.400000
2210.992395	354.600000
2212.606940	367.800000
2214.219493	363.000000
2215.833411	336.200000
2217.445336	375.400000
2219.058626	371.600000
2220.669924	372.400000
2222.279233	352.200000
2223.889906	361.800000
2225.498590	359.400000
2227.106962	347.000000
2228.713346	360.200000
2230.321094	338.600000
2231.926855	353.000000
2233.532305	373.400000
2235.135771	316.600000
2236.740599	365.200000
2238.343443	368.200000
2239.944304	328.400000
2241.546528	339.400000
2243.146769	385.000000
2244.748373	356.200000
2246.346325	351.800000
2247.945639	370.200000
2249.542973	337.800000
2251.139999	387.000000
2252.738386	360.000000
2254.333125	354.400000
2255.925888	365.800000
2257.520012	363.800000
2259.115498	378.200000
2260.707340	339.600000
2262.298875	357.200000
2263.891771	358.600000
2265.479358	336.800000
2267.071642	347.400000
2268.658618	343.600000
2270.248623	375.000000
2271.833323	361.000000
2273.422717	367.400000
2275.006808	341.400000
2276.592261	335.200000
2278.175745	338.000000
2279.762254	308.800000
2281.345130	354.800000
2282.927702	326.600000
2284.509972	342.000000
2286.088611	353.400000
2287.670274	345.400000
2289.248309	361.200000
2290.829368	348.000000
2292.406799	336.100000
2293.982267	324.200000
2295.560757	340.400000
2297.135622	343.000000
2298.710187	311.400000
2300.284452	352.400000
2301.858416	336.800000
2303.432080	338.600000
2305.005443	345.600000
2306.575188	307.600000
2308.144634	329.200000
2309.717099	328.400000
2311.284288	316.800000
2312.854496	334.600000
2314.421089	356.800000
2315.989042	336.800000
2317.555040	331.200000
2319.120740	320.400000
2320.686142	327.200000
2322.249591	338.800000
2323.814398	348.200000
2325.375598	355.400000
2326.939812	372.400000
2328.498765	395.400000
2330.060731	365.400000
2331.620747	359.400000
2333.180467	296.600000
2334.738238	361.600000
2336.295715	346.000000
2337.852896	332.800000
2339.408131	346.600000
2340.963071	342.800000
2342.517718	345.600000
2344.072071	328.000000
2345.626130	393.000000
2347.179896	354.600000
2348.731717	355.400000
2350.281595	337.200000
2351.834481	330.000000
2353.382125	348.800000
2354.932776	347.400000
2356.479837	344.000000
2358.028255	350.000000
2359.576381	349.000000
2361.120920	320.200000
2362.666816	352.800000
2364.210773	333.800000
2365.756088	336.600000
2367.297818	337.400000
2368.840906	321.400000
2370.382057	352.400000
2371.922919	319.800000
2373.463492	333.200000
2375.003776	318.400000
2376.543771	326.600000
2378.080187	333.800000
2379.619605	295.600000
2381.155446	315.000000
2382.692643	335.200000
2384.226266	307.800000
2385.762888	310.800000
2387.297579	335.000000
2388.830341	319.200000
2390.362817	345.200000
2391.893364	325.400000
2393.426909	331.600000
2394.955243	333.600000
2396.484933	345.600000
2398.014338	346.600000
2399.543458	314.800000
2401.072292	332.400000
2402.595922	321.600000
2404.124187	304.800000
2405.647249	359.600000
2407.174946	321.600000
2408.695802	344.800000
2410.221292	311.400000
2411.743221	356.600000
2413.266506	342.200000
2414.787870	318.400000
2416.307314	328.800000
2417.828113	351.400000
2419.346993	343.200000
2420.865591	330.600000
2422.382272	362.800000
2423.900308	334.400000
2425.418062	364.600000
2426.932264	354.400000
2428.446186	373.000000
2429.959829	361.800000
2431.474825	367.600000
2432.986273	331.200000
2434.499076	359.400000
2436.009966	339.800000
2437.520576	360.600000
2439.029275	366.000000
2440.540961	369.800000
2442.049103	362.800000
2443.556966	361.200000
2445.064552	385.000000
2446.568598	402.800000
2448.075628	366.200000
2449.580750	396.000000
2451.085595	396.800000
2452.588533	378.200000
2454.091194	379.400000
2455.593579	397.200000
2457.094059	380.800000
2458.595892	392.200000
2460.095821	354.400000
2461.595474	396.400000
2463.094852	385.200000
2464.592327	374.200000
2466.087900	348.200000
2467.586453	401.000000
2469.081477	363.000000
2470.577855	334.000000
2472.070706	368.200000
2473.564909	342.600000
2475.058839	315.000000
2476.549246	332.600000
2478.042630	336.400000
2479.534115	357.000000
2481.023704	388.200000
2482.513021	330.000000
2484.000443	351.200000
2485.490840	319.000000
2486.977718	336.600000
2488.465948	314.200000
2489.950662	343.400000
2491.435105	342.600000
2492.920900	326.800000
2494.404802	353.400000
2495.890056	334.600000
2497.370176	307.600000
2498.853268	305.000000
2500.334470	314.800000
2501.815403	335.200000
2503.294447	327.600000
2504.773223	298.800000
2506.251730	321.800000
2507.729968	297.800000
2509.207938	307.800000
2510.682404	319.800000
2512.159838	322.200000
2513.633769	292.000000
2515.109051	331.400000
2516.584065	335.400000
2518.055578	301.800000
2519.528442	342.200000
2520.999422	310.000000
2522.471753	320.000000
2523.938971	295.000000
2525.409155	311.800000
2526.877457	317.400000
2528.345495	321.200000
2529.813268	302.200000
2531.280776	300.400000
2532.748019	326.000000
2534.211771	324.800000
2535.676872	320.400000
2537.140096	321.600000
2538.604669	310.800000
2540.065753	300.600000
2541.528188	310.400000
2542.990359	317.600000
2544.449043	329.400000
2545.912300	325.000000
2547.370460	335.400000
2548.829969	323.200000
2550.284385	353.200000
2551.743371	330.400000
2553.200484	334.800000
2554.655727	319.800000
2556.110709	322.600000
2557.563821	301.800000
2559.018282	324.400000
2560.470874	318.200000
2561.923206	341.000000
2563.373670	312.600000
2564.827090	294.600000
2566.275428	287.800000
2567.726722	313.400000
2569.176149	310.800000
2570.622105	295.400000
2572.071015	296.600000
2573.516454	318.200000
2574.963242	318.000000
2576.408166	337.000000
2577.852833	312.200000
2579.298847	298.000000
2580.741394	338.200000
2582.185289	350.800000
2583.625719	321.400000
2585.067497	287.800000
2586.507414	315.000000
2587.948680	311.600000
2589.386483	316.200000
2590.827236	317.200000
2592.262926	326.800000
2593.701566	303.400000
2595.138349	302.200000
2596.573275	314.600000
2598.011150	316.000000
2599.443967	315.800000
2600.878131	320.200000
2602.310440	302.600000
2603.744096	308.000000
2605.175899	320.800000
2606.607449	305.800000
2608.038745	323.400000
2609.468190	321.600000
2610.897382	334.200000
2612.324723	315.600000
2613.753411	298.800000
2615.181846	341.800000
2616.606835	333.400000
2618.033169	357.400000
2619.457655	353.600000
2620.883487	352.400000
2622.305875	366.400000
2623.729609	358.000000
2625.151497	333.400000
2626.573134	367.000000
2627.992926	376.000000
2629.414064	353.400000
2630.834952	377.000000
2632.252402	381.200000
2633.672791	388.800000
2635.089743	385.400000
2636.506447	408.800000
2637.922902	463.200000
2639.339109	455.600000
2640.755067	430.400000
2642.169185	476.200000
2643.583056	481.000000
2644.995087	479.000000
2646.408463	476.800000
2647.818409	580.800000
2649.231291	567.800000
2650.640744	588.000000
2652.049951	617.000000
2653.457322	638.000000
2654.867627	703.200000
2656.276096	746.000000
2657.682730	788.600000
2659.089119	795.400000
2660.493674	875.600000
2661.899573	908.600000
2663.303639	1006.800000
2664.707461	1059.600000
2666.111038	1104.000000
2667.512783	1145.800000
2668.915872	1223.600000
2670.315544	1276.400000
2671.716559	1306.800000
2673.114157	1406.000000
2674.514686	1397.400000
2675.911800	1406.800000
2677.310257	1464.200000
2678.706886	1459.200000
2680.103274	1435.600000
2681.499419	1410.600000
2682.893738	1411.800000
2684.289400	1399.600000
2685.681652	1334.800000
2687.075248	1297.200000
2688.467019	1227.000000
2689.860132	1153.600000
2691.251422	1084.400000
2692.640889	1053.800000
2694.030117	944.600000
2695.419104	906.600000
2696.809434	846.600000
2698.194779	829.600000
2699.583049	782.400000
2700.969497	727.000000
2702.355708	672.600000
2703.741679	612.600000
2705.124252	616.200000
2706.508166	568.200000
2707.891843	511.000000
2709.275282	533.200000
2710.655325	502.000000
2712.036710	495.400000
2713.416279	457.800000
2714.797190	461.400000
2716.176286	435.000000
2717.553567	408.800000
2718.932190	434.200000
2720.309000	394.200000
2721.685574	368.400000
2723.061912	384.600000
2724.436438	383.800000
2725.812305	398.800000
2727.184785	345.200000
2728.560182	350.400000
2729.930617	352.200000
2731.302394	345.800000
2732.673937	302.600000
2734.043671	329.600000
2735.414745	330.800000
2736.784012	313.400000
2738.153045	324.000000
2739.520271	346.800000
2740.887265	319.800000
2742.254026	309.400000
2743.620554	316.200000
2744.985277	312.000000
2746.349769	301.600000
2747.714028	299.200000
2749.078056	276.800000
2750.441851	303.800000
2751.802273	290.800000
2753.165606	287.800000
2754.523996	290.000000
2755.885296	287.000000
2757.243225	295.000000
2758.604064	274.800000
2759.963102	261.000000
2761.318772	266.800000
2762.677350	278.600000
2764.032562	280.400000
2765.387544	278.200000
2766.740729	254.200000
2768.096821	285.200000
2769.449549	351.400000
2770.802048	255.600000
2772.154319	256.800000
2773.507929	251.800000
2774.858177	262.400000
2776.206632	258.200000
2777.557991	258.000000
2778.905991	274.800000
2780.255330	261.200000
2781.602876	277.600000
2782.950195	240.400000
2784.297288	253.000000
2785.642590	246.800000
2786.987666	241.200000
2788.332516	253.800000
2789.677140	250.400000
2791.018411	266.400000
2792.361021	248.600000
2793.703406	260.800000
2795.045565	269.000000
2796.384375	221.400000
2797.726085	266.400000
2799.064446	265.800000
2800.404145	243.000000
2801.742058	244.200000
2803.078187	257.600000
2804.414093	255.800000
2805.751335	264.200000
2807.086794	251.600000
2808.422030	243.200000
2809.755484	258.800000
2811.090274	230.400000
2812.421723	250.200000
2813.756068	265.000000
2815.085515	280.600000
2816.416299	234.400000
2817.746861	255.400000
2819.075644	259.200000
2820.405764	226.200000
2821.734104	252.800000
2823.062224	233.000000
2824.388567	252.600000
2825.716245	245.800000
2827.040591	238.000000
2828.366272	243.800000
2829.690179	240.400000
2831.013865	232.800000
2832.338887	245.800000
2833.660580	252.600000
2834.982053	258.800000
2836.303308	239.400000
2837.624344	251.400000
2838.943608	237.600000
2840.264207	236.400000
2841.583034	219.200000
2842.901643	245.000000
2844.218482	236.000000
2845.535103	225.400000
2846.851506	217.400000
2848.166141	236.200000
2849.482110	233.200000
2850.794759	257.000000
2852.108744	241.200000
2853.422512	244.000000
2854.736063	238.400000
2856.047847	246.200000
2857.357866	253.000000
2858.669219	241.800000
2859.977256	225.400000
2861.286629	237.600000
2862.595786	238.800000
2863.904728	229.600000
2865.211907	228.600000
2866.517322	247.200000
2867.824072	215.400000
2869.129059	224.200000
2870.433833	229.600000
2871.736845	255.800000
2873.042739	210.600000
2874.343777	237.800000
2875.646150	241.400000
2876.946763	234.600000
2878.248710	226.400000
2879.550444	229.600000
2880.848874	242.400000
2882.148637	248.000000
2883.446643	224.400000
2884.744437	212.200000
2886.040474	231.600000
2887.337845	208.600000
2888.633460	216.600000
2889.928865	231.800000
2891.224058	236.000000
2892.515953	226.600000
2893.810725	223.600000
2895.102200	238.000000
2896.395009	242.000000
2897.687607	215.600000
2898.976910	223.000000
2900.267546	220.000000
2901.556431	207.800000
2902.846649	253.400000
2904.133575	215.000000
2905.421833	212.400000
2906.708342	227.600000
2907.994642	211.400000
2909.280734	236.800000
2910.565078	206.000000
2911.852294	199.400000
2913.134683	227.000000
2914.418404	188.600000
2915.700378	204.600000
2916.982146	218.600000
2918.262168	228.600000
2919.545060	229.600000
2920.826207	206.800000
2922.104072	230.000000
2923.384806	223.600000
2924.662259	248.800000
2925.939507	210.000000
2927.215012	194.400000
2928.493385	238.000000
2929.766943	248.800000
2931.043369	200.800000
2932.318054	210.400000
2933.590999	245.800000
2934.865274	198.800000
2936.137810	201.200000
2937.410142	224.600000
2938.679201	218.400000
2939.951125	197.400000
2941.221310	247.400000
2942.491293	189.600000
2943.761072	218.000000
2945.029114	206.200000
2946.295421	213.600000
2947.561525	224.800000
2948.828960	202.600000
2950.094659	208.000000
2951.360156	222.400000
2952.625451	203.400000
2953.887482	211.200000
2955.150842	201.800000
2956.414001	199.200000
2957.675427	198.200000
2958.938183	203.600000
2960.199208	214.200000
2961.458502	218.600000
2962.717595	210.600000
2963.976488	187.200000
2965.235181	209.400000
2966.493674	210.400000
2967.750438	195.200000
2969.007002	199.200000
2970.261839	226.600000
2971.518005	204.200000
2972.770915	213.400000
2974.025155	188.400000
2975.279196	233.000000
2976.531511	216.000000
2977.783628	206.200000
2979.034020	206.800000
2980.287267	232.200000
2981.535737	210.800000
2982.787061	228.800000
2984.035137	195.000000
2985.283015	199.200000
2986.530696	178.600000
2987.778181	203.600000
2989.023944	204.000000
2990.269510	185.600000
2991.516405	203.400000
2992.760054	206.200000
2994.005032	183.000000
2995.246767	209.800000
2996.491353	187.400000
2997.734220	211.600000
2998.973845	189.400000
3000.216322	187.600000
3001.455558	202.200000
3002.696122	186.600000
3003.934969	225.800000
3005.173622	196.800000
3006.410559	169.400000
3007.648823	190.000000
3008.885373	183.000000
3010.121729	220.200000
3011.357891	207.600000
3012.592339	191.800000
3013.826594	199.800000
3015.060656	193.200000
3016.293006	181.600000
3017.523644	192.800000
3018.757128	201.400000
3019.988901	196.800000
3021.218962	186.200000
3022.448832	187.800000
3023.676992	180.000000
3024.906479	219.200000
3026.134256	195.200000
3027.361842	200.800000
3028.590754	177.800000
3029.814924	198.200000
3031.041937	210.600000
3032.265727	170.400000
3033.490842	204.000000
3034.714251	170.000000
3035.937471	197.400000
3037.158985	180.600000
3038.383340	179.600000
3039.602960	184.200000
3040.823906	186.400000
3042.044662	177.400000
3043.263715	190.200000
3044.484094	210.400000
3045.701256	203.000000
3046.919743	191.800000
3048.136529	188.200000
3049.353126	175.800000
3050.569536	158.400000
3051.782732	179.600000
3052.998766	175.000000
3054.211588	185.800000
3055.427247	173.400000
3056.638183	194.800000
3057.850445	187.800000
3059.062519	180.000000
3060.274407	185.800000
3061.484597	158.800000
3062.694602	158.200000
3063.904420	161.600000
3065.112542	175.600000
3066.320478	151.400000
3067.526720	163.000000
3068.734286	151.600000
3069.940157	175.500000
3071.145843	199.400000
3072.351344	162.400000
3073.555153	183.000000
3074.760285	175.800000
3075.963724	157.000000
3077.165471	192.200000
3078.367035	143.200000
3079.568415	183.600000
3080.769611	157.200000
3081.969117	183.000000
3083.168439	185.200000
3084.369085	158.400000
3085.568042	166.800000
3086.763803	158.600000
3087.962394	155.600000
3089.157791	185.800000
3090.354512	158.400000
3091.548040	152.000000
3092.744396	155.800000
3093.939065	166.200000
3095.130544	169.400000
3096.326354	165.400000
3097.517471	155.800000
3098.709910	176.000000
3099.899162	156.000000
3101.091240	168.000000
3102.281634	188.400000
3103.468841	156.800000
3104.657372	130.800000
3105.847225	169.000000
3107.033893	151.600000
3108.220382	207.400000
3109.406691	151.400000
3110.594323	172.400000
3111.778772	184.000000
3112.961541	162.200000
3114.147134	213.800000
3115.331046	147.800000
3116.513280	161.600000
3117.695336	158.800000
3118.877213	164.200000
3120.058912	155.800000
3121.238934	162.800000
3122.417278	158.800000
3123.598444	165.400000
3124.776434	157.000000
3125.954247	163.600000
3127.131883	147.800000
3128.307844	161.800000
3129.483629	169.600000
3130.660734	175.400000
3131.836166	164.600000
3133.009924	185.400000
3134.182009	163.000000
3135.355415	157.000000
3136.528646	148.800000
3137.700204	167.200000
3138.873084	165.600000
3140.042796	184.000000
3141.213829	171.800000
3142.383191	161.200000
3143.550884	165.800000
3144.721392	152.200000
3145.887241	149.800000
3147.057400	162.600000
3148.222901	159.400000
3149.388229	159.800000
3150.553383	181.800000
3151.718363	161.400000
3152.884664	171.600000
3154.046311	162.200000
3155.209279	153.200000
3156.372073	157.800000
3157.534695	157.600000
3158.695652	152.800000
3159.856436	153.200000
3161.017048	149.800000
3162.175997	173.000000
3163.334773	167.600000
3164.493378	194.200000
3165.651811	144.600000
3166.810072	157.000000
3167.966671	155.800000
3169.121609	142.600000
3170.277866	153.400000
3171.432463	162.600000
3172.586888	159.000000
3173.739654	154.400000
3174.892250	174.600000
3176.044676	153.200000
3177.196931	173.800000
3178.349017	142.200000
3179.497956	157.000000
3180.649702	134.200000
3181.799791	184.000000
3182.948222	171.400000
3184.096485	153.800000
3185.244579	159.800000
3186.392503	162.000000
3187.538773	158.600000
3188.684874	167.000000
3189.829321	150.400000
3190.973599	140.600000
3192.117710	159.000000
3193.263139	147.400000
3194.405429	139.200000
3195.547551	165.400000
3196.689507	135.200000
3197.831295	152.600000
3198.972916	139.800000
3200.111401	165.000000
3201.251205	121.800000
3202.392325	143.600000
3203.530311	143.200000
3204.666648	155.600000
3205.802819	139.600000
3206.940308	158.800000
3208.076148	152.000000
3209.213304	165.400000
3210.345848	155.400000
3211.482674	154.000000
3212.614888	140.400000
3213.748420	157.400000
3214.881786	138.000000
3216.012025	145.800000
3217.145062	144.000000
3218.274973	174.400000
3219.406201	168.600000
3220.534303	178.200000
3221.665203	133.400000
3222.794458	138.000000
3223.922069	152.400000
3225.046559	159.600000
3226.175324	148.800000
3227.300967	152.800000
3228.426447	174.600000
3229.550286	166.400000
3230.676920	163.200000
3231.798955	153.800000
3232.922307	151.600000
3234.045497	195.600000
3235.168525	190.200000
3236.289913	183.400000
3237.411140	171.000000
3238.530728	172.600000
3239.650155	183.200000
3240.767944	172.800000
3241.888526	169.000000
3243.005994	183.000000
3244.123301	172.000000
3245.240447	219.200000
3246.355958	185.000000
3247.472784	182.800000
3248.586499	180.200000
3249.703005	181.600000
3250.817875	176.000000
3251.929637	180.200000
3253.041240	172.200000
3254.154158	144.600000
3255.266916	146.400000
3256.376568	152.600000
3257.487535	168.000000
3258.598343	156.200000
3259.707519	165.600000
3260.815064	182.400000
3261.923924	129.800000
3263.032625	126.600000
3264.138224	147.800000
3265.245138	177.200000
3266.350422	234.400000
3267.457020	175.600000
3268.560518	137.200000
3269.665330	148.000000
3270.769985	139.600000
3271.871542	165.000000
3272.972942	149.400000
3274.075656	136.000000
3275.178213	151.600000
3276.277675	159.800000
3277.379919	157.000000
3278.479069	137.600000
3279.576593	161.000000
3280.673962	157.800000
3281.774114	130.600000
3282.871172	148.800000
3283.968076	134.200000
3285.064824	142.600000
3286.157013	128.400000
3287.253452	113.600000
3288.348268	147.400000
3289.442929	146.000000
3290.535969	156.600000
3291.628855	146.000000
3292.720120	117.200000
3293.812698	135.400000
3294.903656	150.400000
3295.992994	134.400000
3297.082179	145.800000
3298.172676	119.000000
3299.260089	137.800000
3300.347350	121.800000
3301.435923	129.000000
3302.524343	111.400000
3303.608216	122.000000
3304.696331	128.600000
3305.781365	147.400000
3306.864783	116.800000
3307.949513	144.000000
3309.032627	113.000000
3310.117053	109.200000
3311.198401	119.600000
3312.281061	136.400000
3313.362107	138.200000
3314.443002	127.000000
3315.522284	111.200000
3316.601415	131.200000
3317.681857	130.600000
3318.759226	141.600000
3319.837906	119.800000
3320.914974	136.000000
3321.991892	117.600000
3323.067200	119.400000
3324.142358	104.200000
3325.218827	119.200000
3326.292225	131.000000
3327.365475	141.000000
3328.440036	119.000000
3329.512987	126.000000
3330.584331	137.000000
3331.656985	127.000000
3332.726572	129.000000
3333.797470	112.800000
3334.866761	135.400000
3335.937363	145.000000
3337.006358	119.600000
3338.073747	117.000000
3339.139531	115.400000
3340.209541	141.000000
3341.276488	127.800000
3342.340373	144.000000
3343.407026	129.200000
3344.472075	118.200000
3345.535520	162.200000
3346.598818	106.800000
3347.661971	106.400000
3348.724977	116.000000
3349.787836	109.400000
3350.849094	96.000000
3351.907295	109.600000
3352.969717	112.200000
3354.029082	119.400000
3355.088303	132.000000
3356.148832	117.600000
3357.204852	133.000000
3358.263637	122.600000
3359.317914	118.800000
3360.374955	122.600000
3361.430397	115.600000
3362.487148	114.200000
3363.542302	125.400000
3364.595858	91.000000
3365.647817	107.000000
3366.702538	103.600000
3367.754211	107.200000
3368.805739	127.600000
3369.858577	108.400000
3370.908367	141.600000
3371.959466	115.000000
3373.007518	124.800000
3374.058331	83.200000
3375.106098	105.400000
3376.153723	117.200000
3377.201206	114.800000
3378.247095	165.600000
3379.294294	120.800000
3380.338449	106.000000
3381.385363	116.000000
3382.430685	123.600000
3383.472967	110.600000
3384.515107	85.800000
3385.558556	114.800000
3386.601863	121.200000
3387.643580	97.600000
3388.685156	127.200000
3389.726592	120.400000
3390.766439	111.400000
3391.804697	99.200000
3392.844263	96.000000
3393.883689	125.400000
3394.921527	99.400000
3395.957778	95.000000
3396.993889	129.600000
3398.031308	87.800000
3399.065694	106.800000
3400.101388	105.000000
3401.136942	105.400000
3402.169464	104.600000
3403.204740	105.600000
3404.236985	101.000000
3405.269092	77.200000
3406.299615	103.200000
3407.331446	97.400000
3408.363138	131.400000
3409.391802	133.000000
3410.420328	98.800000
3411.450162	100.000000
3412.479857	116.600000
3413.506527	127.800000
3414.534504	126.600000
3415.559456	127.200000
3416.587158	91.800000
3417.611837	88.600000
3418.637822	126.800000
3419.662227	94.600000
3420.686496	104.600000
3421.709186	105.000000
3422.731740	100.000000
3423.755600	140.000000
3424.776440	109.600000
3425.797145	91.000000
3426.819155	93.000000
3427.838147	109.000000
3428.857004	99.000000
3429.877166	123.600000
3430.894312	75.600000
