-118.362301	7.647619
-115.692700	21.157143
-113.026036	17.171429
-110.360123	5.190476
-107.697142	-0.476190
-105.032732	3.447619
-102.371252	7.466667
-99.708342	13.219048
-97.050540	12.704762
-94.391307	6.676190
-91.732823	4.476190
-89.077264	10.333333
-86.420276	7.104762
-83.768385	3.619048
-81.115065	-2.333333
-78.464665	-2.866667
-75.812835	2.695238
-73.166096	12.238095
-70.517927	10.028571
-67.870502	0.990476
-65.225990	-6.628571
-62.580050	-4.942857
-59.939191	-2.342857
-57.296902	6.847619
-54.657523	7.552381
-52.016715	8.876190
-49.376646	3.990476
-46.741651	2.295238
-44.105226	-1.333333
-41.471705	0.571429
-38.836755	1.514286
-36.206870	9.609524
-33.573392	11.457143
-30.944977	12.847619
-28.317296	17.504762
-25.688187	28.514286
-23.064134	27.800000
-20.436492	38.295238
-17.813903	44.761905
-15.192045	14.761905
-12.570918	-38.161905
-9.950522	51.419048
-7.333013	2012.647619
-4.714076	7426.019048
-2.098025	12556.047619
0.517298	13589.438095
3.131894	10553.780952
5.743608	4830.438095
8.356749	83.876190
10.964857	-732.133333
13.576547	-38.314286
16.183206	30.580952
18.791293	23.857143
21.398656	15.076190
24.000994	10.552381
26.606910	11.619048
29.207805	14.933333
31.810127	11.685714
34.407431	8.123810
37.008311	11.723810
39.604177	12.961905
42.201470	24.942857
44.798044	25.228571
47.389609	23.038095
49.982602	16.714286
52.572734	15.171429
55.164294	4.695238
57.752994	9.971429
60.343122	6.742857
62.928250	6.961905
65.514806	2.219048
68.100647	6.752381
70.683635	-0.628571
73.268050	4.876190
75.845335	10.571429
78.426187	15.961905
81.004190	12.571429
83.581483	17.400000
86.160202	9.142857
88.733940	7.476190
91.309104	3.047619
93.881425	0.428571
96.453039	-1.304762
99.021812	8.419048
101.592012	14.885714
104.159373	25.352381
106.728161	20.123810
109.294111	15.333333
111.857227	13.876190
114.423900	16.933333
116.981350	23.447619
119.544486	37.904762
122.102663	54.485714
124.664393	79.971429
127.221168	121.295238
129.779368	184.885714
132.332616	280.590476
134.885165	415.961905
137.441266	573.438095
139.992418	745.323810
142.542872	912.466667
145.092630	1052.066667
147.639568	1166.780952
150.185810	1242.904762
152.733479	1278.466667
155.280451	1298.342857
157.822487	1293.647619
160.363830	1273.476190
162.904481	1255.866667
165.446556	1241.247619
167.985821	1228.495238
170.522276	1244.409524
173.058041	1248.695238
175.595231	1234.980952
178.131729	1213.180952
180.665422	1185.857143
183.196312	1175.380952
185.726513	1188.514286
188.258139	1202.380952
190.786964	1207.333333
193.312991	1209.914286
195.838331	1196.676190
198.365096	1181.980952
200.889065	1162.342857
203.412348	1153.523810
205.934947	1155.904762
208.454753	1168.752381
210.973876	1184.876190
213.492316	1196.523810
216.012180	1206.723810
218.525043	1212.161905
221.041437	1222.228571
223.557149	1243.714286
226.067972	1270.390476
228.580219	1297.000000
231.089683	1319.342857
233.598469	1317.466667
236.106577	1307.409524
238.616109	1306.771429
241.120760	1307.733333
243.624735	1306.971429
246.130134	1307.476190
248.630658	1292.304762
251.134705	1283.152381
253.631782	1288.923810
256.132381	1289.761905
258.630209	1288.571429
261.127364	1283.866667
263.623846	1273.161905
266.115466	1282.761905
268.610604	1288.457143
271.102977	1296.638095
273.594679	1290.304762
276.083618	1280.276190
278.573980	1275.685714
281.061581	1270.685714
283.546422	1275.657143
286.034777	1319.152381
288.516193	1346.095238
291.001124	1376.485714
293.481208	1399.019048
295.964805	1411.009524
298.443560	1447.057143
300.923737	1494.571429
303.401163	1515.800000
305.877925	1505.247619
308.354023	1467.971429
310.827373	1424.352381
313.300062	1389.295238
315.772088	1387.609524
318.243454	1397.161905
320.712076	1393.866667
323.180038	1382.828571
325.649423	1349.819048
328.113985	1299.590476
330.582050	1284.809524
333.045296	1264.047619
335.507885	1251.923810
337.969816	1230.800000
340.431091	1196.914286
342.889632	1164.352381
345.349595	1157.495238
347.806826	1137.152381
350.263402	1135.066667
352.719323	1125.266667
355.172516	1105.361905
357.627131	1104.171429
360.076944	1097.428571
362.530253	1086.761905
364.978763	1065.657143
367.426623	1059.028571
369.875904	1046.247619
372.320392	1050.114286
374.766302	1037.638095
377.211563	1032.619048
379.654105	1013.400000
382.095999	1011.047619
384.537245	995.123810
386.975776	993.285714
389.415729	982.580952
391.852968	972.285714
394.287495	976.200000
396.725510	970.000000
399.158748	962.923810
401.593408	965.352381
404.023294	960.657143
406.456667	961.000000
408.885268	969.790476
411.313229	958.295238
413.742610	947.590476
416.167227	924.952381
418.593264	916.609524
421.018662	912.161905
423.443419	913.638095
425.863417	903.419048
428.284837	906.038095
430.703560	885.428571
433.123704	882.466667
435.541153	860.600000
437.960022	846.142857
440.376198	823.228571
442.787627	811.876190
445.202532	786.714286
447.614747	766.019048
450.026328	739.352381
452.437275	707.552381
454.845536	687.409524
457.253165	677.723810
459.660161	680.695238
462.066525	680.800000
464.470208	690.371429
466.873260	689.942857
469.275682	684.657143
471.677474	692.390476
474.076588	692.504762
476.477122	700.895238
478.877027	721.580952
481.272209	743.228571
483.670858	754.695238
486.064787	796.514286
488.458090	833.828571
490.850767	886.714286
493.242819	945.342857
495.636290	1031.238095
498.025048	1157.342857
500.411140	1381.076190
502.798652	1739.009524
505.185540	2305.561905
507.569765	3236.923810
509.955409	4652.047619
512.338390	6582.104762
514.718711	8506.533333
517.100451	9747.400000
519.479532	9859.476190
521.860032	8956.704762
524.237874	7504.914286
526.613061	6176.380952
528.987630	5143.266667
531.363618	4383.028571
533.736952	3792.590476
536.111705	3323.980952
538.481771	2948.628571
540.851222	2658.514286
543.222092	2432.819048
545.588280	2262.838095
547.955887	2123.390476
550.320848	1975.685714
552.685196	1859.600000
555.048932	1760.257143
557.414085	1694.580952
559.774566	1639.685714
562.136464	1598.866667
564.495723	1549.333333
566.852343	1509.895238
569.212409	1466.961905
571.565783	1422.590476
573.922602	1369.152381
576.276786	1337.800000
578.630361	1310.076190
580.983328	1257.952381
583.333664	1217.571429
585.685416	1157.866667
588.030492	1132.895238
590.381032	1121.961905
592.724899	1110.009524
595.074226	1079.885714
597.418906	1055.495238
599.760961	1030.380952
602.104433	1029.771429
604.445281	1029.466667
606.785528	1049.257143
609.123154	1086.552381
611.464215	1137.885714
613.800639	1185.390476
616.138479	1206.800000
618.473701	1190.228571
620.806308	1146.638095
623.140332	1090.742857
625.471741	1031.685714
627.802552	987.085714
630.132765	971.571429
632.462380	966.457143
634.787373	974.961905
637.117807	979.828571
639.443619	962.533333
641.766825	941.685714
644.091447	931.828571
646.413463	936.209524
648.734885	930.285714
651.053704	917.552381
653.373939	901.552381
655.693581	899.571429
658.010622	904.961905
660.327072	914.761905
662.640923	905.704762
664.956189	893.980952
667.268859	883.914286
669.582944	888.933333
671.892430	895.066667
674.203330	902.533333
676.511638	904.285714
678.819358	902.923810
681.128493	886.742857
683.433035	869.838095
685.736991	856.552381
688.040360	830.447619
690.345144	805.209524
692.645342	791.180952
694.946955	777.514286
697.247982	766.133333
699.544428	767.047619
701.842288	747.914286
704.139565	740.895238
706.436259	736.619048
708.728377	729.495238
711.023906	716.180952
713.314862	711.342857
715.607232	702.600000
717.897026	700.838095
720.186241	708.580952
722.474875	714.200000
724.760938	717.190476
727.048414	708.942857
729.333320	698.714286
731.617647	687.571429
733.899407	684.923810
736.182580	681.733333
738.465176	681.628571
740.743216	684.923810
743.022670	677.333333
745.301549	686.085714
747.579852	696.066667
749.853606	701.685714
752.128774	705.085714
754.403368	692.161905
756.675403	667.495238
758.948851	664.371429
761.219741	678.885714
763.488074	692.600000
765.757822	697.619048
768.025014	688.761905
770.291636	685.980952
772.557689	674.219048
774.821190	685.133333
777.086103	687.761905
779.350448	679.085714
781.610262	677.076190
783.871490	677.428571
786.132150	663.276190
788.390263	676.514286
790.645832	690.257143
792.904792	696.819048
795.157253	704.542857
797.415081	711.485714
799.668390	701.390476
801.919158	700.561905
804.171339	702.333333
806.420982	699.504762
808.672036	692.647619
810.918579	693.657143
813.166535	688.028571
815.411955	689.380952
817.658787	683.409524
819.905058	679.323810
822.146825	669.066667
824.391974	652.504762
826.630651	645.047619
828.872711	645.552381
831.110272	644.619048
833.349244	653.933333
835.585690	656.314286
837.823548	649.342857
840.058880	631.790476
842.291688	625.085714
844.525908	630.361905
846.757606	644.619048
848.988749	653.438095
851.219337	663.638095
853.449371	656.038095
855.678850	652.457143
857.903849	654.342857
860.132221	655.590476
862.356115	646.095238
864.581419	639.000000
866.802248	623.819048
869.026449	620.171429
871.246177	614.990476
873.467316	614.219048
875.687904	620.342857
877.905983	623.647619
880.125471	625.819048
882.340493	633.571429
884.554967	627.571429
886.768894	619.714286
888.982273	614.952381
891.195106	606.542857
893.407391	599.104762
895.617175	607.666667
897.826413	613.238095
900.035105	616.876190
902.241299	630.266667
904.448902	650.485714
906.654008	652.180952
908.858570	667.780952
911.060636	667.342857
913.264112	655.914286
915.465095	669.838095
917.665535	693.904762
919.867384	711.485714
922.062841	744.095238
924.261658	794.352381
926.456037	848.276190
928.653773	941.914286
930.847073	1050.314286
933.041781	1167.495238
935.234004	1282.314286
937.425689	1386.419048
939.616836	1452.742857
941.805500	1476.561905
943.993627	1477.495238
946.179274	1458.971429
948.368273	1443.847619
950.552849	1439.257143
952.736890	1447.171429
954.924281	1452.247619
957.103369	1451.647619
959.285806	1448.257143
961.467710	1435.447619
963.647140	1433.685714
965.824097	1457.628571
968.002462	1485.295238
970.182233	1491.571429
972.355656	1500.228571
974.532425	1487.380952
976.704788	1471.923810
978.878557	1459.504762
981.047924	1428.295238
983.220634	1380.247619
985.390878	1307.352381
987.560594	1223.342857
989.729781	1130.580952
991.894571	1032.904762
994.062702	958.390476
996.226439	904.238095
998.391582	857.600000
1000.554267	828.219048
1002.716426	806.123810
1004.876127	774.104762
1007.035305	751.838095
1009.195889	729.904762
1011.354018	712.314286
1013.511623	702.019048
1015.668705	705.800000
1017.825264	697.638095
1019.977443	690.228571
1022.131029	675.533333
1024.284092	649.352381
1026.434708	628.876190
1028.586729	616.638095
1030.734377	602.666667
1032.885357	591.647619
1035.031966	585.276190
1037.178057	581.257143
1039.323629	591.076190
1041.470605	586.561905
1043.611294	581.238095
1045.755311	572.514286
1047.896888	573.714286
1050.037949	571.304762
1052.180414	582.390476
1054.316600	574.142857
1056.456112	573.609524
1058.591268	578.809524
1060.729749	579.533333
1062.863877	573.580952
1064.997491	570.790476
1067.132509	564.485714
1069.263178	565.066667
1071.395252	574.142857
1073.524897	573.695238
1075.654030	578.142857
1077.782652	569.257143
1079.910762	558.247619
1082.036446	546.961905
1084.161620	533.038095
1086.288197	516.400000
1088.410438	518.076190
1090.534083	518.323810
1092.653393	520.133333
1094.777932	530.314286
1096.896227	531.238095
1099.015925	529.342857
1101.133205	528.514286
1103.249979	518.514286
1105.366246	503.933333
1107.480098	505.104762
1109.595353	503.314286
1111.706286	504.342857
1113.820530	504.600000
1115.930455	501.600000
1118.041782	499.038095
1120.152606	500.542857
1122.259113	494.247619
1124.368929	488.352381
1126.474431	475.742857
1128.581337	465.200000
1130.682026	466.095238
1132.787928	463.161905
1134.889521	465.257143
1136.992517	475.057143
1139.095012	479.361905
1141.191301	483.304762
1143.292796	480.657143
1145.389989	472.276190
1147.486683	460.457143
1149.582880	458.990476
1151.678578	452.104762
1153.773779	442.190476
1155.866583	439.780952
1157.960789	449.323810
1160.048804	466.571429
1162.142017	479.238095
1164.229042	487.352381
1166.319367	479.161905
1168.405403	474.066667
1170.494737	470.228571
1172.577890	467.933333
1174.662446	457.371429
1176.748402	463.485714
1178.830077	460.314286
1180.913154	461.228571
1182.993845	472.561905
1185.074044	482.495238
1187.153753	487.609524
1189.232969	485.133333
1191.309804	480.838095
1193.384258	478.495238
1195.462004	485.590476
1197.535479	486.314286
1199.610356	480.685714
1201.680965	466.304762
1203.752975	462.761905
1205.822609	460.809524
1207.893644	463.095238
1209.964191	460.419048
1212.030477	458.723810
1214.098164	452.704762
1216.163479	450.742857
1218.230194	453.771429
1220.292653	450.790476
1222.358397	461.000000
1224.419888	463.447619
1226.482778	456.457143
1228.543301	445.723810
1230.603341	444.628571
1232.662897	441.866667
1234.720089	451.419048
1236.776798	458.285714
1238.831145	463.771429
1240.888772	462.152381
1242.944037	466.095238
1244.995061	471.847619
1247.047485	468.742857
1249.099430	471.495238
1251.149015	476.438095
1253.198123	466.447619
1255.246751	461.323810
1257.294901	463.076190
1259.342573	462.895238
1261.386014	459.085714
1263.432730	472.847619
1265.477094	468.276190
1267.520980	480.361905
1269.562516	485.314286
1271.601702	480.876190
1273.644160	476.419048
1275.682397	480.942857
1277.722031	479.980952
1279.761191	486.180952
1281.796133	475.123810
1283.832473	457.876190
1285.866468	451.190476
1287.901862	451.533333
1289.933042	462.438095
1291.965621	470.257143
1293.997727	475.076190
1296.027493	472.847619
1298.058657	461.933333
1300.085613	451.971429
1302.113967	457.933333
1304.138117	461.028571
1306.165531	469.285714
1308.188744	466.238095
1310.213353	466.752381
1312.235629	464.276190
1314.259302	468.504762
1316.280642	477.352381
1318.301514	480.247619
1320.321920	477.009524
1322.338131	476.247619
1324.355741	474.038095
1326.371022	461.438095
1328.389562	478.495238
1330.403912	495.847619
1332.415937	518.990476
1334.431220	541.704762
1336.442317	559.438095
1338.454810	565.733333
1340.463121	586.819048
1342.474688	594.342857
1344.480216	600.028571
1346.488998	599.542857
1348.493604	587.714286
1350.501463	568.609524
1352.508859	557.095238
1354.510225	544.695238
1356.512988	539.228571
1358.515291	534.704762
1360.517133	533.180952
1362.518517	526.238095
1364.517586	517.923810
1366.516197	504.209524
1368.514350	484.180952
1370.512045	470.790476
1372.505576	463.057143
1374.500504	467.752381
1376.494975	459.352381
1378.488989	458.219048
1380.480696	457.219048
1382.471947	460.342857
1384.460893	456.933333
1386.451234	459.133333
1388.441120	435.219048
1390.428703	424.704762
1392.415832	421.457143
1394.400659	425.800000
1396.386881	433.028571
1398.370802	439.685714
1400.354271	427.200000
1402.337288	430.638095
1404.318007	421.314286
1406.300120	423.676190
1408.279936	433.495238
1410.259302	437.961905
1412.234529	433.914286
1414.212994	440.028571
1416.189166	428.057143
1418.164888	431.190476
1420.140161	424.266667
1422.113143	424.209524
1424.085678	421.914286
1426.057764	415.942857
1428.029402	415.371429
1429.996913	417.685714
1431.969497	407.476190
1433.934275	405.942857
1435.904126	405.247619
1437.869852	402.942857
1439.836972	414.809524
1441.801808	423.409524
1443.762524	428.533333
1445.728308	432.295238
1447.688137	429.009524
1449.649359	422.628571
1451.611974	424.638095
1453.570474	429.619048
1455.528532	439.066667
1457.486147	444.076190
1459.443321	440.047619
1461.398219	427.047619
1463.354509	429.771429
1465.308525	430.895238
1467.262101	431.209524
1469.213404	428.761905
1471.166099	419.361905
1473.116523	408.723810
1475.066508	419.295238
1477.016053	418.647619
1478.963330	414.447619
1480.908340	412.685714
1482.854742	400.704762
1484.800706	406.257143
1486.746232	418.152381
1488.689494	421.371429
1490.632319	425.723810
1492.572881	417.790476
1494.514834	407.571429
1496.454526	407.904762
1498.393782	401.019048
1500.332604	403.266667
1502.269166	404.419048
1504.207118	404.247619
1506.142813	398.866667
1508.078074	397.152381
1510.011078	394.857143
1511.943650	400.990476
1513.875790	401.714286
1515.807498	405.152381
1517.736952	395.838095
1519.667797	399.609524
1521.598211	406.590476
1523.524552	412.590476
1525.452283	415.742857
1527.377764	416.476190
1529.302816	417.533333
1531.227439	429.409524
1533.151633	437.285714
1535.073580	445.276190
1536.996916	448.342857
1538.918007	448.066667
1540.836853	452.114286
1542.757089	466.000000
1544.675081	470.961905
1546.592647	483.933333
1548.507971	493.228571
1550.424685	500.409524
1552.337344	513.209524
1554.253207	530.504762
1556.166831	544.628571
1558.078216	565.095238
1559.990990	588.838095
1561.899715	622.638095
1563.809830	666.952381
1565.719521	714.752381
1567.628788	787.952381
1569.535822	896.457143
1571.440623	1031.676190
1573.346813	1216.771429
1575.250771	1415.961905
1577.154309	1613.514286
1579.057425	1775.742857
1580.958313	1866.876190
1582.860588	1841.095238
1584.760636	1718.838095
1586.662072	1518.523810
1588.559473	1299.971429
1590.456457	1098.457143
1592.353022	931.961905
1594.250974	814.580952
1596.143092	720.095238
1598.038403	660.000000
1599.933297	615.200000
1601.825969	585.009524
1603.718225	558.504762
1605.608261	545.657143
1607.497881	526.257143
1609.387086	508.066667
1611.275875	503.085714
1613.162448	497.657143
1615.050407	505.257143
1616.934351	513.857143
1618.819681	513.723810
1620.704597	494.714286
1622.587301	481.561905
1624.471390	455.895238
1626.351469	436.314286
1628.232934	421.047619
1630.112189	407.942857
1631.992830	392.485714
1633.867667	390.447619
1635.747486	387.266667
1637.623299	388.876190
1639.498703	391.514286
1641.375492	389.723810
1643.246484	385.571429
1645.120658	382.314286
1646.990834	371.552381
1648.864190	365.476190
1650.735343	368.885714
1652.604294	361.409524
1654.474631	362.685714
1656.340974	362.276190
1658.208703	357.352381
1660.074234	358.219048
1661.941149	358.514286
1663.804076	361.190476
1665.668388	364.104762
1667.530505	366.114286
1669.392216	365.228571
1671.255312	366.085714
1673.116214	354.123810
1674.974922	345.152381
1676.833227	327.638095
1678.692917	321.076190
1680.546840	317.742857
1682.403935	320.876190
1684.260628	318.971429
1686.113345	319.809524
1687.969233	314.314286
1689.821147	319.447619
1691.672659	315.742857
1693.523772	309.038095
1695.374483	310.666667
1697.224794	318.476190
1699.072921	308.028571
1700.922431	309.152381
1702.766193	304.628571
1704.614905	299.609524
1706.457870	299.209524
1708.304001	301.809524
1710.146171	297.019048
1711.991505	307.047619
1713.831099	315.485714
1715.672077	322.228571
1717.514438	325.295238
1719.352843	324.076190
1721.192631	318.657143
1723.030244	306.342857
1724.867461	291.428571
1726.702505	283.819048
1728.538932	293.561905
1730.373187	299.695238
1732.207048	311.828571
1734.040514	312.438095
1735.870034	312.314286
1737.702713	306.085714
1739.531448	304.047619
1741.363341	293.304762
1743.191291	290.676190
1745.018849	292.114286
1746.846016	291.342857
1748.672790	291.028571
1750.499174	292.904762
1752.321621	294.790476
1754.147222	302.295238
1755.968889	304.314286
1757.791938	295.114286
1759.612826	292.457143
1761.433324	289.085714
1763.255204	290.076190
1765.071384	289.247619
1766.890716	291.409524
1768.706121	286.409524
1770.524676	296.076190
1772.339307	301.219048
1774.153550	301.619048
1775.967407	291.885714
1777.780877	286.638095
1779.592193	283.657143
1781.404891	293.333333
1783.217202	308.657143
1785.025596	311.476190
1786.835371	304.200000
1788.641230	292.771429
1790.450236	279.961905
1792.255328	277.485714
1794.061800	280.666667
1795.867889	273.447619
1797.670068	274.295238
1799.475390	276.885714
1801.276804	276.914286
1803.079598	286.257143
1804.878487	280.000000
1806.678755	273.885714
1808.478643	275.695238
1810.276388	280.200000
1812.073753	286.466667
1813.870737	286.752381
1815.667341	275.495238
1817.461806	278.085714
1819.257651	286.161905
1821.047840	288.857143
1822.842926	296.409524
1824.632359	287.323810
1826.424930	286.914286
1828.215365	285.390476
1830.003665	289.942857
1831.795101	285.266667
1833.580891	292.780952
1835.368061	290.190476
1837.153099	301.466667
1838.941271	305.438095
1840.725557	307.019048
1842.507714	304.247619
1844.291249	298.742857
1846.072657	295.276190
1847.855442	286.133333
1849.634348	286.790476
1851.414632	290.514286
1853.192791	299.019048
1854.972327	301.552381
1856.749739	303.942857
1858.525027	299.000000
1860.301694	299.952381
1862.076238	302.676190
1863.852159	307.276190
1865.622461	310.123810
1867.395890	311.133333
1869.167199	313.371429
1870.938137	301.761905
1872.710452	294.847619
1874.477155	286.552381
1876.246982	283.028571
1878.012946	280.695238
1879.782034	287.923810
1881.547260	287.390476
1883.312118	296.628571
1885.078352	303.095238
1886.840728	303.247619
1888.602737	295.780952
1890.364379	285.342857
1892.125653	278.638095
1893.886561	273.342857
1895.647101	279.523810
1897.405532	287.323810
1899.163598	286.666667
1900.919556	270.685714
1902.676890	269.057143
1904.433858	266.942857
1906.188721	273.333333
1907.941478	276.314286
1909.693872	271.542857
1911.447641	266.619048
1913.199307	264.780952
1914.948871	260.133333
1916.699811	252.990476
1918.450387	246.561905
1920.197125	243.085714
1921.945238	251.714286
1923.691252	257.971429
1925.438642	256.552381
1927.183933	259.076190
1928.927127	262.409524
1930.671697	263.066667
1932.414170	272.447619
1934.156283	275.057143
1935.898036	264.942857
1937.639430	265.857143
1939.378730	258.600000
1941.117671	258.419048
1942.856253	266.361905
1944.592743	271.371429
1946.328876	273.380952
1948.066383	276.885714
1949.800069	266.114286
1951.535128	252.333333
1953.268100	247.000000
1955.000715	255.342857
1956.732973	259.161905
1958.464875	265.809524
1960.194691	264.885714
1961.922423	258.133333
1963.651528	261.228571
1965.380279	272.942857
1967.106946	269.666667
1968.833259	268.323810
1970.560945	262.980952
1972.283095	256.933333
1974.008346	249.752381
1975.729791	255.980952
1977.454335	256.523810
1979.176800	266.752381
1980.895461	273.219048
1982.617221	269.438095
1984.335179	260.952381
1986.054511	256.657143
1987.770042	242.276190
1989.490395	249.123810
1991.206948	255.380952
1992.919706	264.180952
1994.635559	267.142857
1996.349339	263.514286
1998.062770	250.561905
1999.774130	253.714286
2001.486863	265.409524
2003.195804	281.352381
2004.907839	284.019048
2006.614364	281.190476
2008.323982	270.961905
2010.031532	258.790476
2011.738735	250.847619
2013.443872	262.523810
2015.148662	268.380952
2016.854824	282.409524
2018.557204	287.609524
2020.260956	284.247619
2021.962645	270.857143
2023.663988	266.733333
2025.364986	253.361905
2027.063924	270.628571
2028.764233	267.323810
2030.460766	273.961905
2032.158671	271.780952
2033.854518	262.838095
2035.553450	253.076190
2037.246895	263.257143
2038.941713	258.609524
2040.636187	257.342857
2042.326893	261.933333
2044.020683	263.590476
2045.710706	255.161905
2047.402100	254.923810
2049.091441	252.657143
2050.782152	245.752381
2052.469101	247.390476
2054.155709	246.609524
2055.843688	242.676190
2057.527907	252.819048
2059.213496	256.971429
2060.898746	260.800000
2062.581948	254.533333
2064.266520	250.152381
2065.945628	245.685714
2067.629522	239.457143
2069.307956	239.180952
2070.989467	245.742857
2072.667226	249.200000
2074.344649	259.476190
2076.023441	258.523810
2077.700190	242.095238
2079.374898	237.619048
2081.050975	238.009524
2082.725012	234.590476
2084.398713	247.276190
2086.072079	247.800000
2087.743407	239.466667
2089.414400	235.314286
2091.085059	240.123810
2092.755384	241.104762
2094.425374	251.333333
2096.093329	251.895238
2097.760951	250.276190
2099.426539	242.009524
2101.093495	242.476190
2102.758418	242.895238
2104.423008	240.809524
2106.085567	238.980952
2107.749495	243.200000
2109.411391	240.780952
2111.072956	242.466667
2112.734191	240.561905
2114.393396	240.761905
2116.052272	245.447619
2117.710817	255.561905
2119.369033	251.304762
2121.023525	249.923810
2122.681083	233.000000
2124.338310	230.304762
2125.991817	231.704762
2127.646691	240.761905
2129.297846	237.666667
2130.952064	244.952381
2132.602564	240.276190
2134.254432	249.266667
2135.900891	242.342857
2137.552104	238.790476
2139.199604	231.161905
2140.848472	231.142857
2142.495320	229.866667
2144.141842	232.209524
2145.788039	226.495238
2147.430528	225.676190
2149.076075	232.095238
2150.717915	226.114286
2152.362812	221.485714
2154.004004	223.076190
2155.644872	229.219048
2157.285417	237.219048
2158.923949	247.066667
2160.563847	245.380952
2162.200045	239.904762
2163.837609	246.028571
2165.474851	244.304762
2167.110083	238.104762
2168.744993	232.609524
2170.379582	234.876190
2172.013850	227.438095
2173.644424	241.066667
2175.278049	243.619048
2176.907983	243.847619
2178.539282	244.095238
2180.168577	246.419048
2181.797551	234.504762
2183.426207	233.790476
2185.054543	234.085714
2186.680876	232.514286
2188.306891	239.952381
2189.930905	239.685714
2191.556284	234.561905
2193.179662	229.961905
2194.804405	227.257143
2196.425466	221.400000
2198.046212	228.885714
2199.668321	223.761905
2201.288433	228.476190
2202.906549	234.714286
2204.524349	229.619048
2206.141833	230.857143
2207.759002	231.761905
2209.375856	233.200000
2210.992395	233.933333
2212.606940	241.171429
2214.219493	235.209524
2215.833411	232.590476
2217.445336	233.409524
2219.058626	242.933333
2220.669924	237.885714
2222.279233	243.152381
2223.889906	247.523810
2225.498590	238.514286
2227.106962	237.542857
2228.713346	244.942857
2230.321094	237.580952
2231.926855	235.523810
2233.532305	233.733333
2235.135771	225.552381
2236.740599	222.304762
2238.343443	223.371429
2239.944304	223.238095
2241.546528	233.638095
2243.146769	229.933333
2244.748373	232.171429
2246.346325	228.495238
2247.945639	226.209524
2249.542973	227.485714
2251.139999	234.371429
2252.738386	231.657143
2254.333125	242.028571
2255.925888	244.752381
2257.520012	247.780952
2259.115498	241.666667
2260.707340	231.447619
2262.298875	227.600000
2263.891771	234.523810
2265.479358	234.676190
2267.071642	232.895238
2268.658618	234.457143
2270.248623	231.628571
2271.833323	230.676190
2273.422717	228.933333
2275.006808	228.323810
2276.592261	228.457143
2278.175745	240.723810
2279.762254	239.428571
2281.345130	237.457143
2282.927702	239.209524
2284.509972	239.514286
2286.088611	238.904762
2287.670274	242.152381
2289.248309	233.842857
2290.829368	222.019048
2292.406799	221.785714
2293.982267	214.685714
2295.560757	210.452381
2297.135622	216.447619
2298.710187	222.057143
2300.284452	222.266667
2301.858416	235.961905
2303.432080	232.190476
2305.005443	221.923810
2306.575188	220.742857
2308.144634	214.514286
2309.717099	217.904762
2311.284288	235.038095
2312.854496	237.723810
2314.421089	237.885714
2315.989042	230.952381
2317.555040	221.152381
2319.120740	225.961905
2320.686142	229.047619
2322.249591	230.561905
2323.814398	228.590476
2325.375598	233.514286
2326.939812	250.247619
2328.498765	265.323810
2330.060731	253.733333
2331.620747	243.047619
2333.180467	219.457143
2334.738238	216.266667
2336.295715	219.904762
2337.852896	231.380952
2339.408131	226.819048
2340.963071	228.161905
2342.517718	233.676190
2344.072071	242.238095
2345.626130	234.923810
2347.179896	238.876190
2348.731717	237.200000
2350.281595	233.009524
2351.834481	236.019048
2353.382125	238.257143
2354.932776	232.933333
2356.479837	234.104762
2358.028255	238.133333
2359.576381	233.600000
2361.120920	224.085714
2362.666816	224.095238
2364.210773	223.495238
2365.756088	223.609524
2367.297818	229.523810
2368.840906	225.152381
2370.382057	222.666667
2371.922919	222.580952
2373.463492	222.857143
2375.003776	222.742857
2376.543771	223.171429
2378.080187	213.942857
2379.619605	220.647619
2381.155446	223.857143
2382.692643	228.980952
2384.226266	225.561905
2385.762888	222.800000
2387.297579	216.266667
2388.830341	221.942857
2390.362817	224.780952
2391.893364	226.390476
2393.426909	224.714286
2394.955243	231.580952
2396.484933	225.819048
2398.014338	224.523810
2399.543458	222.390476
2401.072292	214.209524
2402.595922	218.485714
2404.124187	224.657143
2405.647249	225.504762
2407.174946	230.847619
2408.695802	228.790476
2410.221292	224.609524
2411.743221	228.523810
2413.266506	236.666667
2414.787870	250.219048
2416.307314	257.038095
2417.828113	254.104762
2419.346993	256.352381
2420.865591	248.304762
2422.382272	255.009524
2423.900308	255.247619
2425.418062	260.790476
2426.932264	270.495238
2428.446186	284.952381
2429.959829	283.609524
2431.474825	282.304762
2432.986273	277.142857
2434.499076	276.942857
2436.009966	289.685714
2437.520576	310.380952
2439.029275	319.723810
2440.540961	326.761905
2442.049103	342.638095
2443.556966	340.780952
2445.064552	348.085714
2446.568598	356.161905
2448.075628	360.952381
2449.580750	378.247619
2451.085595	384.514286
2452.588533	376.819048
2454.091194	370.400000
2455.593579	357.704762
2457.094059	350.295238
2458.595892	353.914286
2460.095821	334.752381
2461.595474	334.219048
2463.094852	337.895238
2464.592327	332.438095
2466.087900	324.409524
2467.586453	316.704762
2469.081477	297.390476
2470.577855	296.952381
2472.070706	294.809524
2473.564909	290.238095
2475.058839	283.123810
2476.549246	281.780952
2478.042630	282.933333
2479.534115	278.838095
2481.023704	277.019048
2482.513021	281.876190
2484.000443	278.133333
2485.490840	269.980952
2486.977718	274.942857
2488.465948	273.647619
2489.950662	272.266667
2491.435105	274.847619
2492.920900	267.514286
2494.404802	250.266667
2495.890056	253.361905
2497.370176	247.095238
2498.853268	239.952381
2500.334470	229.914286
2501.815403	229.038095
2503.294447	228.142857
2504.773223	236.304762
2506.251730	232.904762
2507.729968	231.114286
2509.207938	214.019048
2510.682404	216.495238
2512.159838	218.019048
2513.633769	222.752381
2515.109051	221.266667
2516.584065	223.285714
2518.055578	222.352381
2519.528442	231.019048
2520.999422	229.114286
2522.471753	221.380952
2523.938971	213.828571
2525.409155	221.209524
2526.877457	228.990476
2528.345495	232.428571
2529.813268	232.819048
2531.280776	224.780952
2532.748019	224.152381
2534.211771	224.942857
2535.676872	224.304762
2537.140096	226.380952
2538.604669	228.380952
2540.065753	223.514286
2541.528188	224.495238
2542.990359	224.152381
2544.449043	225.476190
2545.912300	228.000000
2547.370460	233.152381
2548.829969	238.342857
2550.284385	242.190476
2551.743371	241.990476
2553.200484	239.333333
2554.655727	232.238095
2556.110709	236.847619
2557.563821	247.019048
2559.018282	247.914286
2560.470874	238.780952
2561.923206	231.266667
2563.373670	222.428571
2564.827090	220.238095
2566.275428	226.685714
2567.726722	229.390476
2569.176149	227.971429
2570.622105	229.000000
2572.071015	228.628571
2573.516454	230.533333
2574.963242	232.847619
2576.408166	228.876190
2577.852833	230.238095
2579.298847	236.790476
2580.741394	237.695238
2582.185289	238.038095
2583.625719	231.457143
2585.067497	232.495238
2586.507414	236.247619
2587.948680	235.314286
2589.386483	244.609524
2590.827236	250.019048
2592.262926	244.419048
2593.701566	243.047619
2595.138349	235.723810
2596.573275	231.342857
2598.011150	237.828571
2599.443967	242.447619
2600.878131	231.190476
2602.310440	232.028571
2603.744096	230.980952
2605.175899	231.685714
2606.607449	233.171429
2608.038745	242.190476
2609.468190	246.419048
2610.897382	260.076190
2612.324723	264.771429
2613.753411	263.266667
2615.181846	266.904762
2616.606835	280.628571
2618.033169	297.342857
2619.457655	295.723810
2620.883487	296.257143
2622.305875	296.152381
2623.729609	296.009524
2625.151497	302.076190
2626.573134	310.400000
2627.992926	309.552381
2629.414064	320.219048
2630.834952	332.133333
2632.252402	341.285714
2633.672791	345.780952
2635.089743	362.200000
2636.506447	374.057143
2637.922902	387.514286
2639.339109	406.466667
2640.755067	415.961905
2642.169185	426.104762
2643.583056	439.352381
2644.995087	459.285714
2646.408463	480.552381
2647.818409	520.542857
2649.231291	554.219048
2650.640744	578.685714
2652.049951	606.666667
2653.457322	652.619048
2654.867627	699.209524
2656.276096	758.523810
2657.682730	814.009524
2659.089119	859.809524
2660.493674	938.076190
2661.899573	1035.600000
2663.303639	1148.733333
2664.707461	1262.038095
2666.111038	1375.847619
2667.512783	1497.761905
2668.915872	1637.609524
2670.315544	1788.800000
2671.716559	1944.790476
2673.114157	2090.323810
2674.514686	2238.228571
2675.911800	2380.866667
2677.310257	2520.038095
2678.706886	2646.828571
2680.103274	2743.800000
2681.499419	2831.733333
2682.893738	2886.952381
2684.289400	2893.428571
2685.681652	2884.666667
2687.075248	2824.333333
2688.467019	2711.495238
2689.860132	2615.742857
2691.251422	2465.752381
2692.640889	2313.228571
2694.030117	2176.990476
2695.419104	2037.942857
2696.809434	1892.790476
2698.194779	1762.800000
2699.583049	1607.085714
2700.969497	1471.790476
2702.355708	1340.542857
2703.741679	1226.523810
2705.124252	1121.380952
2706.508166	1035.200000
2707.891843	957.361905
2709.275282	888.428571
2710.655325	824.409524
2712.036710	762.419048
2713.416279	706.095238
2714.797190	668.523810
2716.176286	623.380952
2717.553567	585.304762
2718.932190	546.133333
2720.309000	516.580952
2721.685574	489.847619
2723.061912	477.028571
2724.436438	457.638095
2725.812305	445.980952
2727.184785	417.971429
2728.560182	399.828571
2729.930617	374.561905
2731.302394	363.838095
2732.673937	350.380952
2734.043671	342.466667
2735.414745	321.790476
2736.784012	320.409524
2738.153045	309.666667
2739.520271	310.266667
2740.887265	301.580952
2742.254026	291.209524
2743.620554	276.819048
2744.985277	274.095238
2746.349769	266.038095
2747.714028	269.876190
2749.078056	263.333333
2750.441851	260.152381
2751.802273	255.885714
2753.165606	250.266667
2754.523996	244.723810
2755.885296	240.438095
2757.243225	234.000000
2758.604064	228.019048
2759.963102	231.390476
2761.318772	228.628571
2762.677350	219.590476
2764.032562	210.533333
2765.387544	196.876190
2766.740729	220.009524
2768.096821	247.457143
2769.449549	253.561905
2770.802048	246.647619
2772.154319	234.533333
2773.507929	204.238095
2774.858177	205.942857
2776.206632	211.790476
2777.557991	215.666667
2778.905991	220.752381
2780.255330	229.085714
2781.602876	227.923810
2782.950195	224.780952
2784.297288	223.419048
2785.642590	223.866667
2786.987666	210.047619
2788.332516	198.990476
2789.677140	190.695238
2791.018411	194.323810
2792.361021	205.638095
2793.703406	214.019048
2795.045565	212.200000
2796.384375	209.733333
2797.726085	201.142857
2799.064446	196.000000
2800.404145	201.466667
2801.742058	192.428571
2803.078187	193.638095
2804.414093	198.952381
2805.751335	197.228571
2807.086794	195.657143
2808.422030	201.695238
2809.755484	204.533333
2811.090274	212.228571
2812.421723	213.095238
2813.756068	207.847619
2815.085515	202.723810
2816.416299	201.390476
2817.746861	198.161905
2819.075644	197.123810
2820.405764	194.200000
2821.734104	191.990476
2823.062224	186.561905
2824.388567	192.761905
2825.716245	187.428571
2827.040591	183.533333
2828.366272	180.504762
2829.690179	177.914286
2831.013865	170.619048
2832.338887	179.076190
2833.660580	183.009524
2834.982053	190.752381
2836.303308	192.038095
2837.624344	192.600000
2838.943608	183.304762
2840.264207	178.638095
2841.583034	175.323810
2842.901643	177.438095
2844.218482	172.952381
2845.535103	170.457143
2846.851506	164.257143
2848.166141	163.171429
2849.482110	165.361905
2850.794759	174.809524
2852.108744	178.333333
2853.422512	184.133333
2854.736063	177.190476
2856.047847	175.742857
2857.357866	169.533333
2858.669219	176.533333
2859.977256	180.152381
2861.286629	182.828571
2862.595786	179.933333
2863.904728	179.914286
2865.211907	176.771429
2866.517322	174.609524
2867.824072	170.361905
2869.129059	166.533333
2870.433833	164.723810
2871.736845	161.876190
2873.042739	164.923810
2874.343777	160.000000
2875.646150	162.323810
2876.946763	171.009524
2878.248710	168.904762
2879.550444	169.857143
2880.848874	176.819048
2882.148637	171.523810
2883.446643	174.171429
2884.744437	180.066667
2886.040474	172.314286
2887.337845	172.666667
2888.633460	165.552381
2889.928865	165.247619
2891.224058	168.580952
2892.515953	176.438095
2893.810725	172.571429
2895.102200	175.409524
2896.395009	173.457143
2897.687607	177.523810
2898.976910	175.028571
2900.267546	171.904762
2901.556431	165.247619
2902.846649	167.133333
2904.133575	171.742857
2905.421833	164.171429
2906.708342	164.695238
2907.994642	159.657143
2909.280734	156.133333
2910.565078	156.419048
2911.852294	157.095238
2913.134683	160.361905
2914.418404	167.209524
2915.700378	168.180952
2916.982146	164.666667
2918.262168	162.219048
2919.545060	161.228571
2920.826207	161.600000
2922.104072	158.714286
2923.384806	159.714286
2924.662259	162.485714
2925.939507	169.628571
2927.215012	174.400000
2928.493385	171.980952
2929.766943	165.723810
2931.043369	167.752381
2932.318054	168.676190
2933.590999	169.447619
2934.865274	170.800000
2936.137810	167.200000
2937.410142	165.466667
2938.679201	166.800000
2939.951125	163.380952
2941.221310	159.990476
2942.491293	165.247619
2943.761072	161.571429
2945.029114	161.504762
2946.295421	161.457143
2947.561525	156.590476
2948.828960	153.876190
2950.094659	157.638095
2951.360156	159.276190
2952.625451	160.714286
2953.887482	166.295238
2955.150842	158.400000
2956.414001	155.009524
2957.675427	147.542857
2958.938183	145.952381
2960.199208	145.095238
2961.458502	148.057143
2962.717595	152.571429
2963.976488	160.285714
2965.235181	148.438095
2966.493674	142.276190
2967.750438	144.657143
2969.007002	138.895238
2970.261839	151.171429
2971.518005	153.019048
2972.770915	152.676190
2974.025155	155.761905
2975.279196	162.200000
2976.531511	155.447619
2977.783628	158.866667
2979.034020	146.352381
2980.287267	150.761905
2981.535737	144.742857
2982.787061	141.885714
2984.035137	140.133333
2985.283015	146.828571
2986.530696	146.266667
2987.778181	153.419048
2989.023944	139.380952
2990.269510	136.733333
2991.516405	133.733333
2992.760054	138.476190
2994.005032	133.542857
2995.246767	136.828571
2996.491353	133.076190
2997.734220	139.428571
2998.973845	143.171429
3000.216322	142.428571
3001.455558	142.085714
3002.696122	144.571429
3003.934969	149.009524
3005.173622	146.895238
3006.410559	137.476190
3007.648823	131.504762
3008.885373	134.380952
3010.121729	132.142857
3011.357891	139.571429
3012.592339	140.219048
3013.826594	138.942857
3015.060656	139.323810
3016.293006	138.447619
3017.523644	135.628571
3018.757128	133.904762
3019.988901	132.695238
3021.218962	125.200000
3022.448832	119.361905
3023.676992	119.828571
3024.906479	129.771429
3026.134256	133.876190
3027.361842	146.323810
3028.590754	141.466667
3029.814924	136.828571
3031.041937	135.885714
3032.265727	131.838095
3033.490842	127.752381
3034.714251	133.276190
3035.937471	134.847619
3037.158985	131.580952
3038.383340	135.733333
3039.602960	122.714286
3040.823906	118.447619
3042.044662	127.238095
3043.263715	131.704762
3044.484094	135.771429
3045.701256	139.085714
3046.919743	131.866667
3048.136529	129.504762
3049.353126	135.971429
3050.569536	129.657143
3051.782732	127.142857
3052.998766	121.571429
3054.211588	118.990476
3055.427247	131.552381
3056.638183	134.514286
3057.850445	135.552381
3059.062519	143.190476
3060.274407	140.438095
3061.484597	127.600000
3062.694602	126.485714
3063.904420	111.066667
3065.112542	108.561905
3066.320478	117.047619
3067.526720	121.009524
3068.734286	121.504762
3069.940157	122.485714
3071.145843	121.533333
3072.351344	115.438095
3073.555153	112.847619
3074.760285	114.009524
3075.963724	116.009524
3077.165471	115.933333
3078.367035	121.942857
3079.568415	118.638095
3080.769611	126.038095
3081.969117	128.171429
3083.168439	126.504762
3084.369085	124.685714
3085.568042	118.704762
3086.763803	121.857143
3087.962394	129.304762
3089.157791	122.219048
3090.354512	117.314286
3091.548040	107.200000
3092.744396	104.009524
3093.939065	115.057143
3095.130544	119.133333
3096.326354	116.342857
3097.517471	111.704762
3098.709910	104.057143
3099.899162	111.295238
3101.091240	109.323810
3102.281634	99.771429
3103.468841	95.876190
3104.657372	90.619048
3105.847225	93.476190
3107.033893	109.800000
3108.220382	113.533333
3109.406691	114.819048
3110.594323	109.990476
3111.778772	122.228571
3112.961541	127.895238
3114.147134	130.790476
3115.331046	121.695238
3116.513280	113.476190
3117.695336	95.504762
3118.877213	106.514286
3120.058912	109.085714
3121.238934	110.733333
3122.417278	109.485714
3123.598444	106.457143
3124.776434	99.485714
3125.954247	97.923810
3127.131883	90.771429
3128.307844	103.066667
3129.483629	112.438095
3130.660734	112.933333
3131.836166	111.752381
3133.009924	108.457143
3134.182009	103.723810
3135.355415	108.161905
3136.528646	111.704762
3137.700204	113.057143
3138.873084	116.800000
3140.042796	122.666667
3141.213829	123.971429
3142.383191	113.561905
3143.550884	105.676190
3144.721392	98.419048
3145.887241	103.123810
3147.057400	112.771429
3148.222901	115.457143
3149.388229	116.609524
3150.553383	111.733333
3151.718363	103.809524
3152.884664	108.609524
3154.046311	110.990476
3155.209279	107.380952
3156.372073	111.685714
3157.534695	109.247619
3158.695652	106.304762
3159.856436	104.495238
3161.017048	99.800000
3162.175997	100.285714
3163.334773	107.009524
3164.493378	105.504762
3165.651811	109.247619
3166.810072	108.066667
3167.966671	106.095238
3169.121609	109.171429
3170.277866	103.609524
3171.432463	86.504762
3172.586888	82.809524
3173.739654	87.085714
3174.892250	93.504762
3176.044676	100.342857
3177.196931	105.704762
3178.349017	99.419048
3179.497956	97.828571
3180.649702	107.200000
3181.799791	111.990476
3182.948222	110.857143
3184.096485	108.638095
3185.244579	102.838095
3186.392503	102.495238
3187.538773	107.990476
3188.684874	104.057143
3189.829321	103.104762
3190.973599	103.438095
3192.117710	101.942857
3193.263139	103.961905
3194.405429	105.095238
3195.547551	101.200000
3196.689507	100.133333
3197.831295	100.457143
3198.972916	97.352381
3200.111401	96.676190
3201.251205	96.285714
3202.392325	106.104762
3203.530311	109.657143
3204.666648	114.133333
3205.802819	115.390476
3206.940308	116.247619
3208.076148	114.314286
3209.213304	114.047619
3210.345848	115.714286
3211.482674	120.190476
3212.614888	116.619048
3213.748420	114.704762
3214.881786	108.676190
3216.012025	106.114286
3217.145062	111.400000
3218.274973	126.552381
3219.406201	126.447619
3220.534303	124.952381
3221.665203	114.961905
3222.794458	116.771429
3223.922069	112.866667
3225.046559	119.990476
3226.175324	125.057143
3227.300967	131.266667
3228.426447	134.133333
3229.550286	143.942857
3230.676920	144.419048
3231.798955	154.857143
3232.922307	172.723810
3234.045497	175.000000
3235.168525	174.504762
3236.289913	170.504762
3237.411140	171.266667
3238.530728	179.295238
3239.650155	187.580952
3240.767944	186.123810
3241.888526	180.000000
3243.005994	186.923810
3244.123301	191.295238
3245.240447	186.771429
3246.355958	183.752381
3247.472784	169.676190
3248.586499	151.961905
3249.703005	150.285714
3250.817875	136.447619
3251.929637	128.476190
3253.041240	129.257143
3254.154158	125.571429
3255.266916	122.685714
3256.376568	114.038095
3257.487535	99.800000
3258.598343	103.933333
3259.707519	101.657143
3260.815064	101.419048
3261.923924	97.438095
3263.032625	90.142857
3264.138224	108.895238
3265.245138	133.638095
3266.350422	138.809524
3267.457020	136.066667
3268.560518	121.314286
3269.665330	107.057143
3270.769985	114.133333
3271.871542	106.152381
3272.972942	106.419048
3274.075656	106.876190
3275.178213	106.228571
3276.277675	103.161905
3277.379919	104.161905
3278.479069	101.580952
3279.576593	102.161905
3280.673962	101.485714
3281.774114	93.971429
3282.871172	89.038095
3283.968076	89.057143
3285.064824	87.828571
3286.157013	91.323810
3287.253452	98.695238
3288.348268	106.914286
3289.442929	106.600000
3290.535969	95.895238
3291.628855	83.952381
3292.720120	83.933333
3293.812698	91.561905
3294.903656	102.933333
3295.992994	99.238095
3297.082179	94.057143
3298.172676	92.590476
3299.260089	91.190476
3300.347350	91.676190
3301.435923	94.057143
3302.524343	91.485714
3303.608216	82.400000
3304.696331	79.095238
3305.781365	78.742857
3306.864783	80.857143
3307.949513	86.209524
3309.032627	85.895238
3310.117053	77.342857
3311.198401	81.466667
3312.281061	85.723810
3313.362107	86.590476
3314.443002	85.419048
3315.522284	82.904762
3316.601415	82.009524
3317.681857	88.980952
3318.759226	83.980952
3319.837906	77.647619
3320.914974	77.800000
3321.991892	78.171429
3323.067200	81.828571
3324.142358	79.733333
3325.218827	72.466667
3326.292225	73.876190
3327.365475	75.209524
3328.440036	81.819048
3329.512987	79.457143
3330.584331	77.276190
3331.656985	77.752381
3332.726572	82.542857
3333.797470	84.057143
3334.866761	85.676190
3335.937363	78.161905
3337.006358	81.190476
3338.073747	81.276190
3339.139531	80.952381
3340.209541	88.704762
3341.276488	88.380952
3342.340373	79.828571
3343.407026	87.942857
3344.472075	93.971429
3345.535520	93.676190
3346.598818	91.142857
3347.661971	81.304762
3348.724977	59.942857
3349.787836	52.695238
3350.849094	55.257143
3351.907295	60.400000
3352.969717	72.580952
3354.029082	80.295238
3355.088303	85.047619
3356.148832	79.961905
3357.204852	74.219048
3358.263637	66.628571
3359.317914	65.400000
3360.374955	58.638095
3361.430397	62.961905
3362.487148	65.647619
3363.542302	67.638095
3364.595858	73.885714
3365.647817	74.847619
3366.702538	78.819048
3367.754211	78.990476
3368.805739	77.695238
3369.858577	72.219048
3370.908367	71.219048
3371.959466	68.295238
3373.007518	67.438095
3374.058331	62.857143
3375.106098	56.723810
3376.153723	64.161905
3377.201206	75.571429
3378.247095	81.323810
3379.294294	86.923810
3380.338449	83.933333
3381.385363	75.485714
3382.430685	75.733333
3383.472967	72.914286
3384.515107	71.047619
3385.558556	66.876190
3386.601863	67.009524
3387.643580	71.952381
3388.685156	72.752381
3389.726592	79.980952
3390.766439	80.904762
3391.804697	79.457143
3392.844263	80.971429
3393.883689	77.980952
3394.921527	74.285714
3395.957778	75.866667
3396.993889	67.876190
3398.031308	66.828571
3399.065694	67.914286
3400.101388	67.247619
3401.136942	67.980952
3402.169464	69.180952
3403.204740	66.619048
3404.236985	64.390476
3405.269092	71.390476
3406.299615	77.419048
3407.331446	81.609524
3408.363138	79.333333
3409.391802	67.228571
3410.420328	61.438095
3411.450162	61.276190
3412.479857	67.676190
3413.506527	78.295238
3414.534504	82.457143
3415.559456	76.028571
3416.587158	73.819048
3417.611837	67.390476
3418.637822	64.361905
3419.662227	64.990476
3420.686496	65.209524
3421.709186	64.514286
3422.731740	68.819048
3423.755600	67.104762
3424.776440	62.923810
3425.797145	67.000000
3426.819155	66.904762
3427.838147	69.933333
3428.857004	71.380952
3429.877166	62.338095
3430.894312	36.238095
