-118.362301	7.400000
-115.692700	-0.200000
-113.026036	-2.000000
-110.360123	12.400000
-107.697142	-9.600000
-105.032732	-9.800000
-102.371252	6.600000
-99.708342	12.400000
-97.050540	12.600000
-94.391307	-7.200000
-91.732823	-10.800000
-89.077264	-3.400000
-86.420276	-13.200000
-83.768385	0.800000
-81.115065	-4.400000
-78.464665	-6.800000
-75.812835	-3.000000
-73.166096	20.200000
-70.517927	10.800000
-67.870502	-13.800000
-65.225990	12.400000
-62.580050	-7.600000
-59.939191	0.600000
-57.296902	0.800000
-54.657523	4.600000
-52.016715	13.400000
-49.376646	-5.200000
-46.741651	2.200000
-44.105226	13.600000
-41.471705	-18.800000
-38.836755	22.200000
-36.206870	14.200000
-33.573392	37.800000
-30.944977	8.000000
-28.317296	27.000000
-25.688187	14.800000
-23.064134	36.000000
-20.436492	55.200000
-17.813903	49.200000
-15.192045	100.200000
-12.570918	160.200000
-9.950522	434.400000
-7.333013	1506.800000
-4.714076	4884.000000
-2.098025	12642.600000
0.517298	17986.400000
3.131894	10011.200000
5.743608	1174.400000
8.356749	132.200000
10.964857	72.400000
13.576547	58.800000
16.183206	27.200000
18.791293	36.600000
21.398656	31.800000
24.000994	19.600000
26.606910	13.400000
29.207805	13.400000
31.810127	2.600000
34.407431	16.200000
37.008311	-12.600000
39.604177	8.600000
42.201470	22.600000
44.798044	26.400000
47.389609	39.200000
49.982602	24.800000
52.572734	19.800000
55.164294	6.400000
57.752994	4.400000
60.343122	1.800000
62.928250	27.800000
65.514806	-0.400000
68.100647	7.600000
70.683635	1.000000
73.268050	6.600000
75.845335	14.000000
78.426187	-9.000000
81.004190	25.800000
83.581483	-27.600000
86.160202	9.400000
88.733940	-3.000000
91.309104	-5.400000
93.881425	-19.200000
96.453039	1.000000
99.021812	0.000000
101.592012	7.600000
104.159373	10.200000
106.728161	2.800000
109.294111	-11.400000
111.857227	16.200000
114.423900	12.400000
116.981350	35.000000
119.544486	26.200000
122.102663	63.000000
124.664393	51.400000
127.221168	105.000000
129.779368	180.200000
132.332616	274.600000
134.885165	404.400000
137.441266	586.200000
139.992418	759.600000
142.542872	939.400000
145.092630	1041.600000
147.639568	1224.800000
150.185810	1226.200000
152.733479	1293.000000
155.280451	1295.000000
157.822487	1322.200000
160.363830	1274.800000
162.904481	1253.800000
165.446556	1285.800000
167.985821	1253.000000
170.522276	1235.600000
173.058041	1289.400000
175.595231	1263.200000
178.131729	1233.200000
180.665422	1247.600000
183.196312	1219.000000
185.726513	1228.400000
188.258139	1218.600000
190.786964	1182.200000
193.312991	1177.800000
195.838331	1251.400000
198.365096	1210.800000
200.889065	1173.800000
203.412348	1226.200000
205.934947	1180.800000
208.454753	1190.000000
210.973876	1214.600000
213.492316	1215.400000
216.012180	1200.200000
218.525043	1231.000000
221.041437	1228.000000
223.557149	1286.000000
226.067972	1308.600000
228.580219	1302.600000
231.089683	1294.600000
233.598469	1342.200000
236.106577	1307.400000
238.616109	1355.200000
241.120760	1319.200000
243.624735	1278.800000
246.130134	1293.200000
248.630658	1304.000000
251.134705	1332.000000
253.631782	1304.400000
256.132381	1278.400000
258.630209	1333.800000
261.127364	1282.000000
263.623846	1334.000000
266.115466	1269.600000
268.610604	1270.400000
271.102977	1261.800000
273.594679	1290.200000
276.083618	1312.600000
278.573980	1317.600000
281.061581	1353.600000
283.546422	1363.600000
286.034777	1350.600000
288.516193	1371.000000
291.001124	1332.000000
293.481208	1442.000000
295.964805	1412.600000
298.443560	1473.600000
300.923737	1523.600000
303.401163	1529.800000
305.877925	1475.600000
308.354023	1457.400000
310.827373	1407.200000
313.300062	1396.400000
315.772088	1363.200000
318.243454	1422.600000
320.712076	1388.600000
323.180038	1433.400000
325.649423	1369.000000
328.113985	1352.800000
330.582050	1231.000000
333.045296	1280.400000
335.507885	1244.600000
337.969816	1203.200000
340.431091	1205.000000
342.889632	1204.400000
345.349595	1157.600000
347.806826	1193.600000
350.263402	1158.400000
352.719323	1125.400000
355.172516	1152.000000
357.627131	1136.200000
360.076944	1092.800000
362.530253	1107.600000
364.978763	1099.800000
367.426623	1093.400000
369.875904	1062.600000
372.320392	1108.800000
374.766302	1049.000000
377.211563	1042.400000
379.654105	1045.200000
382.095999	1043.600000
384.537245	998.400000
386.975776	1021.200000
389.415729	1017.400000
391.852968	1000.400000
394.287495	963.400000
396.725510	952.800000
399.158748	948.000000
401.593408	994.000000
404.023294	972.400000
406.456667	948.400000
408.885268	952.800000
411.313229	974.800000
413.742610	933.000000
416.167227	991.400000
418.593264	927.200000
421.018662	927.200000
423.443419	921.400000
425.863417	924.000000
428.284837	904.400000
430.703560	901.200000
433.123704	891.600000
435.541153	907.200000
437.960022	879.200000
440.376198	855.000000
442.787627	825.800000
445.202532	795.000000
447.614747	759.800000
450.026328	771.200000
452.437275	765.200000
454.845536	702.400000
457.253165	726.800000
459.660161	751.800000
462.066525	709.600000
464.470208	713.000000
466.873260	695.000000
469.275682	702.800000
471.677474	720.000000
474.076588	739.200000
476.477122	722.800000
478.877027	760.200000
481.272209	763.600000
483.670858	809.200000
486.064787	822.800000
488.458090	842.600000
490.850767	892.400000
493.242819	959.600000
495.636290	1028.200000
498.025048	1204.000000
500.411140	1395.200000
502.798652	1782.800000
505.185540	2363.000000
507.569765	3240.800000
509.955409	4579.600000
512.338390	6417.600000
514.718711	8563.200000
517.100451	9914.000000
519.479532	9947.200000
521.860032	8883.400000
524.237874	7400.600000
526.613061	6159.600000
528.987630	5147.600000
531.363618	4388.000000
533.736952	3806.000000
536.111705	3335.400000
538.481771	3037.800000
540.851222	2728.400000
543.222092	2521.600000
545.588280	2292.200000
547.955887	2198.400000
550.320848	2033.000000
552.685196	1910.800000
555.048932	1825.600000
557.414085	1761.000000
559.774566	1700.200000
562.136464	1614.400000
564.495723	1588.800000
566.852343	1564.400000
569.212409	1537.800000
571.565783	1422.800000
573.922602	1389.600000
576.276786	1346.600000
578.630361	1286.200000
580.983328	1253.400000
583.333664	1226.000000
585.685416	1240.400000
588.030492	1168.800000
590.381032	1143.400000
592.724899	1115.800000
595.074226	1077.000000
597.418906	1073.000000
599.760961	1068.000000
602.104433	1042.400000
604.445281	1004.200000
606.785528	1071.800000
609.123154	1095.200000
611.464215	1132.800000
613.800639	1220.400000
616.138479	1187.600000
618.473701	1193.400000
620.806308	1168.000000
623.140332	1107.600000
625.471741	1079.400000
627.802552	1036.000000
630.132765	1018.000000
632.462380	1003.800000
634.787373	973.200000
637.117807	1016.600000
639.443619	996.800000
641.766825	983.800000
644.091447	981.200000
646.413463	934.200000
648.734885	965.400000
651.053704	933.000000
653.373939	965.200000
655.693581	898.800000
658.010622	928.800000
660.327072	923.600000
662.640923	947.600000
664.956189	911.800000
667.268859	934.600000
669.582944	897.800000
671.892430	912.600000
674.203330	886.000000
676.511638	881.000000
678.819358	912.800000
681.128493	917.400000
683.433035	860.800000
685.736991	817.800000
688.040360	859.800000
690.345144	844.800000
692.645342	810.200000
694.946955	782.800000
697.247982	783.800000
699.544428	780.200000
701.842288	730.600000
704.139565	779.200000
706.436259	726.600000
708.728377	771.600000
711.023906	726.000000
713.314862	731.400000
715.607232	733.400000
717.897026	753.600000
720.186241	758.600000
722.474875	749.400000
724.760938	761.000000
727.048414	744.600000
729.333320	727.800000
731.617647	740.800000
733.899407	732.200000
736.182580	729.200000
738.465176	686.400000
740.743216	668.200000
743.022670	714.800000
745.301549	714.400000
747.579852	701.000000
749.853606	727.000000
752.128774	725.800000
754.403368	706.000000
756.675403	695.600000
758.948851	703.200000
761.219741	664.400000
763.488074	707.400000
765.757822	707.800000
768.025014	705.000000
770.291636	704.400000
772.557689	721.800000
774.821190	702.600000
777.086103	701.000000
779.350448	713.200000
781.610262	728.800000
783.871490	693.200000
786.132150	722.000000
788.390263	729.200000
790.645832	718.200000
792.904792	712.000000
795.157253	726.200000
797.415081	746.800000
799.668390	714.400000
801.919158	731.000000
804.171339	722.000000
806.420982	731.400000
808.672036	772.400000
810.918579	716.800000
813.166535	728.800000
815.411955	732.200000
817.658787	717.200000
819.905058	731.000000
822.146825	699.800000
824.391974	681.200000
826.630651	712.000000
828.872711	699.000000
831.110272	671.200000
833.349244	698.600000
835.585690	669.000000
837.823548	672.800000
840.058880	684.000000
842.291688	712.400000
844.525908	672.800000
846.757606	688.200000
848.988749	679.000000
851.219337	666.400000
853.449371	655.400000
855.678850	723.000000
857.903849	684.800000
860.132221	685.600000
862.356115	659.600000
864.581419	631.800000
866.802248	639.400000
869.026449	621.400000
871.246177	644.600000
873.467316	634.800000
875.687904	663.200000
877.905983	660.400000
880.125471	682.200000
882.340493	639.800000
884.554967	663.800000
886.768894	640.400000
888.982273	642.000000
891.195106	615.800000
893.407391	654.600000
895.617175	657.400000
897.826413	659.600000
900.035105	651.200000
902.241299	656.200000
904.448902	642.000000
906.654008	668.200000
908.858570	673.400000
911.060636	688.800000
913.264112	707.400000
915.465095	697.600000
917.665535	740.600000
919.867384	718.600000
922.062841	751.800000
924.261658	806.800000
926.456037	895.800000
928.653773	971.600000
930.847073	1060.200000
933.041781	1216.000000
935.234004	1258.600000
937.425689	1424.400000
939.616836	1436.000000
941.805500	1485.600000
943.993627	1525.000000
946.179274	1490.800000
948.368273	1475.000000
950.552849	1471.000000
952.736890	1468.800000
954.924281	1448.800000
957.103369	1463.600000
959.285806	1461.400000
961.467710	1476.000000
963.647140	1510.400000
965.824097	1507.800000
968.002462	1531.400000
970.182233	1525.400000
972.355656	1539.600000
974.532425	1530.000000
976.704788	1534.800000
978.878557	1478.200000
981.047924	1492.400000
983.220634	1436.600000
985.390878	1386.800000
987.560594	1251.600000
989.729781	1132.800000
991.894571	1045.400000
994.062702	1003.400000
996.226439	868.200000
998.391582	885.400000
1000.554267	882.800000
1002.716426	816.000000
1004.876127	819.000000
1007.035305	806.800000
1009.195889	792.400000
1011.354018	764.200000
1013.511623	758.000000
1015.668705	746.400000
1017.825264	697.400000
1019.977443	726.800000
1022.131029	674.600000
1024.284092	692.400000
1026.434708	654.600000
1028.586729	639.800000
1030.734377	630.600000
1032.885357	634.800000
1035.031966	619.600000
1037.178057	615.600000
1039.323629	596.200000
1041.470605	619.200000
1043.611294	629.400000
1045.755311	628.600000
1047.896888	602.200000
1050.037949	604.400000
1052.180414	603.600000
1054.316600	598.200000
1056.456112	592.400000
1058.591268	583.400000
1060.729749	603.200000
1062.863877	621.400000
1064.997491	611.200000
1067.132509	571.400000
1069.263178	609.000000
1071.395252	568.400000
1073.524897	593.400000
1075.654030	581.000000
1077.782652	569.400000
1079.910762	583.200000
1082.036446	597.000000
1084.161620	608.400000
1086.288197	540.600000
1088.410438	593.000000
1090.534083	551.400000
1092.653393	564.600000
1094.777932	563.000000
1096.896227	590.000000
1099.015925	560.600000
1101.133205	573.800000
1103.249979	550.000000
1105.366246	530.000000
1107.480098	536.200000
1109.595353	556.800000
1111.706286	562.600000
1113.820530	530.800000
1115.930455	519.200000
1118.041782	545.800000
1120.152606	527.200000
1122.259113	531.800000
1124.368929	542.200000
1126.474431	532.000000
1128.581337	522.800000
1130.682026	511.200000
1132.787928	479.000000
1134.889521	511.400000
1136.992517	523.800000
1139.095012	528.600000
1141.191301	517.600000
1143.292796	485.600000
1145.389989	513.200000
1147.486683	496.200000
1149.582880	499.600000
1151.678578	500.400000
1153.773779	467.200000
1155.866583	499.000000
1157.960789	491.800000
1160.048804	512.000000
1162.142017	491.200000
1164.229042	484.200000
1166.319367	497.600000
1168.405403	515.600000
1170.494737	492.800000
1172.577890	499.000000
1174.662446	505.000000
1176.748402	508.800000
1178.830077	479.800000
1180.913154	496.400000
1182.993845	506.600000
1185.074044	501.400000
1187.153753	518.600000
1189.232969	506.800000
1191.309804	499.000000
1193.384258	518.400000
1195.462004	507.200000
1197.535479	498.600000
1199.610356	493.800000
1201.680965	492.800000
1203.752975	495.800000
1205.822609	465.400000
1207.893644	472.600000
1209.964191	496.600000
1212.030477	486.800000
1214.098164	475.800000
1216.163479	492.200000
1218.230194	473.200000
1220.292653	494.600000
1222.358397	484.600000
1224.419888	498.000000
1226.482778	464.800000
1228.543301	481.000000
1230.603341	475.000000
1232.662897	474.600000
1234.720089	508.400000
1236.776798	464.800000
1238.831145	506.800000
1240.888772	494.800000
1242.944037	513.000000
1244.995061	532.200000
1247.047485	498.200000
1249.099430	486.400000
1251.149015	507.000000
1253.198123	504.600000
1255.246751	495.000000
1257.294901	491.800000
1259.342573	484.200000
1261.386014	509.200000
1263.432730	510.200000
1265.477094	506.400000
1267.520980	535.400000
1269.562516	487.200000
1271.601702	545.200000
1273.644160	484.400000
1275.682397	492.000000
1277.722031	507.400000
1279.761191	508.800000
1281.796133	495.800000
1283.832473	474.000000
1285.866468	479.600000
1287.901862	494.000000
1289.933042	489.800000
1291.965621	501.600000
1293.997727	496.200000
1296.027493	511.800000
1298.058657	512.400000
1300.085613	490.400000
1302.113967	464.000000
1304.138117	503.400000
1306.165531	471.400000
1308.188744	481.000000
1310.213353	493.400000
1312.235629	490.800000
1314.259302	458.200000
1316.280642	473.000000
1318.301514	467.800000
1320.321920	488.600000
1322.338131	454.600000
1324.355741	459.400000
1326.371022	447.800000
1328.389562	470.000000
1330.403912	473.200000
1332.415937	487.200000
1334.431220	472.200000
1336.442317	485.000000
1338.454810	479.000000
1340.463121	495.400000
1342.474688	489.600000
1344.480216	512.000000
1346.488998	477.400000
1348.493604	504.000000
1350.501463	501.800000
1352.508859	464.400000
1354.510225	486.800000
1356.512988	496.000000
1358.515291	486.400000
1360.517133	495.400000
1362.518517	477.000000
1364.517586	513.800000
1366.516197	492.000000
1368.514350	505.400000
1370.512045	457.200000
1372.505576	498.000000
1374.500504	472.200000
1376.494975	472.800000
1378.488989	477.000000
1380.480696	482.400000
1382.471947	458.200000
1384.460893	467.000000
1386.451234	431.000000
1388.441120	471.200000
1390.428703	442.000000
1392.415832	448.200000
1394.400659	469.000000
1396.386881	469.200000
1398.370802	448.000000
1400.354271	457.200000
1402.337288	430.800000
1404.318007	465.600000
1406.300120	479.800000
1408.279936	480.800000
1410.259302	454.200000
1412.234529	458.200000
1414.212994	432.600000
1416.189166	466.600000
1418.164888	453.200000
1420.140161	449.800000
1422.113143	444.200000
1424.085678	474.800000
1426.057764	435.800000
1428.029402	445.000000
1429.996913	490.200000
1431.969497	445.200000
1433.934275	433.000000
1435.904126	443.000000
1437.869852	454.600000
1439.836972	429.800000
1441.801808	444.600000
1443.762524	465.600000
1445.728308	468.400000
1447.688137	453.400000
1449.649359	438.200000
1451.611974	471.000000
1453.570474	499.800000
1455.528532	492.600000
1457.486147	469.400000
1459.443321	482.600000
1461.398219	477.000000
1463.354509	501.800000
1465.308525	484.400000
1467.262101	511.400000
1469.213404	460.800000
1471.166099	466.200000
1473.116523	486.200000
1475.066508	503.200000
1477.016053	508.400000
1478.963330	487.800000
1480.908340	491.800000
1482.854742	449.400000
1484.800706	458.400000
1486.746232	466.800000
1488.689494	491.800000
1490.632319	459.000000
1492.572881	435.000000
1494.514834	466.400000
1496.454526	441.200000
1498.393782	459.800000
1500.332604	419.600000
1502.269166	453.000000
1504.207118	470.400000
1506.142813	452.600000
1508.078074	469.400000
1510.011078	451.400000
1511.943650	444.600000
1513.875790	502.800000
1515.807498	479.200000
1517.736952	476.600000
1519.667797	473.000000
1521.598211	466.200000
1523.524552	501.000000
1525.452283	489.600000
1527.377764	495.000000
1529.302816	466.800000
1531.227439	490.800000
1533.151633	485.600000
1535.073580	529.000000
1536.996916	525.200000
1538.918007	510.600000
1540.836853	561.800000
1542.757089	552.000000
1544.675081	628.800000
1546.592647	589.400000
1548.507971	630.800000
1550.424685	650.800000
1552.337344	627.200000
1554.253207	673.600000
1556.166831	700.000000
1558.078216	722.600000
1559.990990	821.400000
1561.899715	873.000000
1563.809830	950.800000
1565.719521	1078.800000
1567.628788	1291.600000
1569.535822	1503.200000
1571.440623	1869.200000
1573.346813	2243.600000
1575.250771	2670.400000
1577.154309	3092.200000
1579.057425	3472.600000
1580.958313	3660.600000
1582.860588	3449.400000
1584.760636	3033.200000
1586.662072	2500.400000
1588.559473	1989.200000
1590.456457	1655.400000
1592.353022	1328.000000
1594.250974	1118.000000
1596.143092	989.600000
1598.038403	921.000000
1599.933297	823.800000
1601.825969	792.000000
1603.718225	699.400000
1605.608261	705.600000
1607.497881	629.000000
1609.387086	618.800000
1611.275875	594.000000
1613.162448	579.800000
1615.050407	589.200000
1616.934351	555.000000
1618.819681	555.800000
1620.704597	522.000000
1622.587301	534.200000
1624.471390	511.400000
1626.351469	475.000000
1628.232934	451.600000
1630.112189	451.000000
1631.992830	446.000000
1633.867667	438.000000
1635.747486	435.400000
1637.623299	423.400000
1639.498703	434.000000
1641.375492	420.200000
1643.246484	431.000000
1645.120658	394.800000
1646.990834	428.400000
1648.864190	419.000000
1650.735343	400.000000
1652.604294	396.800000
1654.474631	390.200000
1656.340974	366.400000
1658.208703	412.400000
1660.074234	403.600000
1661.941149	397.400000
1663.804076	381.600000
1665.668388	406.600000
1667.530505	401.400000
1669.392216	365.600000
1671.255312	381.200000
1673.116214	358.400000
1674.974922	368.000000
1676.833227	360.200000
1678.692917	377.000000
1680.546840	371.400000
1682.403935	352.400000
1684.260628	358.600000
1686.113345	366.800000
1687.969233	390.400000
1689.821147	346.000000
1691.672659	339.400000
1693.523772	321.600000
1695.374483	345.400000
1697.224794	334.800000
1699.072921	364.600000
1700.922431	337.800000
1702.766193	353.200000
1704.614905	343.200000
1706.457870	349.600000
1708.304001	338.800000
1710.146171	326.600000
1711.991505	375.800000
1713.831099	354.000000
1715.672077	348.400000
1717.514438	362.400000
1719.352843	327.000000
1721.192631	330.000000
1723.030244	323.800000
1724.867461	323.800000
1726.702505	340.200000
1728.538932	351.800000
1730.373187	355.800000
1732.207048	333.200000
1734.040514	352.400000
1735.870034	328.400000
1737.702713	343.000000
1739.531448	332.400000
1741.363341	306.400000
1743.191291	329.000000
1745.018849	322.600000
1746.846016	314.800000
1748.672790	339.200000
1750.499174	299.200000
1752.321621	325.400000
1754.147222	320.600000
1755.968889	341.000000
1757.791938	335.600000
1759.612826	320.200000
1761.433324	325.400000
1763.255204	301.000000
1765.071384	305.800000
1766.890716	311.000000
1768.706121	337.800000
1770.524676	313.600000
1772.339307	334.800000
1774.153550	351.400000
1775.967407	334.400000
1777.780877	330.200000
1779.592193	340.200000
1781.404891	309.600000
1783.217202	307.000000
1785.025596	326.200000
1786.835371	330.600000
1788.641230	309.000000
1790.450236	326.800000
1792.255328	286.200000
1794.061800	318.000000
1795.867889	312.600000
1797.670068	318.000000
1799.475390	321.200000
1801.276804	311.800000
1803.079598	291.400000
1804.878487	337.000000
1806.678755	338.000000
1808.478643	285.800000
1810.276388	328.600000
1812.073753	319.200000
1813.870737	320.400000
1815.667341	293.400000
1817.461806	322.200000
1819.257651	317.400000
1821.047840	290.000000
1822.842926	311.800000
1824.632359	307.200000
1826.424930	340.800000
1828.215365	296.400000
1830.003665	340.400000
1831.795101	322.000000
1833.580891	308.400000
1835.368061	293.000000
1837.153099	301.200000
1838.941271	317.600000
1840.725557	319.800000
1842.507714	313.400000
1844.291249	337.200000
1846.072657	335.800000
1847.855442	307.800000
1849.634348	292.000000
1851.414632	304.600000
1853.192791	317.000000
1854.972327	301.800000
1856.749739	307.800000
1858.525027	322.400000
1860.301694	319.000000
1862.076238	316.600000
1863.852159	307.400000
1865.622461	329.000000
1867.395890	331.400000
1869.167199	295.800000
1870.938137	326.400000
1872.710452	319.000000
1874.477155	305.400000
1876.246982	315.400000
1878.012946	319.200000
1879.782034	338.600000
1881.547260	324.200000
1883.312118	340.600000
1885.078352	315.200000
1886.840728	353.800000
1888.602737	319.200000
1890.364379	300.200000
1892.125653	312.400000
1893.886561	283.600000
1895.647101	308.000000
1897.405532	348.000000
1899.163598	309.200000
1900.919556	287.000000
1902.676890	300.200000
1904.433858	298.600000
1906.188721	325.600000
1907.941478	295.400000
1909.693872	302.200000
1911.447641	283.400000
1913.199307	272.800000
1914.948871	287.600000
1916.699811	288.200000
1918.450387	278.600000
1920.197125	283.600000
1921.945238	298.000000
1923.691252	291.000000
1925.438642	278.200000
1927.183933	283.800000
1928.927127	281.600000
1930.671697	277.000000
1932.414170	273.800000
1934.156283	310.600000
1935.898036	289.000000
1937.639430	278.000000
1939.378730	288.000000
1941.117671	298.600000
1942.856253	282.000000
1944.592743	300.600000
1946.328876	308.500000
1948.066383	316.400000
1949.800069	294.400000
1951.535128	265.800000
1953.268100	275.200000
1955.000715	276.400000
1956.732973	291.600000
1958.464875	270.800000
1960.194691	301.600000
1961.922423	298.000000
1963.651528	268.400000
1965.380279	290.200000
1967.106946	294.800000
1968.833259	285.600000
1970.560945	308.200000
1972.283095	276.600000
1974.008346	266.200000
1975.729791	288.600000
1977.454335	276.000000
1979.176800	307.200000
1980.895461	307.800000
1982.617221	327.000000
1984.335179	294.200000
1986.054511	252.400000
1987.770042	279.600000
1989.490395	278.800000
1991.206948	309.400000
1992.919706	294.000000
1994.635559	276.000000
1996.349339	261.600000
1998.062770	287.000000
1999.774130	295.600000
2001.486863	313.800000
2003.195804	303.400000
2004.907839	293.800000
2006.614364	282.000000
2008.323982	261.000000
2010.031532	295.400000
2011.738735	285.600000
2013.443872	278.400000
2015.148662	291.600000
2016.854824	353.400000
2018.557204	301.000000
2020.260956	280.200000
2021.962645	290.000000
2023.663988	287.400000
2025.364986	284.400000
2027.063924	281.400000
2028.764233	326.800000
2030.460766	331.600000
2032.158671	293.400000
2033.854518	306.600000
2035.553450	268.400000
2037.246895	281.200000
2038.941713	299.200000
2040.636187	284.400000
2042.326893	278.800000
2044.020683	264.200000
2045.710706	310.600000
2047.402100	295.600000
2049.091441	289.000000
2050.782152	266.200000
2052.469101	295.200000
2054.155709	277.400000
2055.843688	290.800000
2057.527907	299.800000
2059.213496	306.400000
2060.898746	267.600000
2062.581948	276.000000
2064.266520	291.800000
2065.945628	292.000000
2067.629522	266.800000
2069.307956	269.400000
2070.989467	268.600000
2072.667226	290.600000
2074.344649	268.200000
2076.023441	290.000000
2077.700190	278.000000
2079.374898	273.000000
2081.050975	255.800000
2082.725012	273.600000
2084.398713	264.800000
2086.072079	300.600000
2087.743407	254.400000
2089.414400	291.800000
2091.085059	278.400000
2092.755384	277.200000
2094.425374	240.600000
2096.093329	260.000000
2097.760951	233.600000
2099.426539	247.200000
2101.093495	288.600000
2102.758418	277.400000
2104.423008	288.800000
2106.085567	269.000000
2107.749495	259.800000
2109.411391	272.000000
2111.072956	282.800000
2112.734191	267.600000
2114.393396	255.400000
2116.052272	290.200000
2117.710817	277.800000
2119.369033	282.600000
2121.023525	287.000000
2122.681083	263.000000
2124.338310	265.200000
2125.991817	268.800000
2127.646691	281.000000
2129.297846	261.800000
2130.952064	242.800000
2132.602564	262.200000
2134.254432	296.800000
2135.900891	236.800000
2137.552104	273.400000
2139.199604	230.000000
2140.848472	245.200000
2142.495320	277.000000
2144.141842	273.200000
2145.788039	277.800000
2147.430528	269.000000
2149.076075	266.800000
2150.717915	259.000000
2152.362812	260.400000
2154.004004	253.800000
2155.644872	265.000000
2157.285417	253.600000
2158.923949	289.800000
2160.563847	257.800000
2162.200045	266.000000
2163.837609	271.600000
2165.474851	259.600000
2167.110083	256.400000
2168.744993	271.800000
2170.379582	275.800000
2172.013850	283.400000
2173.644424	252.000000
2175.278049	281.400000
2176.907983	271.200000
2178.539282	284.600000
2180.168577	281.200000
2181.797551	276.400000
2183.426207	245.200000
2185.054543	259.400000
2186.680876	256.400000
2188.306891	276.800000
2189.930905	259.800000
2191.556284	253.000000
2193.179662	247.600000
2194.804405	264.600000
2196.425466	270.400000
2198.046212	241.800000
2199.668321	273.000000
2201.288433	265.600000
2202.906549	250.800000
2204.524349	267.600000
2206.141833	269.800000
2207.759002	241.200000
2209.375856	256.600000
2210.992395	292.200000
2212.606940	253.000000
2214.219493	250.000000
2215.833411	240.600000
2217.445336	244.600000
2219.058626	247.400000
2220.669924	243.200000
2222.279233	255.600000
2223.889906	237.000000
2225.498590	268.000000
2227.106962	253.200000
2228.713346	251.600000
2230.321094	261.400000
2231.926855	256.600000
2233.532305	283.600000
2235.135771	248.400000
2236.740599	270.200000
2238.343443	265.000000
2239.944304	247.600000
2241.546528	228.600000
2243.146769	272.200000
2244.748373	247.000000
2246.346325	241.800000
2247.945639	238.600000
2249.542973	235.200000
2251.139999	256.000000
2252.738386	266.200000
2254.333125	257.800000
2255.925888	271.600000
2257.520012	304.600000
2259.115498	243.000000
2260.707340	264.800000
2262.298875	252.200000
2263.891771	263.800000
2265.479358	276.400000
2267.071642	281.000000
2268.658618	275.000000
2270.248623	251.800000
2271.833323	268.200000
2273.422717	243.000000
2275.006808	267.400000
2276.592261	226.800000
2278.175745	253.800000
2279.762254	237.000000
2281.345130	275.400000
2282.927702	209.200000
2284.509972	245.600000
2286.088611	244.200000
2287.670274	251.800000
2289.248309	267.000000
2290.829368	228.600000
2292.406799	242.200000
2293.982267	255.800000
2295.560757	245.200000
2297.135622	274.200000
2298.710187	242.800000
2300.284452	240.200000
2301.858416	238.800000
2303.432080	267.400000
2305.005443	261.400000
2306.575188	244.600000
2308.144634	250.000000
2309.717099	247.400000
2311.284288	237.000000
2312.854496	254.600000
2314.421089	261.200000
2315.989042	250.000000
2317.555040	235.800000
2319.120740	267.200000
2320.686142	245.200000
2322.249591	254.000000
2323.814398	252.200000
2325.375598	284.600000
2326.939812	283.400000
2328.498765	298.600000
2330.060731	288.600000
2331.620747	266.000000
2333.180467	241.800000
2334.738238	251.600000
2336.295715	236.200000
2337.852896	243.200000
2339.408131	219.200000
2340.963071	266.400000
2342.517718	249.400000
2344.072071	247.000000
2345.626130	263.200000
2347.179896	243.200000
2348.731717	234.600000
2350.281595	266.000000
2351.834481	266.400000
2353.382125	247.800000
2354.932776	263.200000
2356.479837	257.600000
2358.028255	252.600000
2359.576381	238.400000
2361.120920	238.200000
2362.666816	250.600000
2364.210773	250.800000
2365.756088	259.600000
2367.297818	248.400000
2368.840906	239.600000
2370.382057	240.200000
2371.922919	246.800000
2373.463492	232.400000
2375.003776	233.600000
2376.543771	255.800000
2378.080187	248.000000
2379.619605	255.200000
2381.155446	232.800000
2382.692643	238.000000
2384.226266	254.200000
2385.762888	235.200000
2387.297579	256.200000
2388.830341	237.200000
2390.362817	239.800000
2391.893364	241.600000
2393.426909	249.400000
2394.955243	235.000000
2396.484933	261.800000
2398.014338	256.400000
2399.543458	244.800000
2401.072292	226.600000
2402.595922	275.400000
2404.124187	242.200000
2405.647249	257.000000
2407.174946	236.000000
2408.695802	275.600000
2410.221292	231.000000
2411.743221	266.200000
2413.266506	258.800000
2414.787870	284.400000
2416.307314	281.600000
2417.828113	251.600000
2419.346993	246.000000
2420.865591	279.600000
2422.382272	242.200000
2423.900308	267.600000
2425.418062	277.800000
2426.932264	280.400000
2428.446186	296.000000
2429.959829	320.800000
2431.474825	283.000000
2432.986273	274.800000
2434.499076	310.800000
2436.009966	320.000000
2437.520576	304.200000
2439.029275	317.800000
2440.540961	330.600000
2442.049103	314.000000
2443.556966	334.800000
2445.064552	360.000000
2446.568598	316.800000
2448.075628	354.800000
2449.580750	312.600000
2451.085595	353.400000
2452.588533	351.600000
2454.091194	374.200000
2455.593579	344.200000
2457.094059	343.000000
2458.595892	318.200000
2460.095821	344.000000
2461.595474	329.200000
2463.094852	335.600000
2464.592327	353.800000
2466.087900	317.800000
2467.586453	296.800000
2469.081477	304.400000
2470.577855	293.400000
2472.070706	308.000000
2473.564909	329.000000
2475.058839	294.000000
2476.549246	285.400000
2478.042630	323.200000
2479.534115	302.800000
2481.023704	292.200000
2482.513021	269.800000
2484.000443	279.200000
2485.490840	264.000000
2486.977718	277.400000
2488.465948	268.000000
2489.950662	312.000000
2491.435105	288.000000
2492.920900	278.800000
2494.404802	253.000000
2495.890056	267.200000
2497.370176	252.200000
2498.853268	251.600000
2500.334470	246.400000
2501.815403	240.800000
2503.294447	241.200000
2504.773223	248.200000
2506.251730	243.000000
2507.729968	261.200000
2509.207938	238.200000
2510.682404	271.600000
2512.159838	222.800000
2513.633769	242.200000
2515.109051	239.800000
2516.584065	263.800000
2518.055578	229.800000
2519.528442	243.800000
2520.999422	234.000000
2522.471753	248.200000
2523.938971	233.400000
2525.409155	238.200000
2526.877457	243.400000
2528.345495	252.600000
2529.813268	215.400000
2531.280776	241.600000
2532.748019	248.800000
2534.211771	268.000000
2535.676872	245.600000
2537.140096	242.400000
2538.604669	235.400000
2540.065753	263.400000
2541.528188	250.400000
2542.990359	234.400000
2544.449043	235.200000
2545.912300	229.000000
2547.370460	252.600000
2548.829969	257.600000
2550.284385	285.600000
2551.743371	262.600000
2553.200484	235.800000
2554.655727	272.200000
2556.110709	254.400000
2557.563821	264.000000
2559.018282	221.200000
2560.470874	254.600000
2561.923206	215.600000
2563.373670	230.800000
2564.827090	233.000000
2566.275428	238.400000
2567.726722	243.600000
2569.176149	238.600000
2570.622105	228.200000
2572.071015	256.800000
2573.516454	248.400000
2574.963242	240.000000
2576.408166	248.200000
2577.852833	230.000000
2579.298847	258.200000
2580.741394	243.800000
2582.185289	251.400000
2583.625719	264.600000
2585.067497	247.000000
2586.507414	247.200000
2587.948680	241.400000
2589.386483	256.400000
2590.827236	246.200000
2592.262926	253.200000
2593.701566	254.800000
2595.138349	225.000000
2596.573275	245.600000
2598.011150	255.400000
2599.443967	231.200000
2600.878131	262.600000
2602.310440	231.000000
2603.744096	253.400000
2605.175899	259.000000
2606.607449	265.200000
2608.038745	240.200000
2609.468190	292.600000
2610.897382	269.400000
2612.324723	282.200000
2613.753411	258.600000
2615.181846	286.200000
2616.606835	292.400000
2618.033169	289.600000
2619.457655	279.200000
2620.883487	292.400000
2622.305875	300.600000
2623.729609	305.200000
2625.151497	329.600000
2626.573134	325.000000
2627.992926	316.400000
2629.414064	340.000000
2630.834952	360.200000
2632.252402	346.800000
2633.672791	372.400000
2635.089743	390.000000
2636.506447	378.400000
2637.922902	431.200000
2639.339109	423.600000
2640.755067	419.800000
2642.169185	438.600000
2643.583056	452.600000
2644.995087	480.800000
2646.408463	461.400000
2647.818409	497.800000
2649.231291	533.600000
2650.640744	519.000000
2652.049951	560.600000
2653.457322	589.000000
2654.867627	644.600000
2656.276096	618.000000
2657.682730	707.000000
2659.089119	725.600000
2660.493674	772.200000
2661.899573	849.200000
2663.303639	929.000000
2664.707461	1000.800000
2666.111038	1032.800000
2667.512783	1168.000000
2668.915872	1294.200000
2670.315544	1376.800000
2671.716559	1507.600000
2673.114157	1677.400000
2674.514686	1805.600000
2675.911800	1945.400000
2677.310257	2115.400000
2678.706886	2221.200000
2680.103274	2309.800000
2681.499419	2428.400000
2682.893738	2435.400000
2684.289400	2548.600000
2685.681652	2567.400000
2687.075248	2481.400000
2688.467019	2483.800000
2689.860132	2360.200000
2691.251422	2235.200000
2692.640889	2142.200000
2694.030117	1971.200000
2695.419104	1849.400000
2696.809434	1699.400000
2698.194779	1525.800000
2699.583049	1407.600000
2700.969497	1273.600000
2702.355708	1201.400000
2703.741679	1064.400000
2705.124252	985.400000
2706.508166	890.600000
2707.891843	855.000000
2709.275282	796.400000
2710.655325	692.600000
2712.036710	679.800000
2713.416279	641.200000
2714.797190	566.400000
2716.176286	584.000000
2717.553567	518.800000
2718.932190	510.600000
2720.309000	491.200000
2721.685574	441.200000
2723.061912	424.800000
2724.436438	430.800000
2725.812305	405.400000
2727.184785	393.400000
2728.560182	376.200000
2729.930617	370.000000
2731.302394	328.600000
2732.673937	341.400000
2734.043671	321.600000
2735.414745	334.000000
2736.784012	322.000000
2738.153045	346.000000
2739.520271	341.000000
2740.887265	301.400000
2742.254026	289.200000
2743.620554	281.000000
2744.985277	265.400000
2746.349769	294.400000
2747.714028	281.200000
2749.078056	265.600000
2750.441851	273.200000
2751.802273	303.800000
2753.165606	272.200000
2754.523996	255.000000
2755.885296	257.800000
2757.243225	280.000000
2758.604064	229.800000
2759.963102	266.400000
2761.318772	259.200000
2762.677350	246.200000
2764.032562	228.400000
2765.387544	262.800000
2766.740729	239.400000
2768.096821	247.000000
2769.449549	324.200000
2770.802048	223.200000
2772.154319	233.600000
2773.507929	219.000000
2774.858177	207.200000
2776.206632	225.400000
2777.557991	218.600000
2778.905991	243.600000
2780.255330	217.200000
2781.602876	235.200000
2782.950195	216.200000
2784.297288	238.800000
2785.642590	201.200000
2786.987666	214.400000
2788.332516	210.000000
2789.677140	208.000000
2791.018411	210.400000
2792.361021	215.400000
2793.703406	210.800000
2795.045565	215.000000
2796.384375	197.600000
2797.726085	204.000000
2799.064446	202.200000
2800.404145	226.400000
2801.742058	202.600000
2803.078187	205.400000
2804.414093	212.000000
2805.751335	214.000000
2807.086794	176.800000
2808.422030	218.600000
2809.755484	209.000000
2811.090274	227.600000
2812.421723	228.200000
2813.756068	209.400000
2815.085515	200.400000
2816.416299	220.800000
2817.746861	202.400000
2819.075644	231.400000
2820.405764	211.200000
2821.734104	192.000000
2823.062224	184.800000
2824.388567	217.200000
2825.716245	179.800000
2827.040591	186.200000
2828.366272	192.000000
2829.690179	194.600000
2831.013865	196.200000
2832.338887	201.000000
2833.660580	182.800000
2834.982053	190.400000
2836.303308	201.000000
2837.624344	214.400000
2838.943608	184.600000
2840.264207	200.600000
2841.583034	191.600000
2842.901643	197.400000
2844.218482	176.400000
2845.535103	177.200000
2846.851506	195.400000
2848.166141	169.200000
2849.482110	164.000000
2850.794759	184.600000
2852.108744	158.200000
2853.422512	219.400000
2854.736063	185.800000
2856.047847	202.800000
2857.357866	179.200000
2858.669219	173.400000
2859.977256	179.200000
2861.286629	202.000000
2862.595786	172.600000
2863.904728	188.400000
2865.211907	184.000000
2866.517322	184.200000
2867.824072	187.000000
2869.129059	169.400000
2870.433833	166.800000
2871.736845	196.600000
2873.042739	165.000000
2874.343777	190.600000
2875.646150	169.600000
2876.946763	186.600000
2878.248710	186.400000
2879.550444	208.600000
2880.848874	184.600000
2882.148637	212.400000
2883.446643	186.800000
2884.744437	192.000000
2886.040474	187.800000
2887.337845	181.800000
2888.633460	165.600000
2889.928865	190.200000
2891.224058	173.200000
2892.515953	199.400000
2893.810725	185.200000
2895.102200	190.200000
2896.395009	182.200000
2897.687607	188.400000
2898.976910	173.400000
2900.267546	165.000000
2901.556431	182.800000
2902.846649	188.000000
2904.133575	173.800000
2905.421833	202.600000
2906.708342	181.000000
2907.994642	166.800000
2909.280734	169.600000
2910.565078	174.200000
2911.852294	162.600000
2913.134683	181.600000
2914.418404	171.000000
2915.700378	186.000000
2916.982146	192.800000
2918.262168	201.400000
2919.545060	154.600000
2920.826207	180.800000
2922.104072	165.400000
2923.384806	176.800000
2924.662259	151.200000
2925.939507	183.000000
2927.215012	186.800000
2928.493385	194.600000
2929.766943	188.800000
2931.043369	165.200000
2932.318054	142.800000
2933.590999	164.400000
2934.865274	159.800000
2936.137810	174.400000
2937.410142	173.400000
2938.679201	184.200000
2939.951125	147.000000
2941.221310	149.400000
2942.491293	163.200000
2943.761072	180.800000
2945.029114	138.800000
2946.295421	169.000000
2947.561525	172.600000
2948.828960	165.000000
2950.094659	149.200000
2951.360156	192.800000
2952.625451	165.600000
2953.887482	169.800000
2955.150842	159.600000
2956.414001	174.800000
2957.675427	152.200000
2958.938183	174.600000
2960.199208	144.200000
2961.458502	164.200000
2962.717595	144.600000
2963.976488	150.200000
2965.235181	162.200000
2966.493674	138.600000
2967.750438	162.200000
2969.007002	147.400000
2970.261839	183.400000
2971.518005	156.400000
2972.770915	165.000000
2974.025155	138.000000
2975.279196	157.000000
2976.531511	162.800000
2977.783628	152.200000
2979.034020	168.400000
2980.287267	174.200000
2981.535737	164.400000
2982.787061	155.600000
2984.035137	158.200000
2985.283015	137.600000
2986.530696	159.200000
2987.778181	174.200000
2989.023944	160.600000
2990.269510	156.800000
2991.516405	176.200000
2992.760054	160.400000
2994.005032	155.400000
2995.246767	136.400000
2996.491353	131.800000
2997.734220	169.600000
2998.973845	176.400000
3000.216322	139.600000
3001.455558	148.400000
3002.696122	125.800000
3003.934969	200.400000
3005.173622	149.800000
3006.410559	140.400000
3007.648823	144.200000
3008.885373	132.800000
3010.121729	180.800000
3011.357891	135.000000
3012.592339	153.600000
3013.826594	154.200000
3015.060656	140.400000
3016.293006	159.600000
3017.523644	148.000000
3018.757128	169.800000
3019.988901	138.200000
3021.218962	147.200000
3022.448832	144.200000
3023.676992	134.800000
3024.906479	164.600000
3026.134256	142.600000
3027.361842	141.400000
3028.590754	143.000000
3029.814924	143.000000
3031.041937	170.600000
3032.265727	122.200000
3033.490842	152.800000
3034.714251	127.400000
3035.937471	181.200000
3037.158985	121.200000
3038.383340	149.800000
3039.602960	152.800000
3040.823906	163.200000
3042.044662	137.400000
3043.263715	141.000000
3044.484094	136.600000
3045.701256	158.800000
3046.919743	127.000000
3048.136529	152.200000
3049.353126	134.000000
3050.569536	121.200000
3051.782732	127.800000
3052.998766	139.000000
3054.211588	116.600000
3055.427247	139.800000
3056.638183	140.000000
3057.850445	151.800000
3059.062519	134.000000
3060.274407	135.200000
3061.484597	123.200000
3062.694602	124.800000
3063.904420	133.600000
3065.112542	100.200000
3066.320478	122.400000
3067.526720	154.200000
3068.734286	126.800000
3069.940157	137.100000
3071.145843	147.400000
3072.351344	132.400000
3073.555153	125.200000
3074.760285	123.800000
3075.963724	118.400000
3077.165471	141.200000
3078.367035	134.000000
3079.568415	139.200000
3080.769611	109.400000
3081.969117	126.200000
3083.168439	124.200000
3084.369085	132.600000
3085.568042	143.400000
3086.763803	133.000000
3087.962394	125.400000
3089.157791	153.800000
3090.354512	133.200000
3091.548040	125.200000
3092.744396	105.600000
3093.939065	147.600000
3095.130544	113.800000
3096.326354	116.600000
3097.517471	109.600000
3098.709910	128.600000
3099.899162	98.000000
3101.091240	151.400000
3102.281634	124.400000
3103.468841	97.800000
3104.657372	125.800000
3105.847225	124.200000
3107.033893	117.000000
3108.220382	144.000000
3109.406691	102.600000
3110.594323	119.400000
3111.778772	97.600000
3112.961541	147.800000
3114.147134	162.000000
3115.331046	116.200000
3116.513280	117.800000
3117.695336	123.200000
3118.877213	115.000000
3120.058912	118.600000
3121.238934	135.000000
3122.417278	117.200000
3123.598444	117.600000
3124.776434	129.800000
3125.954247	121.400000
3127.131883	142.000000
3128.307844	130.200000
3129.483629	134.000000
3130.660734	145.200000
3131.836166	120.400000
3133.009924	130.800000
3134.182009	141.600000
3135.355415	108.800000
3136.528646	124.600000
3137.700204	110.800000
3138.873084	125.000000
3140.042796	144.600000
3141.213829	110.000000
3142.383191	113.600000
3143.550884	124.200000
3144.721392	126.800000
3145.887241	108.600000
3147.057400	109.000000
3148.222901	131.600000
3149.388229	108.200000
3150.553383	115.000000
3151.718363	119.000000
3152.884664	131.000000
3154.046311	121.600000
3155.209279	148.400000
3156.372073	118.400000
3157.534695	111.200000
3158.695652	135.200000
3159.856436	129.800000
3161.017048	108.800000
3162.175997	127.600000
3163.334773	128.000000
3164.493378	148.800000
3165.651811	97.600000
3166.810072	126.600000
3167.966671	101.400000
3169.121609	132.600000
3170.277866	114.000000
3171.432463	112.000000
3172.586888	125.600000
3173.739654	147.400000
3174.892250	126.800000
3176.044676	129.800000
3177.196931	108.600000
3178.349017	117.800000
3179.497956	118.600000
3180.649702	115.200000
3181.799791	114.200000
3182.948222	137.800000
3184.096485	111.200000
3185.244579	121.600000
3186.392503	116.800000
3187.538773	137.000000
3188.684874	120.200000
3189.829321	115.000000
3190.973599	93.200000
3192.117710	116.800000
3193.263139	114.600000
3194.405429	119.200000
3195.547551	125.800000
3196.689507	143.600000
3197.831295	125.800000
3198.972916	120.800000
3200.111401	106.400000
3201.251205	112.800000
3202.392325	103.200000
3203.530311	128.800000
3204.666648	116.400000
3205.802819	116.400000
3206.940308	133.200000
3208.076148	106.200000
3209.213304	128.800000
3210.345848	119.600000
3211.482674	95.800000
3212.614888	139.600000
3213.748420	126.200000
3214.881786	136.400000
3216.012025	108.200000
3217.145062	107.200000
3218.274973	147.200000
3219.406201	151.800000
3220.534303	112.600000
3221.665203	119.600000
3222.794458	107.000000
3223.922069	127.200000
3225.046559	153.200000
3226.175324	120.000000
3227.300967	131.600000
3228.426447	115.400000
3229.550286	142.400000
3230.676920	143.000000
3231.798955	139.600000
3232.922307	160.000000
3234.045497	164.000000
3235.168525	211.400000
3236.289913	170.800000
3237.411140	185.400000
3238.530728	165.000000
3239.650155	200.800000
3240.767944	198.600000
3241.888526	193.200000
3243.005994	179.600000
3244.123301	192.600000
3245.240447	217.400000
3246.355958	177.400000
3247.472784	144.000000
3248.586499	164.800000
3249.703005	142.400000
3250.817875	158.800000
3251.929637	136.800000
3253.041240	114.000000
3254.154158	107.200000
3255.266916	113.200000
3256.376568	97.000000
3257.487535	123.800000
3258.598343	112.600000
3259.707519	110.000000
3260.815064	136.800000
3261.923924	97.600000
3263.032625	104.000000
3264.138224	96.200000
3265.245138	138.000000
3266.350422	190.800000
3267.457020	109.600000
3268.560518	123.800000
3269.665330	91.400000
3270.769985	98.000000
3271.871542	123.400000
3272.972942	111.200000
3274.075656	101.000000
3275.178213	128.600000
3276.277675	102.400000
3277.379919	95.000000
3278.479069	112.400000
3279.576593	106.600000
3280.673962	114.600000
3281.774114	99.600000
3282.871172	92.600000
3283.968076	114.400000
3285.064824	97.400000
3286.157013	107.200000
3287.253452	86.800000
3288.348268	114.000000
3289.442929	106.000000
3290.535969	99.800000
3291.628855	97.000000
3292.720120	98.000000
3293.812698	81.000000
3294.903656	109.800000
3295.992994	124.400000
3297.082179	79.200000
3298.172676	90.200000
3299.260089	113.800000
3300.347350	91.200000
3301.435923	101.800000
3302.524343	91.000000
3303.608216	87.200000
3304.696331	91.200000
3305.781365	103.800000
3306.864783	88.400000
3307.949513	82.400000
3309.032627	97.000000
3310.117053	95.600000
3311.198401	97.600000
3312.281061	130.800000
3313.362107	80.000000
3314.443002	84.800000
3315.522284	82.200000
3316.601415	88.200000
3317.681857	86.400000
3318.759226	95.400000
3319.837906	76.000000
3320.914974	96.000000
3321.991892	71.600000
3323.067200	88.800000
3324.142358	102.800000
3325.218827	84.600000
3326.292225	102.000000
3327.365475	102.200000
3328.440036	88.600000
3329.512987	88.200000
3330.584331	84.800000
3331.656985	70.200000
3332.726572	83.600000
3333.797470	93.000000
3334.866761	89.200000
3335.937363	113.600000
3337.006358	98.800000
3338.073747	97.400000
3339.139531	85.000000
3340.209541	100.400000
3341.276488	98.800000
3342.340373	136.600000
3343.407026	75.000000
3344.472075	85.800000
3345.535520	113.000000
3346.598818	77.000000
3347.661971	88.000000
3348.724977	70.000000
3349.787836	65.600000
3350.849094	78.400000
3351.907295	86.400000
3352.969717	86.000000
3354.029082	73.400000
3355.088303	117.800000
3356.148832	73.400000
3357.204852	99.200000
3358.263637	93.000000
3359.317914	92.600000
3360.374955	89.000000
3361.430397	83.200000
3362.487148	82.600000
3363.542302	51.000000
3364.595858	63.000000
3365.647817	73.800000
3366.702538	83.800000
3367.754211	72.400000
3368.805739	79.600000
3369.858577	77.400000
3370.908367	77.000000
3371.959466	101.600000
3373.007518	82.600000
3374.058331	83.400000
3375.106098	81.600000
3376.153723	59.000000
3377.201206	74.200000
3378.247095	104.000000
3379.294294	72.600000
3380.338449	73.200000
3381.385363	80.800000
3382.430685	89.800000
3383.472967	93.000000
3384.515107	64.400000
3385.558556	80.000000
3386.601863	80.200000
3387.643580	67.800000
3388.685156	95.400000
3389.726592	59.200000
3390.766439	76.000000
3391.804697	79.000000
3392.844263	84.600000
3393.883689	82.200000
3394.921527	80.600000
3395.957778	67.600000
3396.993889	89.000000
3398.031308	68.000000
3399.065694	77.400000
3400.101388	75.600000
3401.136942	80.200000
3402.169464	76.400000
3403.204740	74.400000
3404.236985	90.800000
3405.269092	84.200000
3406.299615	55.400000
3407.331446	85.800000
3408.363138	75.400000
3409.391802	93.400000
3410.420328	52.600000
3411.450162	62.800000
3412.479857	95.400000
3413.506527	104.400000
3414.534504	79.600000
3415.559456	98.000000
3416.587158	64.200000
3417.611837	85.000000
3418.637822	87.400000
3419.662227	75.800000
3420.686496	73.800000
3421.709186	89.200000
3422.731740	63.400000
3423.755600	130.800000
3424.776440	66.600000
3425.797145	66.200000
3426.819155	62.200000
3427.838147	108.000000
3428.857004	66.200000
3429.877166	92.000000
3430.894312	58.400000
