-117.734368	27.400000
-115.064768	43.600000
-112.398103	45.800000
-109.732190	49.800000
-107.069209	28.800000
-104.404799	42.600000
-101.743319	38.600000
-99.080409	79.200000
-96.422607	17.000000
-93.763375	36.800000
-91.104891	28.400000
-88.449331	55.400000
-85.792343	45.200000
-83.140453	68.800000
-80.487132	46.600000
-77.836732	54.200000
-75.184902	47.400000
-72.538163	50.000000
-69.889994	49.000000
-67.242569	32.000000
-64.598057	45.200000
-61.952117	44.600000
-59.311258	62.800000
-56.668970	55.600000
-54.029590	47.800000
-51.388782	65.000000
-48.748714	35.200000
-46.113718	46.200000
-43.477294	31.200000
-40.843772	63.400000
-38.208822	82.400000
-35.578937	49.200000
-32.945460	80.000000
-30.317045	75.400000
-27.689364	68.400000
-25.060254	80.600000
-22.436201	102.400000
-19.808559	130.000000
-17.185970	131.000000
-14.564113	166.400000
-11.942986	242.800000
-9.322589	530.000000
-6.705081	1585.600000
-4.086143	6059.000000
-1.470092	18580.400000
1.145231	30265.400000
3.759827	15439.600000
6.371540	3026.800000
8.984682	296.800000
11.592790	160.600000
14.204480	123.400000
16.811139	94.400000
19.419226	79.800000
22.026589	91.800000
24.628927	84.200000
27.234843	70.800000
29.835737	76.400000
32.438059	86.400000
35.035364	57.800000
37.636244	68.200000
40.232110	54.400000
42.829403	82.200000
45.425977	52.400000
48.017542	105.600000
50.610535	69.600000
53.200667	78.400000
55.792227	59.200000
58.380927	67.600000
60.971054	47.000000
63.556183	83.400000
66.142738	56.600000
68.728580	68.400000
71.311568	76.200000
73.895982	74.600000
76.473268	71.200000
79.054120	87.800000
81.632123	87.800000
84.209416	71.200000
86.788135	74.600000
89.361872	58.000000
91.937037	64.200000
94.509358	103.600000
97.080971	72.400000
99.649744	83.400000
102.219944	67.400000
104.787306	110.200000
107.356093	95.000000
109.922044	135.800000
112.485160	136.800000
115.051832	157.400000
117.609283	210.600000
120.172419	249.200000
122.730595	355.000000
125.292326	514.800000
127.849100	730.800000
130.407301	1112.200000
132.960549	1640.800000
135.513098	2354.600000
138.069198	3330.800000
140.620350	4425.400000
143.170805	5596.400000
145.720562	6548.400000
148.267501	7263.400000
150.813743	7713.600000
153.361411	7978.800000
155.908383	8255.000000
158.450420	8265.400000
160.991763	8261.200000
163.532413	8311.600000
166.074489	8268.600000
168.613753	8404.600000
171.150209	8318.200000
173.685973	8320.800000
176.223163	8313.400000
178.759662	8264.400000
181.293355	8367.600000
183.824245	8294.000000
186.354446	8307.400000
188.886072	8278.800000
191.414897	8416.400000
193.940923	8366.200000
196.466263	8440.400000
198.993029	8388.200000
201.516997	8408.200000
204.040281	8387.200000
206.562880	8377.400000
209.082686	8503.600000
211.601809	8485.800000
214.120249	8381.800000
216.640113	8516.600000
219.152976	8509.000000
221.669370	8627.400000
224.185082	8587.400000
226.695904	8637.600000
229.208152	8714.200000
231.717616	8791.400000
234.226402	8767.000000
236.734510	8941.000000
239.244041	8806.600000
241.748692	8803.600000
244.252667	8792.000000
246.758067	8788.200000
249.258591	8948.400000
251.762638	8899.400000
254.259714	8925.800000
256.760314	8910.600000
259.258142	8914.800000
261.755297	8971.000000
264.251779	8912.600000
266.743398	8994.800000
269.238537	8937.600000
271.730910	8914.000000
274.222612	9076.400000
276.711550	8984.200000
279.201913	9051.600000
281.689513	9086.000000
284.174354	9102.000000
286.662710	9117.000000
289.144126	9087.400000
291.629056	9153.800000
294.109141	9174.800000
296.592738	9250.400000
299.071492	9399.000000
301.551670	9396.200000
304.029095	9552.000000
306.505857	9473.200000
308.981956	9359.200000
311.455306	9265.200000
313.927994	9297.800000
316.400021	9306.200000
318.871387	9432.800000
321.340009	9431.400000
323.807971	9523.800000
326.277355	9419.200000
328.741917	9428.800000
331.209983	9389.200000
333.673229	9360.000000
336.135817	9415.000000
338.597749	9396.200000
341.059024	9422.000000
343.517565	9581.400000
345.977528	9402.000000
348.434758	9417.400000
350.891334	9425.600000
353.347256	9464.000000
355.800449	9528.000000
358.255063	9452.400000
360.704876	9513.200000
363.158185	9422.200000
365.606696	9418.600000
368.054556	9455.000000
370.503837	9270.400000
372.948325	9447.200000
375.394235	9465.400000
377.839496	9435.600000
380.282037	9593.400000
382.723931	9535.800000
385.165178	9506.800000
387.603709	9562.000000
390.043662	9590.000000
392.480901	9601.000000
394.915428	9529.800000
397.353443	9616.000000
399.786681	9560.000000
402.221341	9651.000000
404.651227	9692.000000
407.084599	9589.600000
409.513201	9666.400000
411.941162	9570.400000
414.370543	9564.600000
416.795159	9758.200000
419.221197	9635.600000
421.646594	9639.400000
424.071351	9727.600000
426.491350	9727.800000
428.912770	9864.600000
431.331493	9861.600000
433.751637	9864.800000
436.169086	9911.600000
438.587955	9886.600000
441.004131	9873.000000
443.415560	9938.800000
445.830465	9906.600000
448.242680	9955.600000
450.654261	10040.800000
453.065208	10080.800000
455.473469	10044.800000
457.881097	9982.600000
460.288093	9966.400000
462.694458	9984.800000
465.098140	10072.400000
467.501192	9998.000000
469.903614	10126.200000
472.305406	10123.400000
474.704521	10106.000000
477.105055	10077.600000
479.504960	10209.000000
481.900142	10309.800000
484.298791	10294.000000
486.692720	10205.600000
489.086023	10318.600000
491.478700	10290.400000
493.870752	10526.200000
496.264222	10458.200000
498.652981	10718.800000
501.039073	10886.800000
503.426584	11189.200000
505.813473	11754.400000
508.197698	12638.800000
510.583342	14204.000000
512.966323	17701.600000
515.346644	24973.800000
517.728384	37505.400000
520.107465	48388.600000
522.487965	46549.400000
524.865807	33879.600000
527.240994	21699.600000
529.615563	16510.400000
531.991551	14262.000000
534.364885	13306.800000
536.739637	12449.600000
539.109704	12106.800000
541.479155	11749.200000
543.850024	11511.800000
546.216213	11287.000000
548.583820	11294.200000
550.948781	11075.600000
553.313129	11070.800000
555.676865	10991.800000
558.042017	10994.200000
560.402498	10828.800000
562.764397	11023.400000
565.123655	10946.400000
567.480276	10884.400000
569.840341	10921.000000
572.193715	10872.800000
574.550534	10872.400000
576.904718	10860.400000
579.258294	10768.600000
581.611261	10696.000000
583.961597	10784.000000
586.313349	10785.800000
588.658425	10823.600000
591.008965	10756.600000
593.352831	10896.400000
595.702159	10927.600000
598.046839	10750.200000
600.388893	10935.600000
602.732365	10873.800000
605.073214	10812.000000
607.413461	10893.600000
609.751087	10958.400000
612.092148	10774.000000
614.428571	10845.000000
616.766411	10881.000000
619.101634	10825.000000
621.434241	10870.000000
623.768264	10847.400000
626.099674	10878.400000
628.430485	10874.800000
630.760698	10833.800000
633.090313	10870.200000
635.415306	10929.200000
637.745740	10942.200000
640.071552	11090.000000
642.394758	11033.200000
644.719379	11013.800000
647.041395	10969.800000
649.362818	10963.600000
651.681637	11054.200000
654.001872	11044.600000
656.321514	11022.000000
658.638555	11097.600000
660.955004	11191.200000
663.268855	11106.000000
665.584122	11066.400000
667.896792	11174.600000
670.210877	11202.800000
672.520362	11293.000000
674.831263	11161.000000
677.139571	11097.800000
679.447291	11229.000000
681.756425	11240.800000
684.060968	11244.400000
686.364923	11037.200000
688.668293	11137.000000
690.973077	11137.400000
693.273275	11173.400000
695.574887	11233.200000
697.875915	11119.200000
700.172360	11240.000000
702.470221	11220.600000
704.767498	11124.400000
707.064192	11111.000000
709.356310	11140.200000
711.651839	11104.800000
713.942794	11215.200000
716.235164	11205.800000
718.524959	11223.800000
720.814173	11187.800000
723.102808	11266.600000
725.388871	11334.200000
727.676347	11389.000000
729.961252	11266.200000
732.245580	11366.600000
734.527339	11550.400000
736.810512	11391.800000
739.093108	11436.800000
741.371148	11368.200000
743.650603	11483.600000
745.929482	11516.600000
748.207785	11605.600000
750.481539	11620.600000
752.756707	11622.400000
755.031301	11735.600000
757.303335	11549.200000
759.576783	11737.200000
761.847673	11723.400000
764.116007	11612.200000
766.385754	11783.400000
768.652947	11804.600000
770.919569	11890.400000
773.185621	11815.600000
775.449122	11737.800000
777.714036	11759.200000
779.978380	11843.000000
782.238195	11905.200000
784.499422	11906.400000
786.760082	11910.800000
789.018196	12035.200000
791.273765	12016.200000
793.532725	12136.000000
795.785186	12145.000000
798.043014	12044.000000
800.296322	12137.400000
802.547091	12222.800000
804.799272	12162.000000
807.048914	12210.800000
809.299969	12214.400000
811.546512	12158.400000
813.794467	12136.200000
816.039888	12314.000000
818.286720	12282.400000
820.532991	12317.600000
822.774758	12327.000000
825.019907	12371.800000
827.258584	12267.600000
829.500643	12286.000000
831.738204	12389.400000
833.977177	12377.000000
836.213623	12395.400000
838.451480	12376.600000
840.686812	12236.600000
842.919621	12505.000000
845.153841	12551.400000
847.385539	12517.600000
849.616681	12485.400000
851.847270	12516.800000
854.077303	12632.400000
856.306783	12602.800000
858.531781	12629.200000
860.760154	12617.800000
862.984048	12613.000000
865.209352	12524.600000
867.430181	12624.400000
869.654382	12578.400000
871.874110	12447.000000
874.095249	12496.800000
876.315837	12596.000000
878.533915	12556.000000
880.753403	12592.800000
882.968425	12570.000000
885.182900	12528.200000
887.396826	12545.000000
889.610206	12498.000000
891.823038	12536.200000
894.035324	12523.600000
896.245107	12653.200000
898.454345	12513.600000
900.663038	12535.200000
902.869232	12565.600000
905.076835	12615.200000
907.281940	12662.000000
909.486502	12698.800000
911.688569	12772.200000
913.892045	12822.800000
916.093027	12816.200000
918.293468	12965.200000
920.495316	12821.600000
922.690774	12939.800000
924.889591	13088.000000
927.083969	13076.400000
929.281705	13003.200000
931.475005	13168.600000
933.669714	13415.800000
935.861937	13504.000000
938.053622	13781.600000
940.244769	13862.600000
942.433432	13939.800000
944.621560	14045.400000
946.807207	13730.600000
948.996206	14044.600000
951.180782	13881.600000
953.364823	14011.800000
955.552214	13890.400000
957.731301	13972.600000
959.913739	14043.000000
962.095643	14013.000000
964.275073	14163.800000
966.452029	14188.000000
968.630394	14284.800000
970.810166	14345.000000
972.983589	14357.600000
975.160358	14398.200000
977.332720	14399.000000
979.506490	14348.800000
981.675856	14259.800000
983.848566	14362.200000
986.018811	14431.800000
988.188527	14231.000000
990.357714	14089.000000
992.522504	14088.000000
994.690635	14150.400000
996.854372	13949.800000
999.019515	13938.600000
1001.182199	13883.400000
1003.344358	13860.200000
1005.504060	14098.000000
1007.663238	13806.800000
1009.823822	13773.200000
1011.981951	13800.000000
1014.139556	13878.800000
1016.296638	13661.000000
1018.453197	13601.000000
1020.605376	13607.600000
1022.758961	13516.000000
1024.912025	13571.200000
1027.062641	13495.400000
1029.214662	13534.400000
1031.362310	13521.400000
1033.513290	13527.800000
1035.659899	13358.200000
1037.805989	13477.200000
1039.951561	13523.200000
1042.098538	13412.200000
1044.239226	13443.000000
1046.383244	13459.000000
1048.524821	13456.000000
1050.665882	13438.800000
1052.808347	13354.800000
1054.944533	13402.600000
1057.084045	13412.400000
1059.219201	13267.200000
1061.357682	13364.200000
1063.491809	13289.000000
1065.625423	13398.400000
1067.760442	13315.200000
1069.891111	13466.000000
1072.023185	13383.800000
1074.152830	13484.800000
1076.281963	13494.400000
1078.410584	13530.000000
1080.538694	13416.400000
1082.664378	13560.800000
1084.789552	13618.600000
1086.916130	13622.000000
1089.038370	13717.600000
1091.162015	13576.000000
1093.281326	13735.400000
1095.405865	13654.800000
1097.524159	13567.000000
1099.643858	13883.600000
1101.761138	13834.200000
1103.877912	13806.200000
1105.994179	13996.000000
1108.108030	13951.000000
1110.223286	13975.400000
1112.334218	14145.800000
1114.448463	14020.200000
1116.558387	14082.400000
1118.669715	14039.800000
1120.780538	14020.600000
1122.887045	14061.600000
1124.996862	14054.400000
1127.102364	14090.000000
1129.209269	14192.600000
1131.309959	14104.600000
1133.415861	14121.400000
1135.517454	14064.400000
1137.620450	14082.400000
1139.722945	14023.800000
1141.819233	13976.600000
1143.920729	13942.200000
1146.017921	13970.800000
1148.114616	13908.600000
1150.210812	14075.800000
1152.306511	13957.600000
1154.401711	14018.200000
1156.494516	14075.200000
1158.588722	14082.000000
1160.676737	14119.600000
1162.769950	14213.600000
1164.856975	14000.400000
1166.947299	13988.600000
1169.033336	14238.400000
1171.122670	14214.000000
1173.205823	14091.400000
1175.290378	14254.400000
1177.376335	14161.000000
1179.458010	14180.000000
1181.541087	14305.000000
1183.621778	14297.200000
1185.701977	14276.400000
1187.781685	14236.800000
1189.860902	14336.200000
1191.937737	14393.600000
1194.012191	14296.800000
1196.089936	14185.400000
1198.163412	14120.400000
1200.238288	14323.000000
1202.308897	14267.800000
1204.380908	14369.400000
1206.450542	14465.000000
1208.521577	14287.000000
1210.592124	14335.600000
1212.658410	14430.400000
1214.726097	14516.800000
1216.791412	14551.800000
1218.858127	14591.200000
1220.920586	14503.000000
1222.986330	14437.800000
1225.047821	14576.800000
1227.110711	14582.600000
1229.171234	14586.800000
1231.231273	14697.200000
1233.290830	14583.200000
1235.348021	14822.600000
1237.404731	14709.400000
1239.459078	14691.600000
1241.516705	14741.800000
1243.571970	14830.400000
1245.622994	14682.800000
1247.675418	14781.200000
1249.727362	14630.400000
1251.776948	14815.600000
1253.826055	14815.400000
1255.874684	14829.400000
1257.922834	14768.400000
1259.970505	14821.800000
1262.013947	14781.200000
1264.060663	14711.600000
1266.105026	14789.600000
1268.148913	14772.000000
1270.190448	14837.800000
1272.229634	14750.800000
1274.272093	14899.200000
1276.310329	14995.600000
1278.349964	14804.400000
1280.389124	14890.200000
1282.424065	14858.400000
1284.460405	14810.400000
1286.494401	14917.000000
1288.529795	14863.800000
1290.560975	14929.000000
1292.593553	14890.600000
1294.625660	14942.600000
1296.655426	14939.200000
1298.686590	15014.000000
1300.713546	15069.000000
1302.741900	14973.800000
1304.766050	15050.400000
1306.793464	14983.600000
1308.816676	15049.600000
1310.841286	15024.800000
1312.863562	15154.400000
1314.887235	15023.600000
1316.908575	14982.400000
1318.929447	15123.400000
1320.949852	15143.800000
1322.966064	15230.600000
1324.983673	15035.800000
1326.998954	15045.800000
1329.017494	15088.800000
1331.031845	15041.800000
1333.043870	15130.600000
1335.059152	15084.400000
1337.070249	14970.000000
1339.082743	14895.000000
1341.091054	15116.600000
1343.102621	14935.200000
1345.108148	14936.000000
1347.116931	14948.800000
1349.121536	15012.000000
1351.129395	14918.800000
1353.136792	15030.600000
1355.138158	14943.400000
1357.140921	15069.200000
1359.143223	15003.400000
1361.145066	14919.200000
1363.146449	15070.800000
1365.145519	15006.200000
1367.144130	14917.600000
1369.142283	14869.600000
1371.139977	14959.800000
1373.133509	14941.000000
1375.128437	15040.600000
1377.122907	14930.000000
1379.116922	15045.000000
1381.108628	15147.400000
1383.099880	15047.400000
1385.088826	14985.400000
1387.079167	15067.800000
1389.069053	15033.000000
1391.056636	15201.200000
1393.043764	15098.000000
1395.028591	15193.400000
1397.014813	15113.400000
1398.998735	15096.800000
1400.982204	15288.800000
1402.965220	15287.400000
1404.945939	15306.200000
1406.928052	15323.000000
1408.907869	15247.200000
1410.887234	15253.400000
1412.862461	15236.000000
1414.840927	15114.200000
1416.817098	15304.200000
1418.792821	15334.000000
1420.768094	15083.800000
1422.741076	15167.400000
1424.713610	15252.800000
1426.685696	15128.400000
1428.657335	15089.200000
1430.624845	15229.800000
1432.597429	15244.400000
1434.562208	15311.200000
1436.532058	15238.600000
1438.497785	15348.600000
1440.464904	15379.000000
1442.429740	15310.200000
1444.390456	15364.600000
1446.356241	15422.600000
1448.316070	15279.000000
1450.277292	15396.400000
1452.239907	15501.800000
1454.198407	15519.400000
1456.156464	15383.800000
1458.114080	15481.200000
1460.071254	15261.200000
1462.026152	15531.800000
1463.982442	15458.400000
1465.936458	15424.200000
1467.890034	15459.600000
1469.841337	15586.000000
1471.794032	15581.000000
1473.744456	15340.800000
1475.694440	15294.800000
1477.643986	15478.600000
1479.591263	15359.600000
1481.536273	15331.200000
1483.482674	15437.000000
1485.428638	15288.600000
1487.374165	15448.400000
1489.317427	15241.800000
1491.260252	15465.600000
1493.200814	15147.200000
1495.142767	15273.200000
1497.082458	15314.600000
1499.021715	15196.600000
1500.960536	15273.600000
1502.897098	15240.600000
1504.835051	15429.400000
1506.770745	15231.200000
1508.706006	15198.800000
1510.639011	15089.400000
1512.571583	15290.200000
1514.503723	15295.600000
1516.435431	15199.000000
1518.364885	15345.200000
1520.295730	15316.600000
1522.226143	15348.800000
1524.152484	15272.600000
1526.080216	15335.600000
1528.005697	15347.200000
1529.930749	15264.000000
1531.855372	15266.200000
1533.779566	15329.400000
1535.701512	15443.000000
1537.624849	15226.200000
1539.545940	15560.800000
1541.464786	15475.400000
1543.385021	15509.000000
1545.303014	15417.200000
1547.220580	15500.200000
1549.135904	15554.000000
1551.052618	15534.000000
1552.965277	15450.000000
1554.881140	15469.200000
1556.794763	15647.200000
1558.706149	15484.200000
1560.618923	15491.400000
1562.527648	15405.600000
1564.437762	15462.600000
1566.347453	15371.200000
1568.256721	15525.400000
1570.163755	15556.200000
1572.068556	15489.000000
1573.974746	15577.200000
1575.878704	15493.000000
1577.782241	15493.200000
1579.685358	15362.800000
1581.586245	15627.600000
1583.488521	15578.000000
1585.388569	15490.200000
1587.290004	15498.400000
1589.187406	15464.600000
1591.084389	15618.200000
1592.980954	15473.800000
1594.878907	15495.800000
1596.771025	15594.600000
1598.666336	15429.600000
1600.561230	15664.000000
1602.453902	15517.800000
1604.346158	15604.600000
1606.236193	15686.800000
1608.125814	15754.000000
1610.015018	15597.800000
1611.903808	15713.800000
1613.790380	15610.600000
1615.678340	15547.200000
1617.562283	15509.600000
1619.447614	15531.600000
1621.332530	15435.600000
1623.215233	15404.400000
1625.099323	15394.800000
1626.979402	15334.800000
1628.860867	15395.200000
1630.740122	15509.600000
1632.620763	15557.200000
1634.495600	15683.200000
1636.375418	15621.200000
1638.251232	15691.000000
1640.126635	15643.400000
1642.003424	15647.200000
1643.874417	15686.400000
1645.748591	15453.600000
1647.618767	15518.000000
1649.492123	15458.400000
1651.363276	15448.000000
1653.232227	15473.200000
1655.102564	15445.400000
1656.968907	15304.400000
1658.836636	15461.800000
1660.702166	15371.600000
1662.569082	15277.200000
1664.432009	15308.600000
1666.296321	15215.600000
1668.158437	15409.800000
1670.020149	15126.800000
1671.883245	15172.600000
1673.744147	15111.200000
1675.602855	15113.400000
1677.461160	15056.000000
1679.320850	15146.400000
1681.174772	15066.200000
1683.031868	15041.800000
1684.888561	15107.400000
1686.741278	15057.200000
1688.597165	15155.600000
1690.449079	15032.200000
1692.300592	15080.800000
1694.151704	14810.600000
1696.002416	14973.400000
1697.852727	15047.800000
1699.700853	15131.400000
1701.550364	14986.000000
1703.394126	14972.400000
1705.242837	15046.200000
1707.085802	15012.000000
1708.931934	15048.800000
1710.774103	14996.600000
1712.619438	15259.200000
1714.459032	15149.000000
1716.300010	15136.000000
1718.142371	15230.200000
1719.980776	15148.200000
1721.820564	15214.000000
1723.658177	15058.400000
1725.495394	15051.800000
1727.330438	15226.400000
1729.166865	15141.800000
1731.001120	15137.400000
1732.834980	15017.600000
1734.668447	15081.600000
1736.497967	14965.200000
1738.330646	14906.000000
1740.159381	14902.000000
1741.991273	14901.200000
1743.819224	15137.400000
1745.646782	14955.000000
1747.473948	14939.200000
1749.300723	14919.000000
1751.127107	14958.000000
1752.949553	15046.600000
1754.775155	14864.200000
1756.596822	14901.600000
1758.419871	14857.400000
1760.240758	14792.600000
1762.061257	14893.200000
1763.883137	14799.600000
1765.699317	14904.800000
1767.518649	14855.400000
1769.334054	14849.800000
1771.152609	14831.000000
1772.967239	14938.000000
1774.781483	15024.000000
1776.595339	14885.800000
1778.408809	15009.400000
1780.220126	14904.000000
1782.032824	15017.800000
1783.845135	15004.600000
1785.653529	14855.200000
1787.463303	14936.000000
1789.269163	14849.400000
1791.078168	14965.800000
1792.883260	14929.600000
1794.689733	14940.800000
1796.495822	14694.600000
1798.298001	14826.400000
1800.103323	14866.200000
1801.904737	14796.000000
1803.707531	14881.600000
1805.506419	14934.600000
1807.306688	15054.400000
1809.106575	14866.200000
1810.904321	14964.400000
1812.701685	14949.400000
1814.498670	14827.200000
1816.295274	14916.400000
1818.089739	14876.800000
1819.885583	14923.600000
1821.675773	14923.800000
1823.470858	14964.000000
1825.260292	14933.000000
1827.052862	14866.600000
1828.843297	14805.400000
1830.631598	14859.000000
1832.423034	15021.800000
1834.208824	14758.600000
1835.995994	14924.600000
1837.781032	14948.800000
1839.569204	14903.200000
1841.353490	14896.600000
1843.135647	15027.800000
1844.919182	14960.000000
1846.700589	14877.800000
1848.483375	14907.800000
1850.262280	15042.000000
1852.042565	14885.400000
1853.820723	15030.000000
1855.600260	14854.800000
1857.377672	14932.000000
1859.152960	14839.600000
1860.929626	14935.200000
1862.704170	14875.600000
1864.480092	14870.800000
1866.250393	14906.000000
1868.023822	14941.200000
1869.795131	14846.800000
1871.566070	14775.800000
1873.338385	14989.200000
1875.105087	14903.800000
1876.874915	14892.600000
1878.640879	14830.000000
1880.409966	14837.200000
1882.175193	14914.400000
1883.940050	14904.800000
1885.706285	14818.600000
1887.468661	14885.600000
1889.230670	14784.600000
1890.992311	14766.000000
1892.753586	14682.400000
1894.514493	14784.400000
1896.275034	14686.800000
1898.033465	14858.000000
1899.791530	14596.600000
1901.547488	14776.400000
1903.304822	14819.000000
1905.061791	14608.000000
1906.816653	14820.200000
1908.569411	14742.800000
1910.321805	14711.600000
1912.075574	14660.000000
1913.827240	14677.600000
1915.576804	14687.600000
1917.327743	14640.200000
1919.078320	14543.000000
1920.825057	14779.200000
1922.573171	14735.600000
1924.319185	14690.400000
1926.066575	14757.200000
1927.811866	14610.800000
1929.555060	14636.600000
1931.299629	14563.400000
1933.042103	14639.000000
1934.784216	14688.200000
1936.525969	14632.800000
1938.267363	14693.600000
1940.006662	14826.000000
1941.745603	14704.800000
1943.484185	14807.800000
1945.220676	14710.800000
1946.956809	14786.700000
1948.694316	14862.600000
1950.428001	14796.200000
1952.163061	14695.000000
1953.896033	14900.400000
1955.628647	14781.200000
1957.360906	14740.600000
1959.092808	14746.200000
1960.822624	14801.000000
1962.550355	14782.000000
1964.279461	14795.200000
1966.008212	14765.000000
1967.734879	14793.800000
1969.461192	14882.000000
1971.188878	14933.400000
1972.911028	14888.200000
1974.636279	14880.600000
1976.357724	14911.200000
1978.082268	14919.400000
1979.804733	14936.600000
1981.523394	15052.600000
1983.245154	15057.000000
1984.963112	15031.800000
1986.682443	14866.600000
1988.397975	15050.600000
1990.118327	15011.800000
1991.834881	15005.400000
1993.547638	15035.600000
1995.263492	15033.600000
1996.977272	15018.400000
1998.690703	15099.000000
2000.402063	15050.000000
2002.114795	15107.400000
2003.823737	15032.600000
2005.535772	15080.600000
2007.242297	15202.200000
2008.951914	14964.400000
2010.659465	15149.400000
2012.366668	15189.400000
2014.071804	15068.400000
2015.776595	14973.200000
2017.482757	15119.800000
2019.185137	15201.800000
2020.888889	15013.800000
2022.590577	14989.200000
2024.291921	15042.200000
2025.992919	15032.000000
2027.691856	15005.000000
2029.392165	15070.000000
2031.088699	15066.400000
2032.786604	15038.600000
2034.482450	15062.800000
2036.181382	15105.000000
2037.874828	14970.600000
2039.569645	15037.000000
2041.264120	15109.000000
2042.954826	15068.600000
2044.648616	15063.800000
2046.338639	15055.000000
2048.030033	15002.200000
2049.719374	15068.800000
2051.410085	14867.800000
2053.097033	14883.800000
2054.783642	14859.000000
2056.471621	14946.200000
2058.155839	14865.600000
2059.841429	14795.800000
2061.526679	14897.000000
2063.209881	14707.400000
2064.894452	14728.400000
2066.573561	14641.400000
2068.257455	14682.200000
2069.935889	14653.200000
2071.617399	14581.400000
2073.295159	14665.400000
2074.972581	14759.400000
2076.651373	14608.200000
2078.328123	14683.400000
2080.002831	14696.400000
2081.678908	14719.800000
2083.352945	14634.400000
2085.026646	14674.600000
2086.700012	14783.400000
2088.371340	14631.400000
2090.042333	14557.200000
2091.712992	14642.400000
2093.383316	14580.800000
2095.053307	14666.000000
2096.721262	14637.200000
2098.388884	14642.600000
2100.054471	14510.600000
2101.721427	14710.000000
2103.386350	14716.400000
2105.050941	14733.800000
2106.713500	14796.400000
2108.377427	14741.000000
2110.039324	14642.800000
2111.700889	14757.600000
2113.362123	14767.600000
2115.021329	14760.200000
2116.680204	14796.600000
2118.338750	14859.400000
2119.996966	14805.800000
2121.651458	14859.200000
2123.309015	14763.600000
2124.966243	14874.800000
2126.619749	14696.600000
2128.274623	14778.000000
2129.925779	14899.400000
2131.579996	14820.200000
2133.230497	14735.200000
2134.882364	14858.000000
2136.528823	14726.200000
2138.180037	14638.200000
2139.827537	14739.400000
2141.476404	14716.600000
2143.123253	14612.000000
2144.769775	14627.200000
2146.415972	14841.800000
2148.058461	14697.000000
2149.704008	14805.800000
2151.345848	14728.800000
2152.990745	14808.200000
2154.631937	14720.800000
2156.272805	14683.200000
2157.913349	14804.800000
2159.551881	14631.000000
2161.191779	14731.600000
2162.827977	14667.000000
2164.465542	14686.600000
2166.102783	14559.400000
2167.738015	14608.200000
2169.372926	14519.200000
2171.007515	14594.000000
2172.641782	14646.800000
2174.272356	14552.400000
2175.905982	14523.000000
2177.535916	14572.200000
2179.167215	14485.000000
2180.796509	14478.800000
2182.425484	14574.800000
2184.054139	14688.400000
2185.682475	14625.000000
2187.308809	14654.000000
2188.934824	14580.400000
2190.558838	14602.400000
2192.184216	14575.600000
2193.807595	14586.000000
2195.432337	14476.200000
2197.053399	14585.400000
2198.674144	14517.000000
2200.296254	14435.400000
2201.916366	14617.400000
2203.534481	14447.800000
2205.152281	14392.200000
2206.769766	14317.600000
2208.386935	14537.800000
2210.003789	14463.000000
2211.620327	14426.200000
2213.234873	14447.200000
2214.847426	14413.400000
2216.461343	14456.800000
2218.073269	14209.800000
2219.686558	14367.600000
2221.297857	14437.800000
2222.907166	14355.000000
2224.517839	14348.000000
2226.126523	14303.600000
2227.734894	14172.000000
2229.341279	14183.400000
2230.949027	14201.400000
2232.554788	14335.200000
2234.160238	14287.800000
2235.763703	14298.600000
2237.368531	14266.800000
2238.971375	14263.000000
2240.572237	14300.800000
2242.174460	14255.200000
2243.774702	14256.000000
2245.376306	14257.800000
2246.974258	14304.200000
2248.573572	14390.400000
2250.170906	14373.200000
2251.767931	14296.800000
2253.366319	14431.400000
2254.961058	14303.600000
2256.553820	14442.600000
2258.147945	14339.800000
2259.743431	14396.800000
2261.335273	14330.000000
2262.926808	14339.800000
2264.519704	14325.600000
2266.107291	14327.800000
2267.699575	14264.200000
2269.286551	14362.800000
2270.876555	14349.800000
2272.461256	14335.200000
2274.050649	14414.200000
2275.634741	14190.600000
2277.220194	14280.600000
2278.803677	14220.200000
2280.390187	14205.200000
2281.973062	14135.000000
2283.555635	14047.400000
2285.137904	14005.000000
2286.716544	14141.600000
2288.298207	13951.800000
2289.876242	13982.600000
2291.457300	13953.000000
2293.034731	13917.900000
2294.610199	13882.800000
2296.188689	13932.800000
2297.763555	13990.800000
2299.338120	13912.600000
2300.912385	14017.000000
2302.486349	13906.600000
2304.060013	14028.400000
2305.633376	13842.200000
2307.203121	13889.000000
2308.772567	13933.200000
2310.345031	13899.600000
2311.912221	13812.400000
2313.482429	13912.000000
2315.049022	13898.800000
2316.616975	13947.600000
2318.182972	13910.600000
2319.748672	13935.000000
2321.314075	13956.000000
2322.877523	13872.400000
2324.442331	13991.000000
2326.003531	13992.200000
2327.567745	13934.200000
2329.126697	13967.400000
2330.688664	14030.800000
2332.248680	14050.600000
2333.808400	13993.200000
2335.366171	14071.000000
2336.923647	14043.200000
2338.480829	14030.600000
2340.036063	14031.000000
2341.591004	14075.600000
2343.145651	13971.800000
2344.700003	14149.000000
2346.254063	14054.000000
2347.807828	13997.600000
2349.359650	14101.400000
2350.909528	14143.600000
2352.462414	14156.000000
2354.010058	14189.800000
2355.560709	14053.400000
2357.107769	14136.600000
2358.656187	13928.600000
2360.204314	14029.400000
2361.748852	13978.400000
2363.294748	13968.800000
2364.838706	13975.600000
2366.384021	13898.800000
2367.925751	14002.400000
2369.468838	13951.800000
2371.009989	13863.600000
2372.550852	13959.000000
2374.091424	14016.200000
2375.631708	13978.800000
2377.171703	14103.000000
2378.708120	13999.200000
2380.247538	13936.600000
2381.783379	14095.800000
2383.320576	13988.600000
2384.854198	13934.800000
2386.390821	13997.000000
2387.925512	13941.200000
2389.458274	13872.400000
2390.990749	13913.000000
2392.521296	13921.000000
2394.054841	13939.600000
2395.583175	13990.000000
2397.112866	13918.600000
2398.642271	13932.000000
2400.171390	13876.000000
2401.700225	13918.600000
2403.223854	13837.000000
2404.752120	13929.400000
2406.275182	13944.200000
2407.802878	13949.000000
2409.323735	13876.800000
2410.849225	13879.000000
2412.371154	13886.200000
2413.894439	13900.400000
2415.415803	13918.000000
2416.935247	13943.600000
2418.456046	13875.400000
2419.974926	13976.200000
2421.493524	13855.800000
2423.010205	13789.000000
2424.528240	13917.600000
2426.045994	13788.400000
2427.560197	13889.200000
2429.074119	13891.200000
2430.587761	13886.000000
2432.102758	13922.600000
2433.614206	13787.600000
2435.127009	13837.800000
2436.637898	13895.800000
2438.148509	13782.000000
2439.657208	13825.200000
2441.168893	13751.800000
2442.677035	13744.200000
2444.184899	13797.800000
2445.692485	13701.200000
2447.196530	13835.400000
2448.703561	13713.000000
2450.208683	13768.800000
2451.713528	13887.400000
2453.216465	13834.800000
2454.719127	13655.000000
2456.221512	13719.800000
2457.721992	13574.200000
2459.223825	13484.400000
2460.723753	13413.000000
2462.223407	13502.200000
2463.722784	13440.400000
2465.220259	13504.800000
2466.715832	13500.800000
2468.214385	13438.400000
2469.709410	13368.800000
2471.205787	13434.200000
2472.698638	13382.200000
2474.192842	13295.800000
2475.686772	13369.400000
2477.177178	13189.200000
2478.670562	13331.800000
2480.162048	13294.600000
2481.651637	13273.200000
2483.140954	13135.400000
2484.628376	13350.800000
2486.118773	13367.600000
2487.605651	13342.200000
2489.093881	13217.800000
2490.578595	13346.600000
2492.063038	13306.800000
2493.548833	13134.800000
2495.032735	13244.200000
2496.517989	13193.600000
2497.998108	13267.600000
2499.481201	13279.400000
2500.962403	13217.000000
2502.443336	13322.800000
2503.922380	13415.200000
2505.401155	13242.200000
2506.879662	13245.200000
2508.357901	13240.800000
2509.835871	13350.400000
2511.310336	13217.200000
2512.787771	13226.200000
2514.261702	13388.800000
2515.736983	13392.600000
2517.211998	13338.200000
2518.683511	13273.400000
2520.156374	13467.600000
2521.627355	13404.800000
2523.099686	13432.600000
2524.566904	13525.200000
2526.037087	13391.000000
2527.505390	13419.000000
2528.973428	13391.200000
2530.441201	13349.800000
2531.908709	13267.600000
2533.375952	13397.600000
2534.839703	13340.400000
2536.304804	13375.600000
2537.768028	13402.800000
2539.232602	13486.200000
2540.693686	13403.200000
2542.156120	13268.800000
2543.618291	13452.000000
2545.076976	13395.200000
2546.540233	13418.400000
2547.998393	13475.200000
2549.457902	13627.200000
2550.912317	13388.400000
2552.371303	13512.600000
2553.828417	13432.000000
2555.283660	13639.200000
2556.738642	13450.600000
2558.191754	13482.200000
2559.646215	13474.200000
2561.098807	13418.400000
2562.551139	13583.400000
2564.001603	13452.200000
2565.455023	13545.800000
2566.903361	13264.600000
2568.354655	13515.400000
2569.804082	13452.800000
2571.250037	13457.200000
2572.698947	13541.600000
2574.144387	13449.400000
2575.591175	13392.200000
2577.036099	13338.200000
2578.480765	13421.200000
2579.926780	13340.200000
2581.369327	13338.400000
2582.813222	13266.200000
2584.253652	13260.200000
2585.695429	13202.200000
2587.135347	13193.600000
2588.576612	13183.000000
2590.014416	13210.200000
2591.455169	13312.400000
2592.890859	13161.400000
2594.329499	13179.800000
2595.766281	13233.600000
2597.201208	13211.200000
2598.639082	13124.800000
2600.071899	13161.400000
2601.506063	13069.000000
2602.938373	13201.200000
2604.372029	13038.200000
2605.803832	13045.200000
2607.235381	13082.600000
2608.666678	12972.400000
2610.096122	13159.400000
2611.525314	12970.600000
2612.952656	12957.400000
2614.381343	12959.200000
2615.809779	13004.000000
2617.234767	13046.800000
2618.661102	12959.000000
2620.085588	12984.600000
2621.511420	12907.600000
2622.933808	12943.800000
2624.357542	12960.000000
2625.779429	12881.800000
2627.201067	12961.600000
2628.620859	12801.600000
2630.041997	12989.000000
2631.462885	12805.600000
2632.880335	12899.000000
2634.300724	12992.600000
2635.717676	12717.600000
2637.134379	12987.200000
2638.550835	12835.400000
2639.967041	12888.000000
2641.383000	12820.200000
2642.797118	12848.600000
2644.210989	12956.200000
2645.623020	12678.800000
2647.036396	12793.800000
2648.446342	12898.400000
2649.859223	12861.000000
2651.268676	12838.000000
2652.677883	12874.000000
2654.085254	12712.200000
2655.495560	12815.800000
2656.904029	12734.400000
2658.310663	12687.400000
2659.717052	12565.800000
2661.121607	12740.400000
2662.527506	12709.000000
2663.931572	12669.000000
2665.335393	12687.800000
2666.738971	12570.800000
2668.140716	12620.000000
2669.543805	12812.800000
2670.943476	12698.600000
2672.344491	12756.200000
2673.742090	12722.200000
2675.142619	12781.000000
2676.539733	12684.000000
2677.938190	12625.200000
2679.334819	12712.800000
2680.731206	12594.600000
2682.127352	12600.400000
2683.521671	12452.800000
2684.917332	12608.200000
2686.309585	12517.400000
2687.703180	12514.200000
2689.094951	12669.200000
2690.488065	12563.000000
2691.879355	12390.800000
2693.268822	12529.000000
2694.658049	12364.000000
2696.047037	12504.400000
2697.437367	12435.000000
2698.822712	12499.600000
2700.210981	12493.000000
2701.597430	12366.400000
2702.983640	12287.400000
2704.369612	12362.800000
2705.752184	12476.400000
2707.136099	12363.600000
2708.519776	12347.400000
2709.903215	12392.000000
2711.283258	12277.400000
2712.664643	12413.800000
2714.044212	12430.000000
2715.425123	12216.600000
2716.804218	12363.000000
2718.181500	12289.600000
2719.560123	12355.800000
2720.936933	12219.000000
2722.313507	12275.800000
2723.689845	12344.800000
2725.064371	12263.000000
2726.440238	12238.200000
2727.812718	12198.000000
2729.188114	12311.800000
2730.558550	12195.800000
2731.930327	12173.600000
2733.301869	12249.800000
2734.671603	12204.000000
2736.042678	12308.000000
2737.411944	12194.800000
2738.780977	12156.600000
2740.148204	12213.000000
2741.515198	12216.600000
2742.881959	12171.800000
2744.248487	12076.000000
2745.613210	12170.200000
2746.977702	12265.200000
2748.341961	12168.600000
2749.705988	12126.400000
2751.069784	12229.400000
2752.430206	12193.000000
2753.793539	12110.800000
2755.151929	12176.000000
2756.513229	12010.200000
2757.871158	12065.200000
2759.231996	11961.000000
2760.591035	11914.800000
2761.946705	11978.200000
2763.305283	11908.800000
2764.660494	11854.400000
2766.015476	11694.000000
2767.368662	11759.600000
2768.724754	11825.400000
2770.077481	12069.600000
2771.429981	11814.600000
2772.782252	11843.800000
2774.135862	11781.800000
2775.486110	11711.800000
2776.834565	11774.600000
2778.185924	11680.400000
2779.533924	11754.200000
2780.883262	11689.600000
2782.230809	11730.000000
2783.578128	11770.600000
2784.925221	11696.600000
2786.270523	11631.400000
2787.615599	11673.600000
2788.960448	11616.000000
2790.305072	11594.600000
2791.646344	11536.000000
2792.988954	11675.800000
2794.331338	11712.200000
2795.673498	11634.600000
2797.012308	11577.400000
2798.354017	11743.800000
2799.692379	11529.800000
2801.032078	11615.800000
2802.369991	11633.000000
2803.706120	11583.800000
2805.042025	11677.800000
2806.379268	11549.200000
2807.714727	11617.600000
2809.049963	11619.200000
2810.383416	11657.200000
2811.718207	11648.400000
2813.049656	11635.800000
2814.384001	11619.400000
2815.713448	11567.600000
2817.044232	11764.200000
2818.374794	11582.400000
2819.703577	11608.000000
2821.033696	11669.800000
2822.362037	11603.800000
2823.690157	11633.000000
2825.016499	11629.000000
2826.344178	11679.400000
2827.668523	11704.400000
2828.994205	11620.600000
2830.318111	11562.400000
2831.641798	11674.200000
2832.966820	11627.600000
2834.288512	11647.000000
2835.609986	11541.000000
2836.931241	11555.200000
2838.252277	11624.200000
2839.571541	11549.000000
2840.892140	11652.000000
2842.210967	11397.600000
2843.529576	11540.200000
2844.846414	11376.200000
2846.163035	11486.800000
2847.479439	11429.200000
2848.794073	11459.600000
2850.110043	11382.200000
2851.422692	11520.600000
2852.736677	11392.400000
2854.050444	11465.600000
2855.363996	11481.400000
2856.675780	11481.400000
2857.985798	11473.000000
2859.297151	11419.000000
2860.605189	11508.400000
2861.914561	11494.600000
2863.223719	11505.600000
2864.532661	11339.600000
2865.839839	11597.800000
2867.145255	11604.000000
2868.452005	11519.400000
2869.756992	11546.000000
2871.061766	11543.200000
2872.364778	11624.800000
2873.670672	11552.800000
2874.971710	11442.800000
2876.274083	11446.400000
2877.574696	11506.200000
2878.876643	11523.200000
2880.178377	11434.600000
2881.476806	11465.000000
2882.776569	11395.800000
2884.074575	11396.600000
2885.372369	11246.600000
2886.668407	11278.800000
2887.965778	11346.000000
2889.261393	11250.000000
2890.556797	11332.800000
2891.851990	11209.600000
2893.143886	11331.200000
2894.438658	11225.400000
2895.730133	11260.800000
2897.022941	11196.400000
2898.315539	11202.200000
2899.604843	11246.200000
2900.895479	11143.000000
2902.184364	11193.400000
2903.474582	11158.800000
2904.761507	11207.000000
2906.049766	11279.000000
2907.336274	11210.600000
2908.622575	11247.400000
2909.908667	11131.400000
2911.193011	11182.200000
2912.480226	11293.000000
2913.762615	11212.800000
2915.046336	11144.400000
2916.328311	11163.000000
2917.610078	11134.800000
2918.890101	11208.400000
2920.172993	11237.000000
2921.454140	11232.800000
2922.732005	11235.200000
2924.012739	11274.000000
2925.290192	11208.200000
2926.567439	11177.600000
2927.842945	11125.600000
2929.121318	11271.400000
2930.394876	11085.000000
2931.671302	11249.000000
2932.945987	11125.800000
2934.218932	11100.400000
2935.493207	11140.400000
2936.765743	10962.000000
2938.038075	11115.800000
2939.307133	11165.200000
2940.579057	10965.000000
2941.849243	10935.800000
2943.119226	10981.200000
2944.389005	10884.400000
2945.657047	10929.400000
2946.923354	10876.800000
2948.189458	10970.600000
2949.456892	10870.800000
2950.722592	10912.600000
2951.988089	10891.800000
2953.253384	10781.600000
2954.515414	10814.000000
2955.778775	10851.000000
2957.041933	10806.400000
2958.303360	10853.600000
2959.566116	10689.000000
2960.827141	10823.000000
2962.086434	10693.400000
2963.345528	10784.000000
2964.604421	10744.200000
2965.863114	10814.000000
2967.121607	10654.000000
2968.378371	10630.400000
2969.634935	10701.600000
2970.889772	10579.800000
2972.145937	10633.800000
2973.398848	10726.600000
2974.653088	10606.400000
2975.907129	10628.000000
2977.159444	10527.800000
2978.411560	10601.200000
2979.661952	10474.800000
2980.915199	10489.000000
2982.163669	10513.800000
2983.414994	10594.600000
2984.663069	10437.600000
2985.910948	10581.000000
2987.158629	10380.800000
2988.406114	10523.600000
2989.651876	10437.800000
2990.897443	10400.800000
2992.144337	10392.400000
2993.387987	10380.000000
2994.632965	10443.600000
2995.874699	10330.400000
2997.119285	10368.000000
2998.362152	10235.600000
2999.601778	10355.800000
3000.844254	10305.200000
3002.083491	10178.200000
3003.324054	10294.800000
3004.562902	10316.400000
3005.801554	10199.800000
3007.038492	10249.200000
3008.276756	10127.400000
3009.513306	10169.400000
3010.749661	10117.600000
3011.985823	10249.800000
3013.220272	10208.200000
3014.454527	10203.000000
3015.688589	10235.400000
3016.920939	10081.200000
3018.151577	10135.800000
3019.385061	9988.400000
3020.616833	10093.600000
3021.846895	10070.800000
3023.076765	10080.200000
3024.304925	9980.400000
3025.534411	10112.200000
3026.762188	10019.000000
3027.989775	10015.800000
3029.218687	10005.800000
3030.442857	9965.200000
3031.669870	9979.600000
3032.893659	9890.600000
3034.118775	10061.200000
3035.342184	9950.800000
3036.565403	9971.200000
3037.786917	9991.400000
3039.011272	9896.800000
3040.230892	9908.600000
3041.451838	9842.600000
3042.672595	9916.600000
3043.891648	10001.800000
3045.112027	9948.200000
3046.329189	9870.200000
3047.547676	9876.600000
3048.764461	9905.400000
3049.981059	9993.200000
3051.197468	9895.200000
3052.410665	9924.000000
3053.626699	9936.000000
3054.839521	9814.800000
3056.055180	9946.000000
3057.266116	9921.600000
3058.478377	9844.600000
3059.690452	9887.000000
3060.902340	9838.400000
3062.112530	9931.400000
3063.322534	9823.800000
3064.532352	9770.400000
3065.740475	9876.000000
3066.948411	9763.200000
3068.154652	9833.600000
3069.362218	9810.800000
3070.568089	9828.500000
3071.773776	9846.200000
3072.979277	9730.400000
3074.183085	9734.200000
3075.388217	9699.200000
3076.591657	9792.400000
3077.793404	9676.600000
3078.994968	9645.600000
3080.196347	9758.800000
3081.397544	9703.000000
3082.597049	9680.400000
3083.796372	9529.800000
3084.997018	9675.800000
3086.195974	9600.000000
3087.391736	9502.400000
3088.590327	9542.200000
3089.785724	9570.400000
3090.982444	9509.800000
3092.175972	9581.000000
3093.372328	9558.800000
3094.566998	9580.800000
3095.758477	9595.000000
3096.954287	9548.000000
3098.145404	9551.600000
3099.337843	9442.000000
3100.527095	9521.600000
3101.719173	9475.400000
3102.909566	9371.000000
3104.096774	9608.000000
3105.285305	9418.600000
3106.475157	9518.800000
3107.661826	9489.800000
3108.848315	9426.000000
3110.034624	9439.600000
3111.222255	9298.000000
3112.406705	9405.800000
3113.589474	9277.400000
3114.775066	9334.200000
3115.958979	9168.000000
3117.141213	9256.400000
3118.323268	9304.400000
3119.505146	9201.000000
3120.686845	9279.400000
3121.866866	9262.600000
3123.045211	9176.000000
3124.226376	9257.400000
3125.404367	9208.200000
3126.582180	9157.400000
3127.759816	9134.600000
3128.935777	9019.200000
3130.111561	9184.400000
3131.288667	9077.000000
3132.464098	9177.000000
3133.637856	8977.600000
3134.809941	8999.800000
3135.983348	9022.600000
3137.156578	9121.800000
3138.328137	9067.200000
3139.501016	9049.000000
3140.670729	9231.200000
3141.841761	9013.400000
3143.011124	9107.200000
3144.178817	9075.000000
3145.349325	9169.600000
3146.515174	9077.800000
3147.685333	9096.400000
3148.850834	9029.000000
3150.016162	9037.400000
3151.181316	9072.800000
3152.346296	9052.400000
3153.512596	9128.800000
3154.674244	8949.200000
3155.837211	8883.800000
3157.000006	8868.200000
3158.162628	8939.400000
3159.323585	8823.400000
3160.484369	8827.200000
3161.644981	8767.800000
3162.803929	8599.400000
3163.962706	8680.000000
3165.121311	8676.000000
3166.279744	8631.200000
3167.438005	8749.800000
3168.594604	8628.400000
3169.749542	8614.200000
3170.905799	8647.200000
3172.060395	8565.000000
3173.214821	8616.000000
3174.367587	8653.400000
3175.520183	8593.000000
3176.672608	8482.000000
3177.824864	8579.600000
3178.976949	8576.600000
3180.125889	8522.200000
3181.277635	8601.000000
3182.427723	8533.200000
3183.576155	8561.400000
3184.724418	8521.000000
3185.872511	8625.000000
3187.020436	8707.000000
3188.166706	8632.000000
3189.312807	8670.600000
3190.457253	8741.000000
3191.601532	8707.200000
3192.745643	8692.200000
3193.891071	8697.400000
3195.033361	8733.800000
3196.175484	8673.200000
3197.317439	8684.200000
3198.459227	8598.800000
3199.600849	8723.400000
3200.739334	8685.800000
3201.879137	8577.600000
3203.020258	8537.600000
3204.158244	8539.600000
3205.294581	8554.800000
3206.430752	8546.200000
3207.568241	8536.400000
3208.704080	8566.000000
3209.841237	8585.400000
3210.973781	8433.000000
3212.110607	8466.600000
3213.242821	8448.200000
3214.376352	8517.000000
3215.509719	8441.600000
3216.639958	8508.200000
3217.772995	8328.000000
3218.902906	8362.200000
3220.034133	8290.200000
3221.162236	8252.800000
3222.293135	8150.400000
3223.422390	8216.400000
3224.550002	8174.200000
3225.674492	8193.400000
3226.803256	8246.800000
3227.928899	8090.800000
3229.054380	8213.400000
3230.178219	8217.800000
3231.304852	8124.200000
3232.426888	8289.400000
3233.550240	8122.400000
3234.673430	8077.000000
3235.796458	8159.000000
3236.917846	8124.400000
3238.039073	8276.400000
3239.158661	8097.000000
3240.278088	7999.400000
3241.395877	8154.200000
3242.516458	8087.800000
3243.633926	8182.800000
3244.751233	8166.000000
3245.868380	8266.200000
3246.983891	8215.000000
3248.100717	8271.600000
3249.214432	8199.800000
3250.330937	8256.800000
3251.445808	8226.000000
3252.557570	8192.800000
3253.669172	8226.800000
3254.782090	8236.800000
3255.894849	8191.000000
3257.004501	8131.000000
3258.115467	8198.600000
3259.226275	8139.800000
3260.335452	8248.800000
3261.442997	8163.800000
3262.551856	8095.400000
3263.660558	8084.600000
3264.766157	8078.600000
3265.873070	8148.000000
3266.978354	8214.800000
3268.084953	8186.400000
3269.188451	8079.400000
3270.293263	8067.000000
3271.397918	8101.400000
3272.499474	8163.000000
3273.600874	8119.600000
3274.703589	8153.600000
3275.806146	8105.200000
3276.905607	8217.600000
3278.007852	8124.400000
3279.107001	8107.800000
3280.204526	8091.000000
3281.301895	8042.000000
3282.402047	8097.400000
3283.499105	8021.400000
3284.596008	7987.400000
3285.692756	8031.400000
3286.784946	8020.800000
3287.881384	7952.800000
3288.976200	7869.600000
3290.070862	8021.200000
3291.163902	7801.400000
3292.256788	8003.600000
3293.348053	7966.600000
3294.440631	7992.800000
3295.531588	7928.200000
3296.620926	7983.400000
3297.710111	7913.000000
3298.800609	7854.400000
3299.888022	7871.000000
3300.975283	7774.600000
3302.063856	7862.800000
3303.152276	7822.000000
3304.236149	7875.400000
3305.324264	7924.600000
3306.409298	7847.200000
3307.492715	7895.400000
3308.577445	7848.200000
3309.660560	7850.200000
3310.744986	7833.400000
3311.826334	7822.800000
3312.908994	7913.400000
3313.990040	7849.800000
3315.070935	7848.200000
3316.150216	7827.000000
3317.229348	7813.000000
3318.309790	7717.200000
3319.387158	7780.200000
3320.465838	7877.800000
3321.542907	7863.400000
3322.619825	7793.200000
3323.695132	7659.200000
3324.770290	7797.000000
3325.846759	7662.800000
3326.920158	7712.800000
3327.993408	7713.600000
3329.067968	7761.600000
3330.140920	7744.800000
3331.212263	7711.400000
3332.284918	7676.800000
3333.354505	7628.400000
3334.425403	7544.400000
3335.494694	7482.400000
3336.565296	7523.200000
3337.634291	7532.200000
3338.701680	7412.200000
3339.767464	7450.600000
3340.837474	7461.200000
3341.904421	7397.600000
3342.968306	7413.600000
3344.034959	7448.600000
3345.100007	7258.600000
3346.163452	7432.800000
3347.226751	7461.000000
3348.289903	7387.400000
3349.352909	7480.000000
3350.415769	7427.400000
3351.477027	7358.200000
3352.535228	7363.800000
3353.597650	7276.000000
3354.657015	7310.400000
3355.716235	7384.000000
3356.776765	7303.400000
3357.832785	7335.000000
3358.891569	7300.600000
3359.945846	7367.600000
3361.002887	7376.400000
3362.058330	7293.000000
3363.115081	7426.400000
3364.170234	7395.000000
3365.223790	7466.000000
3366.275750	7377.800000
3367.330471	7339.600000
3368.382143	7378.200000
3369.433672	7335.000000
3370.486509	7340.800000
3371.536299	7339.400000
3372.587398	7404.000000
3373.635451	7389.800000
3374.686263	7371.600000
3375.734031	7256.400000
3376.781656	7244.200000
3377.829138	7389.200000
3378.875028	7481.000000
3379.922226	7260.000000
3380.966382	7358.200000
3382.013296	7349.600000
3383.058618	7296.200000
3384.100899	7336.400000
3385.143040	7296.800000
3386.186488	7362.200000
3387.229796	7187.800000
3388.271513	7236.800000
3389.313089	7384.600000
3390.354525	7296.400000
3391.394371	7231.800000
3392.432629	7211.400000
3393.472196	7280.000000
3394.511621	7321.000000
3395.549459	7263.000000
3396.585710	7244.800000
3397.621822	7175.000000
3398.659241	7269.400000
3399.693627	7152.000000
3400.729320	7165.800000
3401.764874	7204.200000
3402.797397	7164.400000
3403.832673	7125.400000
3404.864918	7056.000000
3405.897025	7226.200000
3406.927548	7209.600000
3407.959378	7139.600000
3408.991070	7149.000000
3410.019734	7222.600000
3411.048261	7193.800000
3412.078095	7115.200000
3413.107790	7090.800000
3414.134460	7112.200000
3415.162437	7173.400000
3416.187389	7084.000000
3417.215091	7026.600000
3418.239770	7136.400000
3419.265755	7110.600000
3420.290160	7103.600000
3421.314429	7155.400000
3422.337119	7076.400000
3423.359673	7001.800000
3424.383533	7019.600000
3425.404373	7125.400000
3426.425078	6964.400000
3427.447088	6965.600000
3428.466080	6970.200000
3429.484937	6904.000000
3430.505099	6951.600000
3431.522245	6915.400000
