-117.734368	-0.442857
-115.064768	2.690476
-112.398103	4.533333
-109.732190	5.019048
-107.069209	0.666667
-104.404799	5.314286
-101.743319	3.542857
-99.080409	12.933333
-96.422607	14.495238
-93.763375	14.838095
-91.104891	8.361905
-88.449331	11.238095
-85.792343	14.057143
-83.140453	15.104762
-80.487132	7.885714
-77.836732	3.009524
-75.184902	-4.533333
-72.538163	-4.323810
-69.889994	2.819048
-67.242569	7.676190
-64.598057	7.828571
-61.952117	13.504762
-59.311258	15.533333
-56.668970	17.790476
-54.029590	16.323810
-51.388782	18.400000
-48.748714	13.504762
-46.113718	8.371429
-43.477294	10.171429
-40.843772	10.619048
-38.208822	18.866667
-35.578937	26.466667
-32.945460	30.352381
-30.317045	32.657143
-27.689364	32.638095
-25.060254	35.609524
-22.436201	45.514286
-19.808559	51.514286
-17.185970	62.638095
-14.564113	45.361905
-11.942986	-22.200000
-9.322589	-253.723810
-6.705081	1796.676190
-4.086143	7614.161905
-1.470092	12835.123810
1.145231	13945.361905
3.759827	10831.666667
6.371540	4699.657143
8.984682	-40.600000
11.592790	-637.295238
14.204480	-34.980952
16.811139	41.714286
19.419226	28.942857
22.026589	18.114286
24.628927	14.638095
27.234843	17.647619
29.835737	20.619048
32.438059	22.333333
35.035364	18.009524
37.636244	18.485714
40.232110	16.257143
42.829403	28.219048
45.425977	30.752381
48.017542	28.752381
50.610535	22.390476
53.200667	17.590476
55.792227	9.466667
58.380927	22.161905
60.971054	24.809524
63.556183	27.000000
66.142738	18.809524
68.728580	13.390476
71.311568	10.723810
73.895982	13.619048
76.473268	14.419048
79.054120	18.780952
81.632123	13.561905
84.209416	14.447619
86.788135	16.857143
89.361872	11.990476
91.937037	9.780952
94.509358	13.419048
97.080971	15.000000
99.649744	24.523810
102.219944	33.800000
104.787306	31.971429
107.356093	33.342857
109.922044	35.952381
112.485160	35.942857
115.051832	46.580952
117.609283	60.523810
120.172419	79.714286
122.730595	111.761905
125.292326	167.314286
127.849100	261.504762
130.407301	386.609524
132.960549	585.342857
135.513098	864.619048
138.069198	1195.533333
140.620350	1561.295238
143.170805	1917.723810
145.720562	2197.333333
148.267501	2410.257143
150.813743	2568.285714
153.361411	2655.857143
155.908383	2687.228571
158.450420	2694.542857
160.991763	2681.723810
163.532413	2661.285714
166.074489	2660.466667
168.613753	2652.933333
171.150209	2640.828571
173.685973	2621.247619
176.223163	2619.076190
178.759662	2614.752381
181.293355	2618.114286
183.824245	2629.533333
186.354446	2651.257143
188.886072	2647.638095
191.414897	2653.561905
193.940923	2645.600000
196.466263	2644.323810
198.993029	2636.828571
201.516997	2648.990476
204.040281	2651.942857
206.562880	2669.790476
209.082686	2677.276190
211.601809	2690.695238
214.120249	2680.380952
216.640113	2683.704762
219.152976	2711.647619
221.669370	2760.295238
224.185082	2804.876190
226.695904	2852.828571
229.208152	2861.400000
231.717616	2874.609524
234.226402	2891.857143
236.734510	2904.533333
239.244041	2914.619048
241.748692	2924.038095
244.252667	2906.428571
246.758067	2921.238095
249.258591	2932.733333
251.762638	2941.666667
254.259714	2961.923810
256.760314	2963.571429
259.258142	2968.180952
261.755297	2976.628571
264.251779	2973.000000
266.743398	2972.323810
269.238537	2988.104762
271.730910	2995.600000
274.222612	3025.114286
276.711550	3046.780952
279.201913	3056.400000
281.689513	3053.761905
284.174354	3057.209524
286.662710	3081.685714
289.144126	3123.495238
291.629056	3161.104762
294.109141	3205.600000
296.592738	3245.790476
299.071492	3292.800000
301.551670	3330.533333
304.029095	3350.780952
306.505857	3327.685714
308.981956	3304.942857
311.455306	3286.733333
313.927994	3265.228571
316.400021	3248.542857
318.871387	3255.990476
321.340009	3248.742857
323.807971	3236.419048
326.277355	3204.761905
328.741917	3181.104762
331.209983	3159.352381
333.673229	3158.980952
336.135817	3164.885714
338.597749	3157.219048
341.059024	3125.657143
343.517565	3119.438095
345.977528	3111.447619
348.434758	3108.361905
350.891334	3120.952381
353.347256	3124.123810
355.800449	3115.114286
358.255063	3117.952381
360.704876	3105.542857
363.158185	3084.380952
365.606696	3055.600000
368.054556	3051.304762
370.503837	3045.228571
372.948325	3065.990476
375.394235	3080.133333
377.839496	3099.200000
380.282037	3086.114286
382.723931	3092.371429
385.165178	3057.571429
387.603709	3062.685714
390.043662	3067.847619
392.480901	3062.504762
394.915428	3046.838095
397.353443	3056.352381
399.786681	3048.600000
402.221341	3077.628571
404.651227	3075.314286
407.084599	3053.466667
409.513201	3034.285714
411.941162	3033.180952
414.370543	3049.790476
416.795159	3060.990476
419.221197	3050.209524
421.646594	3044.171429
424.071351	3049.180952
426.491350	3054.285714
428.912770	3083.295238
431.331493	3104.685714
433.751637	3118.342857
436.169086	3109.752381
438.587955	3107.180952
441.004131	3090.238095
443.415560	3082.800000
445.830465	3088.790476
448.242680	3108.409524
450.654261	3101.942857
453.065208	3102.790476
455.473469	3084.628571
457.881097	3060.495238
460.288093	3033.657143
462.694458	3063.009524
465.098140	3083.838095
467.501192	3120.828571
469.903614	3133.247619
472.305406	3148.523810
474.704521	3135.628571
477.105055	3157.552381
479.504960	3184.295238
481.900142	3226.295238
484.298791	3260.028571
486.692720	3300.066667
489.086023	3339.095238
491.478700	3376.676190
493.870752	3428.933333
496.264222	3522.523810
498.652981	3660.190476
501.039073	3856.619048
503.426584	4153.838095
505.813473	4578.790476
508.197698	5314.342857
510.583342	6925.342857
512.966323	11686.095238
515.346644	21656.561905
517.728384	34016.038095
520.107465	42085.752381
522.487965	40980.171429
524.865807	31423.038095
527.240994	18990.790476
529.615563	10150.371429
531.991551	6551.171429
534.364885	5633.228571
536.739637	5087.780952
539.109704	4698.752381
541.479155	4393.571429
543.850024	4145.666667
546.216213	3943.276190
548.583820	3814.561905
550.948781	3746.857143
553.313129	3677.257143
555.676865	3602.809524
558.042017	3532.400000
560.402498	3445.390476
562.764397	3411.247619
565.123655	3420.933333
567.480276	3404.780952
569.840341	3393.580952
572.193715	3361.704762
574.550534	3312.342857
576.904718	3260.171429
579.258294	3257.333333
581.611261	3267.885714
583.961597	3279.323810
586.313349	3240.542857
588.658425	3208.809524
591.008965	3180.523810
593.352831	3188.333333
595.702159	3214.200000
598.046839	3234.628571
600.388893	3222.409524
602.732365	3226.895238
605.073214	3242.790476
607.413461	3251.076190
609.751087	3258.333333
612.092148	3259.533333
614.428571	3225.304762
616.766411	3213.266667
619.101634	3220.028571
621.434241	3235.733333
623.768264	3249.771429
626.099674	3236.657143
628.430485	3173.552381
630.760698	3157.980952
633.090313	3148.638095
635.415306	3167.485714
637.745740	3204.380952
640.071552	3242.780952
642.394758	3252.314286
644.719379	3260.009524
647.041395	3243.057143
649.362818	3210.895238
651.681637	3194.333333
654.001872	3183.047619
656.321514	3191.047619
658.638555	3194.047619
660.955004	3207.123810
663.268855	3208.257143
665.584122	3234.485714
667.896792	3263.685714
670.210877	3296.161905
672.520362	3294.704762
674.831263	3274.990476
677.139571	3239.000000
679.447291	3240.171429
681.756425	3239.400000
684.060968	3244.923810
686.364923	3237.295238
688.668293	3229.247619
690.973077	3216.476190
693.273275	3217.561905
695.574887	3194.838095
697.875915	3202.228571
700.172360	3201.847619
702.470221	3189.780952
704.767498	3193.123810
707.064192	3176.771429
709.356310	3166.028571
711.651839	3176.695238
713.942794	3170.209524
716.235164	3154.333333
718.524959	3154.019048
720.814173	3144.085714
723.102808	3155.028571
725.388871	3166.819048
727.676347	3182.714286
729.961252	3197.495238
732.245580	3210.780952
734.527339	3207.590476
736.810512	3203.095238
739.093108	3180.790476
741.371148	3180.990476
743.650603	3183.171429
745.929482	3198.228571
748.207785	3212.752381
750.481539	3239.495238
752.756707	3251.142857
755.031301	3278.333333
757.303335	3286.266667
759.576783	3286.638095
761.847673	3276.190476
764.116007	3270.628571
766.385754	3263.247619
768.652947	3289.295238
770.919569	3312.133333
773.185621	3330.990476
775.449122	3338.352381
777.714036	3373.247619
779.978380	3373.180952
782.238195	3356.638095
784.499422	3353.723810
786.760082	3347.095238
789.018196	3355.866667
791.273765	3413.885714
793.532725	3439.895238
795.785186	3427.295238
798.043014	3437.047619
800.296322	3422.904762
802.547091	3437.514286
804.799272	3471.666667
807.048914	3489.180952
809.299969	3485.523810
811.546512	3493.714286
813.794467	3487.590476
816.039888	3499.266667
818.286720	3516.542857
820.532991	3511.628571
822.774758	3486.800000
825.019907	3490.019048
827.258584	3483.257143
829.500643	3481.495238
831.738204	3496.295238
833.977177	3499.876190
836.213623	3487.428571
838.451480	3500.819048
840.686812	3499.523810
842.919621	3511.152381
845.153841	3526.200000
847.385539	3519.990476
849.616681	3528.828571
851.847270	3543.600000
854.077303	3545.485714
856.306783	3543.942857
858.531781	3541.733333
860.760154	3516.628571
862.984048	3522.895238
865.209352	3533.619048
867.430181	3521.123810
869.654382	3498.104762
871.874110	3503.676190
874.095249	3507.352381
876.315837	3518.933333
878.533915	3539.733333
880.753403	3524.323810
882.968425	3498.209524
885.182900	3487.066667
887.396826	3491.771429
889.610206	3473.485714
891.823038	3483.847619
894.035324	3490.228571
896.245107	3514.685714
898.454345	3515.323810
900.663038	3510.380952
902.869232	3488.457143
905.076835	3486.914286
907.281940	3506.695238
909.486502	3540.257143
911.688569	3536.409524
913.892045	3545.742857
916.093027	3568.580952
918.293468	3591.961905
920.495316	3608.790476
922.690774	3641.457143
924.889591	3654.800000
927.083969	3732.200000
929.281705	3849.266667
931.475005	3980.733333
933.669714	4145.171429
935.861937	4310.695238
938.053622	4451.895238
940.244769	4586.752381
942.433432	4646.790476
944.621560	4665.685714
946.807207	4683.600000
948.996206	4670.123810
951.180782	4662.580952
953.364823	4687.447619
955.552214	4705.142857
957.731301	4726.342857
959.913739	4747.028571
962.095643	4755.342857
964.275073	4758.752381
966.452029	4787.085714
968.630394	4822.542857
970.810166	4859.742857
972.983589	4902.295238
975.160358	4917.380952
977.332720	4939.685714
979.506490	4933.923810
981.675856	4881.952381
983.848566	4842.828571
986.018811	4756.466667
988.188527	4624.714286
990.357714	4515.514286
992.522504	4384.257143
994.690635	4294.342857
996.854372	4232.676190
999.019515	4179.628571
1001.182199	4140.180952
1003.344358	4108.038095
1005.504060	4080.780952
1007.663238	4071.247619
1009.823822	4035.523810
1011.981951	4029.523810
1014.139556	4007.571429
1016.296638	3971.000000
1018.453197	3957.590476
1020.605376	3950.190476
1022.758961	3922.961905
1024.912025	3920.066667
1027.062641	3930.647619
1029.214662	3915.361905
1031.362310	3888.790476
1033.513290	3879.390476
1035.659899	3843.761905
1037.805989	3843.076190
1039.951561	3860.009524
1042.098538	3842.933333
1044.239226	3827.171429
1046.383244	3808.695238
1048.524821	3783.619048
1050.665882	3788.990476
1052.808347	3800.838095
1054.944533	3777.247619
1057.084045	3780.828571
1059.219201	3771.304762
1061.357682	3756.257143
1063.491809	3749.942857
1065.625423	3748.152381
1067.760442	3727.161905
1069.891111	3732.466667
1072.023185	3751.495238
1074.152830	3767.723810
1076.281963	3763.609524
1078.410584	3742.009524
1080.538694	3712.828571
1082.664378	3689.190476
1084.789552	3683.476190
1086.916130	3685.714286
1089.038370	3709.828571
1091.162015	3714.428571
1093.281326	3703.895238
1095.405865	3713.076190
1097.524159	3713.333333
1099.643858	3688.952381
1101.761138	3707.409524
1103.877912	3697.485714
1105.994179	3706.742857
1108.108030	3760.619048
1110.223286	3779.980952
1112.334218	3770.228571
1114.448463	3780.666667
1116.558387	3771.447619
1118.669715	3757.866667
1120.780538	3742.133333
1122.887045	3704.314286
1124.996862	3691.933333
1127.102364	3688.733333
1129.209269	3702.047619
1131.309959	3687.876190
1133.415861	3675.600000
1135.517454	3674.438095
1137.620450	3681.209524
1139.722945	3679.333333
1141.819233	3695.923810
1143.920729	3676.438095
1146.017921	3678.457143
1148.114616	3701.047619
1150.210812	3704.066667
1152.306511	3691.628571
1154.401711	3714.400000
1156.494516	3722.409524
1158.588722	3726.733333
1160.676737	3745.161905
1162.769950	3734.085714
1164.856975	3724.695238
1166.947299	3734.504762
1169.033336	3743.371429
1171.122670	3752.076190
1173.205823	3757.219048
1175.290378	3746.314286
1177.376335	3756.066667
1179.458010	3761.504762
1181.541087	3755.180952
1183.621778	3764.695238
1185.701977	3759.723810
1187.781685	3757.590476
1189.860902	3778.933333
1191.937737	3799.895238
1194.012191	3792.942857
1196.089936	3791.733333
1198.163412	3789.752381
1200.238288	3787.990476
1202.308897	3778.123810
1204.380908	3772.104762
1206.450542	3778.352381
1208.521577	3799.038095
1210.592124	3833.323810
1212.658410	3850.914286
1214.726097	3840.190476
1216.791412	3826.609524
1218.858127	3841.047619
1220.920586	3852.876190
1222.986330	3882.228571
1225.047821	3907.323810
1227.110711	3906.438095
1229.171234	3888.123810
1231.231273	3880.533333
1233.290830	3878.323810
1235.348021	3878.304762
1237.404731	3884.523810
1239.459078	3889.038095
1241.516705	3873.609524
1243.571970	3873.714286
1245.622994	3869.514286
1247.675418	3860.552381
1249.727362	3867.371429
1251.776948	3890.485714
1253.826055	3894.257143
1255.874684	3900.866667
1257.922834	3881.161905
1259.970505	3861.276190
1262.013947	3866.914286
1264.060663	3883.685714
1266.105026	3901.552381
1268.148913	3934.885714
1270.190448	3932.095238
1272.229634	3923.342857
1274.272093	3921.276190
1276.310329	3919.523810
1278.349964	3911.323810
1280.389124	3922.571429
1282.424065	3925.428571
1284.460405	3933.885714
1286.494401	3954.095238
1288.529795	3968.247619
1290.560975	3972.809524
1292.593553	4006.590476
1294.625660	4045.000000
1296.655426	4079.533333
1298.686590	4117.333333
1300.713546	4124.876190
1302.741900	4138.723810
1304.766050	4133.485714
1306.793464	4118.038095
1308.816676	4114.990476
1310.841286	4099.809524
1312.863562	4108.228571
1314.887235	4127.619048
1316.908575	4115.514286
1318.929447	4122.457143
1320.949852	4111.819048
1322.966064	4075.228571
1324.983673	4039.857143
1326.998954	4012.047619
1329.017494	4010.952381
1331.031845	4043.647619
1333.043870	4065.647619
1335.059152	4080.400000
1337.070249	4067.780952
1339.082743	4041.219048
1341.091054	4028.142857
1343.102621	4026.733333
1345.108148	4029.790476
1347.116931	4032.800000
1349.121536	4036.085714
1351.129395	4037.685714
1353.136792	4031.609524
1355.138158	4029.742857
1357.140921	4018.123810
1359.143223	4016.257143
1361.145066	4024.304762
1363.146449	4045.228571
1365.145519	4051.485714
1367.144130	4064.180952
1369.142283	4041.980952
1371.139977	4048.047619
1373.133509	4054.914286
1375.128437	4062.523810
1377.122907	4081.228571
1379.116922	4106.733333
1381.108628	4105.438095
1383.099880	4111.942857
1385.088826	4107.657143
1387.079167	4080.485714
1389.069053	4054.980952
1391.056636	4034.361905
1393.043764	4038.523810
1395.028591	4043.066667
1397.014813	4048.819048
1398.998735	4053.019048
1400.982204	4082.352381
1402.965220	4091.552381
1404.945939	4125.276190
1406.928052	4136.580952
1408.907869	4129.619048
1410.887234	4108.533333
1412.862461	4100.209524
1414.840927	4075.485714
1416.817098	4081.390476
1418.792821	4069.142857
1420.768094	4080.695238
1422.741076	4067.161905
1424.713610	4062.238095
1426.685696	4068.838095
1428.657335	4099.580952
1430.624845	4105.628571
1432.597429	4130.419048
1434.562208	4128.371429
1436.532058	4128.104762
1438.497785	4124.304762
1440.464904	4143.304762
1442.429740	4150.200000
1444.390456	4155.352381
1446.356241	4144.971429
1448.316070	4133.161905
1450.277292	4131.361905
1452.239907	4152.780952
1454.198407	4177.228571
1456.156464	4196.838095
1458.114080	4195.552381
1460.071254	4204.219048
1462.026152	4215.914286
1463.982442	4204.857143
1465.936458	4201.342857
1467.890034	4196.400000
1469.841337	4180.514286
1471.794032	4172.390476
1473.744456	4177.914286
1475.694440	4157.342857
1477.643986	4160.000000
1479.591263	4162.009524
1481.536273	4163.361905
1483.482674	4158.466667
1485.428638	4161.057143
1487.374165	4159.304762
1489.317427	4136.514286
1491.260252	4112.514286
1493.200814	4096.171429
1495.142767	4104.428571
1497.082458	4098.057143
1499.021715	4099.942857
1500.960536	4099.561905
1502.897098	4102.180952
1504.835051	4102.209524
1506.770745	4099.485714
1508.706006	4092.771429
1510.639011	4094.552381
1512.571583	4101.990476
1514.503723	4114.561905
1516.435431	4136.419048
1518.364885	4147.466667
1520.295730	4164.914286
1522.226143	4183.704762
1524.152484	4155.457143
1526.080216	4144.666667
1528.005697	4142.390476
1529.930749	4127.361905
1531.855372	4135.161905
1533.779566	4135.085714
1535.701512	4119.600000
1537.624849	4136.438095
1539.545940	4164.047619
1541.464786	4154.028571
1543.385021	4174.323810
1545.303014	4178.819048
1547.220580	4179.704762
1549.135904	4167.228571
1551.052618	4174.466667
1552.965277	4166.752381
1554.881140	4182.361905
1556.794763	4182.200000
1558.706149	4175.190476
1560.618923	4179.504762
1562.527648	4184.114286
1564.437762	4195.028571
1566.347453	4207.714286
1568.256721	4175.609524
1570.163755	4155.952381
1572.068556	4189.971429
1573.974746	4185.152381
1575.878704	4195.180952
1577.782241	4214.895238
1579.685358	4209.152381
1581.586245	4221.066667
1583.488521	4228.190476
1585.388569	4202.009524
1587.290004	4191.657143
1589.187406	4182.276190
1591.084389	4181.733333
1592.980954	4202.514286
1594.878907	4222.885714
1596.771025	4234.400000
1598.666336	4245.476190
1600.561230	4232.447619
1602.453902	4230.828571
1604.346158	4242.971429
1606.236193	4270.038095
1608.125814	4304.295238
1610.015018	4300.000000
1611.903808	4309.200000
1613.790380	4279.657143
1615.678340	4258.542857
1617.562283	4234.857143
1619.447614	4235.542857
1621.332530	4222.942857
1623.215233	4236.580952
1625.099323	4230.219048
1626.979402	4245.152381
1628.860867	4255.742857
1630.740122	4263.066667
1632.620763	4284.171429
1634.495600	4310.295238
1636.375418	4324.523810
1638.251232	4337.647619
1640.126635	4343.333333
1642.003424	4306.600000
1643.874417	4264.514286
1645.748591	4253.085714
1647.618767	4243.390476
1649.492123	4241.152381
1651.363276	4249.609524
1653.232227	4240.504762
1655.102564	4231.619048
1656.968907	4207.961905
1658.836636	4197.857143
1660.702166	4172.390476
1662.569082	4143.304762
1664.432009	4152.704762
1666.296321	4147.676190
1668.158437	4131.895238
1670.020149	4122.009524
1671.883245	4102.076190
1673.744147	4074.457143
1675.602855	4092.028571
1677.461160	4066.952381
1679.320850	4079.523810
1681.174772	4094.209524
1683.031868	4101.647619
1684.888561	4097.142857
1686.741278	4098.085714
1688.597165	4072.495238
1690.449079	4057.428571
1692.300592	4030.761905
1694.151704	4003.238095
1696.002416	3991.523810
1697.852727	3987.066667
1699.700853	3993.590476
1701.550364	3995.752381
1703.394126	4003.295238
1705.242837	4017.923810
1707.085802	4015.180952
1708.931934	4016.561905
1710.774103	4014.800000
1712.619438	4031.571429
1714.459032	4054.514286
1716.300010	4072.619048
1718.142371	4060.200000
1719.980776	4062.200000
1721.820564	4051.885714
1723.658177	4037.790476
1725.495394	4014.104762
1727.330438	4016.876190
1729.166865	4002.666667
1731.001120	3996.085714
1732.834980	3982.742857
1734.668447	3931.800000
1736.497967	3916.885714
1738.330646	3919.609524
1740.159381	3907.942857
1741.991273	3892.580952
1743.819224	3864.561905
1745.646782	3831.904762
1747.473948	3832.409524
1749.300723	3834.971429
1751.127107	3839.761905
1752.949553	3855.314286
1754.775155	3844.400000
1756.596822	3836.114286
1758.419871	3834.200000
1760.240758	3835.828571
1762.061257	3810.304762
1763.883137	3796.590476
1765.699317	3784.466667
1767.518649	3771.133333
1769.334054	3774.390476
1771.152609	3791.971429
1772.967239	3798.619048
1774.781483	3808.438095
1776.595339	3813.076190
1778.408809	3794.704762
1780.220126	3772.342857
1782.032824	3780.390476
1783.845135	3794.466667
1785.653529	3824.047619
1787.463303	3814.504762
1789.269163	3791.600000
1791.078168	3765.809524
1792.883260	3757.123810
1794.689733	3762.847619
1796.495822	3775.942857
1798.298001	3773.485714
1800.103323	3776.676190
1801.904737	3771.857143
1803.707531	3785.371429
1805.506419	3780.000000
1807.306688	3778.171429
1809.106575	3789.219048
1810.904321	3791.000000
1812.701685	3767.571429
1814.498670	3784.190476
1816.295274	3748.276190
1818.089739	3733.219048
1819.885583	3734.714286
1821.675773	3729.400000
1823.470858	3729.847619
1825.260292	3740.914286
1827.052862	3733.914286
1828.843297	3731.123810
1830.631598	3739.752381
1832.423034	3750.857143
1834.208824	3753.714286
1835.995994	3742.733333
1837.781032	3737.895238
1839.569204	3734.847619
1841.353490	3740.438095
1843.135647	3765.533333
1844.919182	3770.304762
1846.700589	3779.485714
1848.483375	3776.428571
1850.262280	3765.752381
1852.042565	3747.180952
1853.820723	3735.609524
1855.600260	3733.095238
1857.377672	3729.695238
1859.152960	3727.771429
1860.929626	3728.066667
1862.704170	3724.314286
1864.480092	3729.600000
1866.250393	3751.361905
1868.023822	3761.285714
1869.795131	3762.923810
1871.566070	3759.219048
1873.338385	3737.914286
1875.105087	3726.457143
1876.874915	3726.495238
1878.640879	3712.723810
1880.409966	3717.657143
1882.175193	3722.295238
1883.940050	3707.428571
1885.706285	3708.276190
1887.468661	3705.914286
1889.230670	3690.942857
1890.992311	3702.942857
1892.753586	3686.047619
1894.514493	3677.314286
1896.275034	3688.066667
1898.033465	3668.400000
1899.791530	3657.723810
1901.547488	3676.819048
1903.304822	3692.600000
1905.061791	3705.457143
1906.816653	3716.314286
1908.569411	3689.276190
1910.321805	3667.333333
1912.075574	3677.438095
1913.827240	3691.276190
1915.576804	3667.019048
1917.327743	3671.333333
1919.078320	3672.047619
1920.825057	3689.638095
1922.573171	3688.580952
1924.319185	3693.428571
1926.066575	3667.476190
1927.811866	3654.590476
1929.555060	3645.647619
1931.299629	3652.333333
1933.042103	3638.933333
1934.784216	3665.819048
1936.525969	3691.409524
1938.267363	3713.409524
1940.006662	3710.476190
1941.745603	3708.266667
1943.484185	3706.419048
1945.220676	3721.885714
1946.956809	3742.390476
1948.694316	3767.904762
1950.428001	3779.028571
1952.163061	3786.409524
1953.896033	3773.904762
1955.628647	3757.409524
1957.360906	3754.895238
1959.092808	3760.323810
1960.822624	3784.304762
1962.550355	3790.819048
1964.279461	3786.304762
1966.008212	3782.038095
1967.734879	3794.019048
1969.461192	3790.904762
1971.188878	3773.438095
1972.911028	3771.838095
1974.636279	3778.685714
1976.357724	3805.990476
1978.082268	3841.847619
1979.804733	3872.371429
1981.523394	3874.304762
1983.245154	3894.676190
1984.963112	3891.723810
1986.682443	3900.628571
1988.397975	3909.352381
1990.118327	3907.600000
1991.834881	3906.638095
1993.547638	3896.323810
1995.263492	3881.485714
1996.977272	3874.580952
1998.690703	3882.219048
2000.402063	3882.200000
2002.114795	3917.914286
2003.823737	3946.238095
2005.535772	3959.990476
2007.242297	3979.904762
2008.951914	3978.609524
2010.659465	3962.685714
2012.366668	3968.590476
2014.071804	3974.409524
2015.776595	3970.704762
2017.482757	3995.847619
2019.185137	3992.342857
2020.888889	3985.657143
2022.590577	3960.657143
2024.291921	3947.895238
2025.992919	3938.419048
2027.691856	3948.495238
2029.392165	3957.523810
2031.088699	3979.114286
2032.786604	3982.200000
2034.482450	3976.828571
2036.181382	3975.028571
2037.874828	3971.580952
2039.569645	3967.857143
2041.264120	3986.085714
2042.954826	4003.400000
2044.648616	3991.828571
2046.338639	3993.142857
2048.030033	3982.380952
2049.719374	3964.257143
2051.410085	3960.323810
2053.097033	3954.295238
2054.783642	3939.476190
2056.471621	3940.590476
2058.155839	3936.676190
2059.841429	3929.942857
2061.526679	3941.447619
2063.209881	3939.438095
2064.894452	3933.676190
2066.573561	3941.714286
2068.257455	3922.114286
2069.935889	3890.057143
2071.617399	3888.266667
2073.295159	3877.561905
2074.972581	3889.828571
2076.651373	3912.409524
2078.328123	3906.076190
2080.002831	3887.352381
2081.678908	3885.904762
2083.352945	3875.009524
2085.026646	3879.371429
2086.700012	3887.638095
2088.371340	3907.628571
2090.042333	3908.361905
2091.712992	3921.647619
2093.383316	3908.314286
2095.053307	3902.428571
2096.721262	3879.523810
2098.388884	3895.800000
2100.054471	3882.466667
2101.721427	3906.542857
2103.386350	3919.704762
2105.050941	3953.961905
2106.713500	3948.447619
2108.377427	3953.952381
2110.039324	3934.752381
2111.700889	3910.333333
2113.362123	3908.571429
2115.021329	3939.228571
2116.680204	3945.228571
2118.338750	3957.885714
2119.996966	3972.314286
2121.651458	3951.076190
2123.309015	3961.895238
2124.966243	3969.828571
2126.619749	3962.714286
2128.274623	3965.238095
2129.925779	3947.038095
2131.579996	3947.371429
2133.230497	3947.447619
2134.882364	3933.095238
2136.528823	3941.533333
2138.180037	3939.980952
2139.827537	3931.838095
2141.476404	3961.523810
2143.123253	3969.361905
2144.769775	3951.914286
2146.415972	3967.580952
2148.058461	3948.752381
2149.704008	3952.171429
2151.345848	3963.838095
2152.990745	3965.361905
2154.631937	3959.800000
2156.272805	3961.552381
2157.913349	3945.209524
2159.551881	3932.609524
2161.191779	3920.761905
2162.827977	3890.409524
2164.465542	3883.352381
2166.102783	3885.847619
2167.738015	3902.400000
2169.372926	3919.647619
2171.007515	3934.295238
2172.641782	3903.257143
2174.272356	3894.523810
2175.905982	3876.828571
2177.535916	3859.828571
2179.167215	3860.304762
2180.796509	3868.295238
2182.425484	3873.285714
2184.054139	3904.428571
2185.682475	3906.457143
2187.308809	3901.733333
2188.934824	3893.533333
2190.558838	3884.038095
2192.184216	3900.847619
2193.807595	3874.657143
2195.432337	3859.695238
2197.053399	3855.523810
2198.674144	3860.142857
2200.296254	3861.209524
2201.916366	3868.523810
2203.534481	3830.704762
2205.152281	3818.266667
2206.769766	3808.895238
2208.386935	3804.314286
2210.003789	3817.076190
2211.620327	3815.628571
2213.234873	3819.190476
2214.847426	3823.961905
2216.461343	3820.485714
2218.073269	3814.095238
2219.686558	3814.000000
2221.297857	3796.533333
2222.907166	3786.438095
2224.517839	3785.628571
2226.126523	3798.561905
2227.734894	3799.790476
2229.341279	3800.752381
2230.949027	3797.666667
2232.554788	3781.142857
2234.160238	3783.780952
2235.763703	3788.971429
2237.368531	3775.847619
2238.971375	3766.171429
2240.572237	3762.952381
2242.174460	3736.819048
2243.774702	3749.866667
2245.376306	3786.152381
2246.974258	3799.200000
2248.573572	3807.876190
2250.170906	3818.266667
2251.767931	3794.485714
2253.366319	3781.180952
2254.961058	3794.390476
2256.553820	3783.504762
2258.147945	3782.580952
2259.743431	3780.571429
2261.335273	3772.019048
2262.926808	3749.819048
2264.519704	3751.000000
2266.107291	3728.676190
2267.699575	3713.761905
2269.286551	3726.847619
2270.876555	3741.142857
2272.461256	3758.123810
2274.050649	3771.600000
2275.634741	3766.314286
2277.220194	3724.980952
2278.803677	3688.466667
2280.390187	3655.171429
2281.973062	3641.038095
2283.555635	3663.600000
2285.137904	3681.876190
2286.716544	3673.542857
2288.298207	3651.676190
2289.876242	3632.914286
2291.457300	3624.152381
2293.034731	3645.580952
2294.610199	3637.009524
2296.188689	3631.990476
2297.763555	3617.590476
2299.338120	3596.342857
2300.912385	3601.828571
2302.486349	3607.209524
2304.060013	3598.428571
2305.633376	3586.019048
2307.203121	3577.361905
2308.772567	3578.019048
2310.345031	3594.019048
2311.912221	3610.371429
2313.482429	3607.847619
2315.049022	3589.914286
2316.616975	3555.266667
2318.182972	3549.733333
2319.748672	3546.752381
2321.314075	3553.200000
2322.877523	3568.847619
2324.442331	3585.390476
2326.003531	3571.514286
2327.567745	3583.133333
2329.126697	3594.295238
2330.688664	3575.314286
2332.248680	3577.295238
2333.808400	3569.571429
2335.366171	3555.866667
2336.923647	3564.142857
2338.480829	3570.990476
2340.036063	3556.828571
2341.591004	3566.238095
2343.145651	3574.895238
2344.700003	3598.447619
2346.254063	3599.095238
2347.807828	3577.876190
2349.359650	3556.038095
2350.909528	3530.961905
2352.462414	3528.428571
2354.010058	3529.247619
2355.560709	3529.333333
2357.107769	3515.504762
2358.656187	3507.200000
2360.204314	3502.076190
2361.748852	3508.504762
2363.294748	3501.638095
2364.838706	3500.952381
2366.384021	3483.733333
2367.925751	3495.514286
2369.468838	3491.533333
2371.009989	3487.238095
2372.550852	3480.723810
2374.091424	3465.180952
2375.631708	3449.476190
2377.171703	3462.485714
2378.708120	3466.257143
2380.247538	3470.523810
2381.783379	3481.714286
2383.320576	3476.095238
2384.854198	3443.552381
2386.390821	3414.028571
2387.925512	3411.904762
2389.458274	3412.400000
2390.990749	3430.304762
2392.521296	3445.485714
2394.054841	3444.161905
2395.583175	3460.590476
2397.112866	3464.257143
2398.642271	3460.923810
2400.171390	3463.276190
2401.700225	3453.942857
2403.223854	3428.380952
2404.752120	3433.933333
2406.275182	3415.771429
2407.802878	3407.142857
2409.323735	3417.942857
2410.849225	3433.276190
2412.371154	3430.190476
2413.894439	3448.714286
2415.415803	3439.771429
2416.935247	3430.685714
2418.456046	3431.933333
2419.974926	3424.400000
2421.493524	3416.428571
2423.010205	3416.609524
2424.528240	3403.885714
2426.045994	3390.104762
2427.560197	3382.857143
2429.074119	3389.666667
2430.587761	3397.847619
2432.102758	3386.790476
2433.614206	3373.285714
2435.127009	3361.885714
2436.637898	3346.419048
2438.148509	3372.457143
2439.657208	3364.714286
2441.168893	3349.228571
2442.677035	3328.819048
2444.184899	3324.085714
2445.692485	3325.780952
2447.196530	3344.647619
2448.703561	3351.819048
2450.208683	3374.542857
2451.713528	3365.438095
2453.216465	3356.123810
2454.719127	3332.495238
2456.221512	3312.971429
2457.721992	3293.666667
2459.223825	3291.285714
2460.723753	3272.961905
2462.223407	3274.990476
2463.722784	3279.828571
2465.220259	3297.028571
2466.715832	3280.542857
2468.214385	3281.876190
2469.709410	3278.019048
2471.205787	3302.019048
2472.698638	3306.323810
2474.192842	3301.961905
2475.686772	3280.142857
2477.177178	3262.695238
2478.670562	3264.638095
2480.162048	3259.685714
2481.651637	3238.485714
2483.140954	3229.190476
2484.628376	3245.600000
2486.118773	3261.571429
2487.605651	3281.676190
2489.093881	3271.542857
2490.578595	3244.657143
2492.063038	3241.276190
2493.548833	3240.038095
2495.032735	3237.657143
2496.517989	3226.228571
2497.998108	3207.923810
2499.481201	3192.171429
2500.962403	3230.495238
2502.443336	3254.104762
2503.922380	3277.333333
2505.401155	3264.952381
2506.879662	3240.447619
2508.357901	3233.047619
2509.835871	3232.247619
2511.310336	3236.952381
2512.787771	3240.466667
2514.261702	3222.561905
2515.736983	3205.419048
2517.211998	3212.095238
2518.683511	3219.095238
2520.156374	3239.085714
2521.627355	3249.685714
2523.099686	3242.942857
2524.566904	3239.342857
2526.037087	3252.771429
2527.505390	3247.638095
2528.973428	3239.285714
2530.441201	3242.504762
2531.908709	3225.590476
2533.375952	3242.866667
2534.839703	3240.780952
2536.304804	3240.428571
2537.768028	3260.352381
2539.232602	3279.990476
2540.693686	3281.590476
2542.156120	3281.171429
2543.618291	3239.161905
2545.076976	3231.561905
2546.540233	3258.152381
2547.998393	3269.066667
2549.457902	3274.647619
2550.912317	3276.885714
2552.371303	3263.352381
2553.828417	3250.857143
2555.283660	3263.590476
2556.738642	3258.114286
2558.191754	3242.904762
2559.646215	3227.085714
2561.098807	3224.561905
2562.551139	3222.314286
2564.001603	3234.361905
2565.455023	3245.095238
2566.903361	3253.866667
2568.354655	3256.847619
2569.804082	3255.628571
2571.250037	3248.457143
2572.698947	3244.409524
2574.144387	3246.752381
2575.591175	3256.438095
2577.036099	3249.980952
2578.480765	3224.266667
2579.926780	3204.580952
2581.369327	3210.466667
2582.813222	3216.514286
2584.253652	3224.885714
2585.695429	3209.285714
2587.135347	3184.409524
2588.576612	3175.742857
2590.014416	3186.647619
2591.455169	3202.533333
2592.890859	3213.657143
2594.329499	3230.923810
2595.766281	3223.476190
2597.201208	3233.514286
2598.639082	3232.990476
2600.071899	3214.247619
2601.506063	3186.333333
2602.938373	3181.800000
2604.372029	3174.276190
2605.803832	3170.771429
2607.235381	3185.438095
2608.666678	3171.333333
2610.096122	3174.800000
2611.525314	3183.200000
2612.952656	3177.752381
2614.381343	3172.009524
2615.809779	3197.742857
2617.234767	3195.266667
2618.661102	3190.780952
2620.085588	3179.476190
2621.511420	3159.352381
2622.933808	3172.952381
2624.357542	3184.857143
2625.779429	3157.619048
2627.201067	3114.419048
2628.620859	3096.323810
2630.041997	3085.352381
2631.462885	3110.190476
2632.880335	3121.304762
2634.300724	3124.857143
2635.717676	3119.352381
2637.134379	3137.190476
2638.550835	3131.190476
2639.967041	3146.495238
2641.383000	3136.114286
2642.797118	3125.733333
2644.210989	3102.085714
2645.623020	3105.961905
2647.036396	3102.590476
2648.446342	3117.104762
2649.859223	3127.466667
2651.268676	3114.466667
2652.677883	3088.857143
2654.085254	3069.171429
2655.495560	3061.580952
2656.904029	3055.514286
2658.310663	3052.142857
2659.717052	3058.523810
2661.121607	3080.866667
2662.527506	3092.923810
2663.931572	3105.333333
2665.335393	3109.323810
2666.738971	3104.142857
2668.140716	3108.980952
2669.543805	3120.780952
2670.943476	3128.923810
2672.344491	3120.000000
2673.742090	3105.790476
2675.142619	3086.704762
2676.539733	3072.504762
2677.938190	3069.800000
2679.334819	3086.400000
2680.731206	3086.047619
2682.127352	3082.780952
2683.521671	3077.704762
2684.917332	3068.380952
2686.309585	3078.152381
2687.703180	3092.704762
2689.094951	3080.047619
2690.488065	3075.333333
2691.879355	3048.257143
2693.268822	3013.780952
2694.658049	3015.161905
2696.047037	3037.590476
2697.437367	3034.828571
2698.822712	3049.885714
2700.210981	3042.533333
2701.597430	3023.000000
2702.983640	3024.780952
2704.369612	3024.485714
2705.752184	3016.571429
2707.136099	3006.933333
2708.519776	3016.114286
2709.903215	3017.571429
2711.283258	3035.609524
2712.664643	3023.580952
2714.044212	3021.371429
2715.425123	3000.780952
2716.804218	3003.285714
2718.181500	3003.066667
2719.560123	2990.057143
2720.936933	2980.733333
2722.313507	2991.904762
2723.689845	2997.380952
2725.064371	3011.152381
2726.440238	3007.152381
2727.812718	2998.866667
2729.188114	3000.428571
2730.558550	3004.990476
2731.930327	2988.352381
2733.301869	2971.647619
2734.671603	2965.466667
2736.042678	2958.590476
2737.411944	2961.171429
2738.780977	2971.580952
2740.148204	2952.476190
2741.515198	2945.904762
2742.881959	2947.857143
2744.248487	2958.609524
2745.613210	2978.933333
2746.977702	3000.247619
2748.341961	2998.619048
2749.705988	3014.676190
2751.069784	3005.571429
2752.430206	2997.438095
2753.793539	2965.828571
2755.151929	2948.333333
2756.513229	2936.247619
2757.871158	2929.609524
2759.231996	2945.000000
2760.591035	2941.485714
2761.946705	2928.657143
2763.305283	2926.923810
2764.660494	2910.504762
2766.015476	2886.228571
2767.368662	2930.047619
2768.724754	2948.580952
2770.077481	2972.866667
2771.429981	2968.400000
2772.782252	2938.133333
2774.135862	2904.085714
2775.486110	2897.133333
2776.834565	2893.771429
2778.185924	2904.685714
2779.533924	2906.476190
2780.883262	2911.409524
2782.230809	2913.190476
2783.578128	2895.123810
2784.925221	2880.733333
2786.270523	2857.066667
2787.615599	2853.314286
2788.960448	2861.704762
2790.305072	2882.885714
2791.646344	2889.057143
2792.988954	2897.514286
2794.331338	2882.800000
2795.673498	2877.790476
2797.012308	2882.657143
2798.354017	2897.761905
2799.692379	2902.780952
2801.032078	2916.438095
2802.369991	2903.257143
2803.706120	2892.466667
2805.042025	2878.152381
2806.379268	2870.428571
2807.714727	2865.904762
2809.049963	2862.209524
2810.383416	2863.057143
2811.718207	2871.390476
2813.049656	2865.609524
2814.384001	2871.085714
2815.713448	2895.314286
2817.044232	2886.009524
2818.374794	2877.761905
2819.703577	2861.542857
2821.033696	2843.161905
2822.362037	2822.390476
2823.690157	2826.342857
2825.016499	2820.590476
2826.344178	2812.657143
2827.668523	2815.409524
2828.994205	2833.495238
2830.318111	2813.580952
2831.641798	2806.609524
2832.966820	2799.752381
2834.288512	2802.695238
2835.609986	2822.685714
2836.931241	2841.333333
2838.252277	2833.971429
2839.571541	2819.152381
2840.892140	2803.876190
2842.210967	2789.028571
2843.529576	2776.209524
2844.846414	2784.333333
2846.163035	2793.876190
2847.479439	2788.742857
2848.794073	2811.533333
2850.110043	2789.409524
2851.422692	2769.571429
2852.736677	2794.561905
2854.050444	2802.371429
2855.363996	2803.742857
2856.675780	2807.495238
2857.985798	2785.142857
2859.297151	2776.285714
2860.605189	2795.990476
2861.914561	2791.961905
2863.223719	2786.400000
2864.532661	2790.047619
2865.839839	2816.219048
2867.145255	2838.961905
2868.452005	2868.076190
2869.756992	2865.447619
2871.061766	2847.447619
2872.364778	2837.009524
2873.670672	2840.447619
2874.971710	2853.600000
2876.274083	2853.171429
2877.574696	2851.095238
2878.876643	2841.485714
2880.178377	2821.257143
2881.476806	2813.247619
2882.776569	2827.066667
2884.074575	2811.095238
2885.372369	2807.495238
2886.668407	2774.000000
2887.965778	2749.771429
2889.261393	2749.876190
2890.556797	2767.380952
2891.851990	2771.952381
2893.143886	2785.895238
2894.438658	2777.600000
2895.730133	2771.828571
2897.022941	2769.504762
2898.315539	2768.419048
2899.604843	2744.000000
2900.895479	2729.304762
2902.184364	2736.476190
2903.474582	2745.514286
2904.761507	2741.619048
2906.049766	2744.695238
2907.336274	2736.638095
2908.622575	2728.514286
2909.908667	2722.276190
2911.193011	2745.495238
2912.480226	2748.704762
2913.762615	2747.057143
2915.046336	2735.838095
2916.328311	2729.009524
2917.610078	2716.104762
2918.890101	2734.723810
2920.172993	2744.495238
2921.454140	2756.161905
2922.732005	2758.114286
2924.012739	2768.457143
2925.290192	2767.238095
2926.567439	2768.619048
2927.842945	2768.047619
2929.121318	2767.809524
2930.394876	2744.485714
2931.671302	2731.104762
2932.945987	2722.038095
2934.218932	2718.457143
2935.493207	2722.961905
2936.765743	2733.019048
2938.038075	2721.533333
2939.307133	2717.590476
2940.579057	2712.714286
2941.849243	2691.380952
2943.119226	2678.961905
2944.389005	2678.009524
2945.657047	2671.533333
2946.923354	2667.790476
2948.189458	2666.352381
2949.456892	2669.209524
2950.722592	2678.904762
2951.988089	2675.628571
2953.253384	2661.923810
2954.515414	2639.219048
2955.778775	2642.628571
2957.041933	2647.685714
2958.303360	2656.961905
2959.566116	2652.933333
2960.827141	2648.695238
2962.086434	2653.200000
2963.345528	2668.000000
2964.604421	2660.685714
2965.863114	2659.695238
2967.121607	2634.257143
2968.378371	2614.447619
2969.634935	2615.000000
2970.889772	2630.180952
2972.145937	2622.085714
2973.398848	2642.714286
2974.653088	2628.628571
2975.907129	2617.952381
2977.159444	2604.085714
2978.411560	2610.095238
2979.661952	2592.161905
2980.915199	2604.133333
2982.163669	2596.400000
2983.414994	2598.342857
2984.663069	2592.666667
2985.910948	2601.485714
2987.158629	2613.895238
2988.406114	2627.838095
2989.651876	2627.219048
2990.897443	2620.200000
2992.144337	2598.114286
2993.387987	2579.571429
2994.632965	2583.104762
2995.874699	2581.161905
2997.119285	2578.114286
2998.362152	2578.600000
2999.601778	2569.209524
3000.844254	2559.647619
3002.083491	2579.028571
3003.324054	2586.409524
3004.562902	2590.238095
3005.801554	2572.695238
3007.038492	2554.123810
3008.276756	2547.200000
3009.513306	2558.904762
3010.749661	2570.038095
3011.985823	2570.238095
3013.220272	2545.819048
3014.454527	2525.923810
3015.688589	2520.380952
3016.920939	2521.552381
3018.151577	2528.428571
3019.385061	2531.847619
3020.616833	2532.571429
3021.846895	2537.142857
3023.076765	2545.057143
3024.304925	2545.942857
3025.534411	2549.523810
3026.762188	2530.876190
3027.989775	2510.609524
3029.218687	2505.142857
3030.442857	2502.333333
3031.669870	2504.809524
3032.893659	2524.323810
3034.118775	2515.457143
3035.342184	2509.619048
3036.565403	2504.276190
3037.786917	2496.038095
3039.011272	2506.476190
3040.230892	2513.380952
3041.451838	2511.171429
3042.672595	2511.009524
3043.891648	2504.752381
3045.112027	2494.095238
3046.329189	2495.780952
3047.547676	2488.057143
3048.764461	2479.238095
3049.981059	2474.780952
3051.197468	2474.085714
3052.410665	2480.561905
3053.626699	2501.257143
3054.839521	2516.733333
3056.055180	2518.733333
3057.266116	2521.523810
3058.478377	2505.695238
3059.690452	2493.190476
3060.902340	2496.371429
3062.112530	2487.028571
3063.322534	2492.552381
3064.532352	2488.038095
3065.740475	2482.961905
3066.948411	2481.857143
3068.154652	2485.438095
3069.362218	2488.771429
3070.568089	2502.933333
3071.773776	2489.866667
3072.979277	2477.476190
3074.183085	2470.323810
3075.388217	2462.142857
3076.591657	2453.161905
3077.793404	2446.552381
3078.994968	2454.704762
3080.196347	2453.323810
3081.397544	2473.914286
3082.597049	2474.504762
3083.796372	2463.019048
3084.997018	2444.190476
3086.195974	2441.285714
3087.391736	2435.333333
3088.590327	2441.552381
3089.785724	2418.133333
3090.982444	2405.885714
3092.175972	2398.266667
3093.372328	2401.485714
3094.566998	2403.476190
3095.758477	2421.933333
3096.954287	2428.695238
3098.145404	2433.704762
3099.337843	2438.666667
3100.527095	2425.028571
3101.719173	2399.561905
3102.909566	2377.514286
3104.096774	2381.133333
3105.285305	2371.638095
3106.475157	2389.885714
3107.661826	2395.085714
3108.848315	2390.209524
3110.034624	2377.000000
3111.222255	2371.238095
3112.406705	2366.485714
3113.589474	2379.542857
3114.775066	2384.723810
3115.958979	2369.580952
3117.141213	2362.314286
3118.323268	2342.666667
3119.505146	2351.419048
3120.686845	2339.980952
3121.866866	2330.514286
3123.045211	2320.247619
3124.226376	2318.733333
3125.404367	2313.942857
3126.582180	2330.819048
3127.759816	2328.590476
3128.935777	2340.552381
3130.111561	2350.057143
3131.288667	2353.323810
3132.464098	2354.952381
3133.637856	2346.628571
3134.809941	2341.076190
3135.983348	2341.257143
3137.156578	2341.476190
3138.328137	2337.142857
3139.501016	2336.609524
3140.670729	2339.400000
3141.841761	2337.142857
3143.011124	2345.657143
3144.178817	2355.228571
3145.349325	2333.314286
3146.515174	2324.628571
3147.685333	2329.247619
3148.850834	2321.257143
3150.016162	2344.914286
3151.181316	2347.228571
3152.346296	2327.342857
3153.512596	2318.228571
3154.674244	2299.647619
3155.837211	2289.152381
3157.000006	2289.485714
3158.162628	2289.000000
3159.323585	2296.809524
3160.484369	2292.066667
3161.644981	2269.761905
3162.803929	2270.057143
3163.962706	2246.457143
3165.121311	2259.457143
3166.279744	2271.571429
3167.438005	2272.371429
3168.594604	2262.066667
3169.749542	2257.685714
3170.905799	2232.904762
3172.060395	2241.114286
3173.214821	2241.438095
3174.367587	2236.409524
3175.520183	2244.657143
3176.672608	2236.485714
3177.824864	2227.409524
3178.976949	2214.961905
3180.125889	2197.400000
3181.277635	2196.161905
3182.427723	2221.457143
3183.576155	2233.057143
3184.724418	2236.314286
3185.872511	2224.514286
3187.020436	2220.390476
3188.166706	2233.123810
3189.312807	2244.704762
3190.457253	2243.838095
3191.601532	2227.619048
3192.745643	2225.371429
3193.891071	2233.704762
3195.033361	2241.533333
3196.175484	2239.095238
3197.317439	2231.342857
3198.459227	2216.790476
3199.600849	2213.533333
3200.739334	2206.485714
3201.879137	2206.771429
3203.020258	2211.657143
3204.158244	2215.590476
3205.294581	2225.857143
3206.430752	2217.866667
3207.568241	2205.266667
3208.704080	2202.809524
3209.841237	2202.485714
3210.973781	2200.209524
3212.110607	2207.800000
3213.242821	2184.114286
3214.376352	2172.200000
3215.509719	2139.761905
3216.639958	2125.704762
3217.772995	2117.609524
3218.902906	2128.561905
3220.034133	2127.542857
3221.162236	2153.428571
3222.293135	2132.980952
3223.422390	2145.342857
3224.550002	2139.361905
3225.674492	2122.238095
3226.803256	2114.847619
3227.928899	2125.295238
3229.054380	2098.657143
3230.178219	2103.895238
3231.304852	2120.485714
3232.426888	2116.790476
3233.550240	2140.238095
3234.673430	2144.666667
3235.796458	2108.590476
3236.917846	2099.742857
3238.039073	2089.638095
3239.158661	2082.609524
3240.278088	2090.657143
3241.395877	2080.057143
3242.516458	2075.971429
3243.633926	2108.866667
3244.751233	2107.085714
3245.868380	2110.228571
3246.983891	2119.552381
3248.100717	2121.085714
3249.214432	2122.723810
3250.330937	2131.209524
3251.445808	2105.838095
3252.557570	2086.761905
3253.669172	2082.828571
3254.782090	2076.333333
3255.894849	2078.209524
3257.004501	2079.152381
3258.115467	2078.295238
3259.226275	2103.409524
3260.335452	2097.809524
3261.442997	2087.476190
3262.551856	2064.961905
3263.660558	2043.190476
3264.766157	2054.942857
3265.873070	2098.961905
3266.978354	2108.019048
3268.084953	2111.819048
3269.188451	2078.828571
3270.293263	2052.133333
3271.397918	2040.428571
3272.499474	2044.904762
3273.600874	2048.885714
3274.703589	2061.095238
3275.806146	2072.952381
3276.905607	2077.895238
3278.007852	2083.247619
3279.107001	2081.628571
3280.204526	2059.304762
3281.301895	2048.180952
3282.402047	2035.800000
3283.499105	2025.342857
3284.596008	2026.895238
3285.692756	2028.942857
3286.784946	2019.276190
3287.881384	2025.676190
3288.976200	2020.904762
3290.070862	2027.933333
3291.163902	2024.666667
3292.256788	2010.295238
3293.348053	1994.390476
3294.440631	1993.133333
3295.531588	1982.200000
3296.620926	1988.047619
3297.710111	1992.971429
3298.800609	1981.095238
3299.888022	1976.647619
3300.975283	1975.533333
3302.063856	1978.638095
3303.152276	1967.009524
3304.236149	1954.295238
3305.324264	1948.047619
3306.409298	1946.485714
3307.492715	1950.790476
3308.577445	1963.733333
3309.660560	1958.180952
3310.744986	1959.371429
3311.826334	1961.533333
3312.908994	1969.780952
3313.990040	1982.400000
3315.070935	1975.685714
3316.150216	1966.219048
3317.229348	1958.428571
3318.309790	1949.485714
3319.387158	1962.580952
3320.465838	1977.742857
3321.542907	1979.200000
3322.619825	1968.542857
3323.695132	1957.847619
3324.770290	1943.733333
3325.846759	1939.285714
3326.920158	1952.714286
3327.993408	1950.390476
3329.067968	1955.342857
3330.140920	1942.095238
3331.212263	1930.180952
3332.284918	1909.961905
3333.354505	1922.085714
3334.425403	1925.619048
3335.494694	1939.961905
3336.565296	1930.676190
3337.634291	1929.609524
3338.701680	1916.257143
3339.767464	1908.009524
3340.837474	1914.590476
3341.904421	1916.495238
3342.968306	1914.276190
3344.034959	1920.504762
3345.100007	1927.628571
3346.163452	1925.019048
3347.226751	1927.600000
3348.289903	1918.295238
3349.352909	1895.609524
3350.415769	1874.400000
3351.477027	1859.904762
3352.535228	1861.990476
3353.597650	1887.085714
3354.657015	1890.409524
3355.716235	1895.180952
3356.776765	1881.600000
3357.832785	1868.228571
3358.891569	1865.780952
3359.945846	1894.314286
3361.002887	1888.990476
3362.058330	1896.171429
3363.115081	1889.476190
3364.170234	1888.247619
3365.223790	1893.904762
3366.275750	1904.047619
3367.330471	1899.866667
3368.382143	1896.647619
3369.433672	1891.152381
3370.486509	1899.600000
3371.536299	1901.990476
3372.587398	1910.619048
3373.635451	1910.028571
3374.686263	1897.809524
3375.734031	1879.761905
3376.781656	1885.514286
3377.829138	1892.076190
3378.875028	1896.723810
3379.922226	1889.666667
3380.966382	1876.685714
3382.013296	1860.571429
3383.058618	1857.314286
3384.100899	1862.904762
3385.143040	1866.076190
3386.186488	1856.047619
3387.229796	1871.133333
3388.271513	1868.485714
3389.313089	1859.247619
3390.354525	1852.885714
3391.394371	1852.314286
3392.432629	1853.247619
3393.472196	1882.657143
3394.511621	1884.304762
3395.549459	1891.228571
3396.585710	1911.580952
3397.621822	1908.723810
3398.659241	1906.580952
3399.693627	1892.771429
3400.729320	1866.676190
3401.764874	1855.295238
3402.797397	1861.057143
3403.832673	1858.352381
3404.864918	1850.257143
3405.897025	1846.400000
3406.927548	1853.371429
3407.959378	1858.447619
3408.991070	1864.647619
3410.019734	1865.114286
3411.048261	1843.942857
3412.078095	1838.180952
3413.107790	1843.057143
3414.134460	1845.838095
3415.162437	1853.019048
3416.187389	1847.419048
3417.215091	1842.209524
3418.239770	1829.171429
3419.265755	1833.980952
3420.290160	1835.152381
3421.314429	1832.352381
3422.337119	1829.485714
3423.359673	1839.333333
3424.383533	1827.352381
3425.404373	1825.438095
3426.425078	1823.780952
3427.447088	1813.219048
3428.466080	1812.742857
3429.484937	1817.514286
3430.505099	1818.814286
3431.522245	1810.942857
