-117.734368	22.328571
-115.064768	44.080952
-112.398103	52.680952
-109.732190	52.095238
-107.069209	38.695238
-104.404799	52.733333
-101.743319	41.514286
-99.080409	47.933333
-96.422607	44.952381
-93.763375	55.266667
-91.104891	48.771429
-88.449331	57.600000
-85.792343	45.857143
-83.140453	49.342857
-80.487132	40.847619
-77.836732	46.457143
-75.184902	40.990476
-72.538163	47.247619
-69.889994	43.295238
-67.242569	45.609524
-64.598057	35.619048
-61.952117	35.266667
-59.311258	29.533333
-56.668970	48.314286
-54.029590	47.314286
-51.388782	52.704762
-48.748714	37.333333
-46.113718	31.542857
-43.477294	28.142857
-40.843772	42.942857
-38.208822	46.447619
-35.578937	59.038095
-32.945460	51.276190
-30.317045	52.923810
-27.689364	54.780952
-25.060254	63.171429
-22.436201	64.580952
-19.808559	76.704762
-17.185970	74.561905
-14.564113	67.800000
-11.942986	30.952381
-9.322589	199.504762
-6.705081	1300.276190
-4.086143	3039.219048
-1.470092	4523.733333
1.145231	4574.800000
3.759827	3279.266667
6.371540	1369.219048
8.984682	144.600000
11.592790	-179.971429
14.204480	34.504762
16.811139	57.180952
19.419226	53.704762
22.026589	55.190476
24.628927	50.771429
27.234843	54.009524
29.835737	53.704762
32.438059	61.885714
35.035364	56.095238
37.636244	59.876190
40.232110	53.238095
42.829403	68.276190
45.425977	67.885714
48.017542	72.076190
50.610535	72.114286
53.200667	78.980952
55.792227	65.942857
58.380927	74.780952
60.971054	61.152381
63.556183	56.733333
66.142738	51.457143
68.728580	57.342857
71.311568	54.600000
73.895982	68.438095
76.473268	66.609524
79.054120	71.704762
81.632123	71.285714
84.209416	73.742857
86.788135	70.266667
89.361872	74.419048
91.937037	68.790476
94.509358	66.542857
97.080971	64.647619
99.649744	74.914286
102.219944	78.828571
104.787306	97.038095
107.356093	100.542857
109.922044	110.000000
112.485160	118.038095
115.051832	155.361905
117.609283	204.457143
120.172419	275.142857
122.730595	359.628571
125.292326	507.838095
127.849100	725.866667
130.407301	1075.142857
132.960549	1583.685714
135.513098	2272.828571
138.069198	3158.219048
140.620350	4184.495238
143.170805	5172.980952
145.720562	6058.800000
148.267501	6680.819048
150.813743	7104.095238
153.361411	7330.628571
155.908383	7441.619048
158.450420	7464.514286
160.991763	7468.552381
163.532413	7451.076190
166.074489	7473.885714
168.613753	7467.000000
171.150209	7480.657143
173.685973	7464.514286
176.223163	7438.009524
178.759662	7420.190476
181.293355	7418.400000
183.824245	7428.533333
186.354446	7449.980952
188.886072	7458.742857
191.414897	7471.580952
193.940923	7490.104762
196.466263	7531.657143
198.993029	7541.085714
201.516997	7541.600000
204.040281	7540.895238
206.562880	7517.276190
209.082686	7533.580952
211.601809	7535.171429
214.120249	7509.561905
216.640113	7540.828571
219.152976	7584.714286
221.669370	7634.923810
224.185082	7727.933333
226.695904	7763.666667
229.208152	7765.295238
231.717616	7802.676190
234.226402	7825.838095
236.734510	7878.276190
239.244041	7914.866667
241.748692	7893.571429
244.252667	7877.466667
246.758067	7877.400000
249.258591	7858.885714
251.762638	7898.295238
254.259714	7916.647619
256.760314	7901.676190
259.258142	7944.838095
261.755297	7981.057143
264.251779	7992.742857
266.743398	7989.428571
269.238537	7985.447619
271.730910	7982.323810
274.222612	8006.361905
276.711550	8016.457143
279.201913	8023.961905
281.689513	7994.828571
284.174354	8000.200000
286.662710	8038.028571
289.144126	8091.466667
291.629056	8143.371429
294.109141	8200.000000
296.592738	8246.638095
299.071492	8304.561905
301.551670	8335.704762
304.029095	8361.961905
306.505857	8344.723810
308.981956	8318.161905
311.455306	8278.209524
313.927994	8260.657143
316.400021	8261.523810
318.871387	8339.657143
321.340009	8405.019048
323.807971	8430.161905
326.277355	8425.933333
328.741917	8373.238095
331.209983	8320.314286
333.673229	8322.038095
336.135817	8338.819048
338.597749	8361.952381
341.059024	8374.838095
343.517565	8380.123810
345.977528	8389.314286
348.434758	8374.714286
350.891334	8395.523810
353.347256	8392.485714
355.800449	8358.971429
358.255063	8313.209524
360.704876	8301.409524
363.158185	8316.552381
365.606696	8353.342857
368.054556	8363.914286
370.503837	8389.542857
372.948325	8346.780952
375.394235	8347.019048
377.839496	8377.323810
380.282037	8380.742857
382.723931	8400.504762
385.165178	8407.019048
387.603709	8367.380952
390.043662	8365.019048
392.480901	8369.904762
394.915428	8386.676190
397.353443	8404.847619
399.786681	8412.971429
402.221341	8421.933333
404.651227	8463.295238
407.084599	8473.571429
409.513201	8477.638095
411.941162	8441.095238
414.370543	8410.400000
416.795159	8408.819048
419.221197	8451.038095
421.646594	8492.371429
424.071351	8557.400000
426.491350	8597.609524
428.912770	8601.228571
431.331493	8608.504762
433.751637	8603.990476
436.169086	8622.800000
438.587955	8653.266667
441.004131	8708.314286
443.415560	8717.323810
445.830465	8740.428571
448.242680	8741.380952
450.654261	8750.076190
453.065208	8739.361905
455.473469	8752.228571
457.881097	8745.295238
460.288093	8769.742857
462.694458	8791.009524
465.098140	8816.104762
467.501192	8831.276190
469.903614	8840.742857
472.305406	8852.047619
474.704521	8865.761905
477.105055	8900.514286
479.504960	8942.114286
481.900142	8982.504762
484.298791	8992.780952
486.692720	8997.800000
489.086023	9008.371429
491.478700	9018.200000
493.870752	9060.514286
496.264222	9162.342857
498.652981	9285.409524
501.039073	9471.457143
503.426584	9717.495238
505.813473	10075.419048
508.197698	10765.228571
510.583342	12203.323810
512.966323	16298.019048
515.346644	24327.000000
517.728384	33964.180952
520.107465	39990.914286
522.487965	38855.923810
524.865807	31191.761905
527.240994	21584.276190
529.615563	14792.180952
531.991551	12044.828571
534.364885	11262.809524
536.739637	10808.780952
539.109704	10473.161905
541.479155	10201.142857
543.850024	10000.019048
546.216213	9828.200000
548.583820	9700.742857
550.948781	9577.247619
553.313129	9497.352381
555.676865	9449.285714
558.042017	9426.571429
560.402498	9417.295238
562.764397	9445.704762
565.123655	9437.057143
567.480276	9431.780952
569.840341	9433.885714
572.193715	9391.361905
574.550534	9354.028571
576.904718	9317.438095
579.258294	9293.761905
581.611261	9311.028571
583.961597	9332.857143
586.313349	9337.552381
588.658425	9354.333333
591.008965	9357.352381
593.352831	9381.742857
595.702159	9406.123810
598.046839	9399.761905
600.388893	9401.895238
602.732365	9402.219048
605.073214	9422.780952
607.413461	9424.466667
609.751087	9435.714286
612.092148	9409.771429
614.428571	9380.466667
616.766411	9335.000000
619.101634	9338.952381
621.434241	9337.019048
623.768264	9360.276190
626.099674	9338.095238
628.430485	9328.704762
630.760698	9325.161905
633.090313	9382.380952
635.415306	9461.457143
637.745740	9531.019048
640.071552	9547.076190
642.394758	9533.857143
644.719379	9482.114286
647.041395	9474.200000
649.362818	9465.914286
651.681637	9490.390476
654.001872	9495.771429
656.321514	9515.123810
658.638555	9499.657143
660.955004	9513.200000
663.268855	9569.047619
665.584122	9619.019048
667.896792	9651.133333
670.210877	9762.828571
672.520362	9758.057143
674.831263	9730.390476
677.139571	9735.238095
679.447291	9720.819048
681.756425	9674.142857
684.060968	9713.685714
686.364923	9693.095238
688.668293	9659.219048
690.973077	9651.190476
693.273275	9656.123810
695.574887	9619.247619
697.875915	9617.285714
700.172360	9609.600000
702.470221	9591.980952
704.767498	9595.019048
707.064192	9567.676190
709.356310	9555.800000
711.651839	9571.857143
713.942794	9571.428571
716.235164	9623.276190
718.524959	9651.400000
720.814173	9630.152381
723.102808	9656.885714
725.388871	9730.580952
727.676347	9736.619048
729.961252	9784.009524
732.245580	9770.723810
734.527339	9737.580952
736.810512	9749.723810
739.093108	9780.400000
741.371148	9768.590476
743.650603	9802.104762
745.929482	9825.228571
748.207785	9845.533333
750.481539	9885.342857
752.756707	9885.961905
755.031301	9902.209524
757.303335	9954.771429
759.576783	10000.714286
761.847673	10037.704762
764.116007	10066.761905
766.385754	10074.152381
768.652947	10085.409524
770.919569	10119.857143
773.185621	10115.361905
775.449122	10151.285714
777.714036	10164.866667
779.978380	10193.266667
782.238195	10216.276190
784.499422	10252.438095
786.760082	10256.114286
789.018196	10334.238095
791.273765	10362.266667
793.532725	10398.828571
795.785186	10410.142857
798.043014	10451.352381
800.296322	10463.980952
802.547091	10530.685714
804.799272	10552.523810
807.048914	10532.066667
809.299969	10475.800000
811.546512	10470.000000
813.794467	10490.657143
816.039888	10556.590476
818.286720	10599.742857
820.532991	10621.066667
822.774758	10609.209524
825.019907	10589.257143
827.258584	10559.085714
829.500643	10565.247619
831.738204	10548.571429
833.977177	10590.590476
836.213623	10610.466667
838.451480	10651.514286
840.686812	10664.266667
842.919621	10758.419048
845.153841	10806.952381
847.385539	10842.828571
849.616681	10847.400000
851.847270	10851.009524
854.077303	10852.866667
856.306783	10867.942857
858.531781	10858.104762
860.760154	10824.590476
862.984048	10831.923810
865.209352	10812.628571
867.430181	10798.047619
869.654382	10745.866667
871.874110	10688.238095
874.095249	10648.171429
876.315837	10677.314286
878.533915	10649.971429
880.753403	10618.495238
882.968425	10615.438095
885.182900	10611.200000
887.396826	10640.838095
889.610206	10667.561905
891.823038	10625.238095
894.035324	10611.095238
896.245107	10624.590476
898.454345	10630.961905
900.663038	10658.485714
902.869232	10651.428571
905.076835	10667.580952
907.281940	10706.942857
909.486502	10749.028571
911.688569	10815.600000
913.892045	10861.161905
916.093027	10867.152381
918.293468	10862.619048
920.495316	10874.600000
922.690774	10938.838095
924.889591	11027.219048
927.083969	11108.028571
929.281705	11194.285714
931.475005	11302.742857
933.669714	11464.942857
935.861937	11641.742857
938.053622	11795.761905
940.244769	11909.819048
942.433432	11974.600000
944.621560	12027.533333
946.807207	12007.266667
948.996206	11976.676190
951.180782	11967.676190
953.364823	12031.847619
955.552214	12082.342857
957.731301	12139.780952
959.913739	12181.295238
962.095643	12224.495238
964.275073	12271.095238
966.452029	12370.171429
968.630394	12395.533333
970.810166	12413.409524
972.983589	12441.666667
975.160358	12442.333333
977.332720	12459.066667
979.506490	12477.266667
981.675856	12479.123810
983.848566	12469.866667
986.018811	12442.542857
988.188527	12376.066667
990.357714	12314.076190
992.522504	12217.876190
994.690635	12117.561905
996.854372	12030.257143
999.019515	11933.666667
1001.182199	11898.228571
1003.344358	11900.695238
1005.504060	11909.276190
1007.663238	11905.142857
1009.823822	11912.123810
1011.981951	11878.800000
1014.139556	11869.914286
1016.296638	11892.295238
1018.453197	11911.847619
1020.605376	11899.780952
1022.758961	11888.638095
1024.912025	11860.742857
1027.062641	11820.714286
1029.214662	11820.923810
1031.362310	11798.714286
1033.513290	11778.438095
1035.659899	11775.390476
1037.805989	11755.066667
1039.951561	11731.380952
1042.098538	11688.980952
1044.239226	11655.866667
1046.383244	11634.914286
1048.524821	11630.009524
1050.665882	11633.733333
1052.808347	11672.095238
1054.944533	11665.904762
1057.084045	11681.304762
1059.219201	11636.590476
1061.357682	11599.314286
1063.491809	11546.323810
1065.625423	11546.904762
1067.760442	11531.828571
1069.891111	11593.857143
1072.023185	11617.619048
1074.152830	11611.704762
1076.281963	11602.876190
1078.410584	11618.380952
1080.538694	11611.952381
1082.664378	11653.161905
1084.789552	11693.952381
1086.916130	11682.895238
1089.038370	11705.247619
1091.162015	11723.761905
1093.281326	11712.314286
1095.405865	11726.123810
1097.524159	11735.123810
1099.643858	11771.666667
1101.761138	11786.733333
1103.877912	11819.047619
1105.994179	11873.219048
1108.108030	11966.295238
1110.223286	12002.428571
1112.334218	12057.466667
1114.448463	12021.447619
1116.558387	12007.847619
1118.669715	11959.076190
1120.780538	11946.400000
1122.887045	11898.200000
1124.996862	11908.390476
1127.102364	11880.285714
1129.209269	11924.009524
1131.309959	11892.638095
1133.415861	11901.009524
1135.517454	11875.057143
1137.620450	11854.028571
1139.722945	11840.485714
1141.819233	11903.647619
1143.920729	11894.390476
1146.017921	11923.400000
1148.114616	11950.228571
1150.210812	11935.628571
1152.306511	11952.942857
1154.401711	11979.190476
1156.494516	11990.219048
1158.588722	12034.314286
1160.676737	12097.095238
1162.769950	12074.114286
1164.856975	12077.076190
1166.947299	12043.571429
1169.033336	12052.619048
1171.122670	12108.009524
1173.205823	12155.352381
1175.290378	12155.038095
1177.376335	12180.571429
1179.458010	12197.838095
1181.541087	12238.000000
1183.621778	12313.171429
1185.701977	12349.552381
1187.781685	12360.009524
1189.860902	12360.990476
1191.937737	12320.809524
1194.012191	12257.628571
1196.089936	12231.780952
1198.163412	12220.438095
1200.238288	12224.666667
1202.308897	12311.066667
1204.380908	12342.542857
1206.450542	12371.619048
1208.521577	12371.638095
1210.592124	12383.980952
1212.658410	12388.180952
1214.726097	12422.752381
1216.791412	12454.809524
1218.858127	12477.990476
1220.920586	12506.104762
1222.986330	12595.647619
1225.047821	12654.857143
1227.110711	12673.780952
1229.171234	12656.342857
1231.231273	12632.838095
1233.290830	12680.114286
1235.348021	12731.419048
1237.404731	12765.400000
1239.459078	12752.209524
1241.516705	12729.866667
1243.571970	12730.695238
1245.622994	12742.990476
1247.675418	12759.495238
1249.727362	12820.342857
1251.776948	12847.695238
1253.826055	12881.704762
1255.874684	12892.790476
1257.922834	12908.323810
1259.970505	12862.961905
1262.013947	12855.733333
1264.060663	12839.466667
1266.105026	12868.809524
1268.148913	12924.438095
1270.190448	12968.761905
1272.229634	12919.085714
1274.272093	12918.704762
1276.310329	12909.523810
1278.349964	12950.628571
1280.389124	13024.523810
1282.424065	13019.333333
1284.460405	13010.609524
1286.494401	13045.466667
1288.529795	13035.028571
1290.560975	13082.066667
1292.593553	13147.723810
1294.625660	13160.400000
1296.655426	13213.752381
1298.686590	13253.514286
1300.713546	13242.523810
1302.741900	13237.742857
1304.766050	13200.666667
1306.793464	13195.390476
1308.816676	13215.047619
1310.841286	13238.961905
1312.863562	13228.952381
1314.887235	13220.180952
1316.908575	13204.961905
1318.929447	13235.685714
1320.949852	13266.914286
1322.966064	13261.685714
1324.983673	13211.838095
1326.998954	13171.914286
1329.017494	13103.542857
1331.031845	13091.657143
1333.043870	13096.095238
1335.059152	13052.666667
1337.070249	13051.038095
1339.082743	13036.047619
1341.091054	13027.895238
1343.102621	13030.523810
1345.108148	13025.266667
1347.116931	13001.409524
1349.121536	13008.104762
1351.129395	12998.590476
1353.136792	13002.142857
1355.138158	13035.428571
1357.140921	13059.047619
1359.143223	13094.133333
1361.145066	13136.057143
1363.146449	13195.180952
1365.145519	13220.409524
1367.144130	13244.695238
1369.142283	13201.219048
1371.139977	13163.980952
1373.133509	13143.400000
1375.128437	13200.209524
1377.122907	13261.285714
1379.116922	13316.485714
1381.108628	13288.733333
1383.099880	13240.971429
1385.088826	13170.885714
1387.079167	13154.104762
1389.069053	13119.523810
1391.056636	13132.971429
1393.043764	13123.200000
1395.028591	13135.085714
1397.014813	13151.342857
1398.998735	13184.114286
1400.982204	13202.971429
1402.965220	13232.419048
1404.945939	13279.695238
1406.928052	13325.800000
1408.907869	13358.028571
1410.887234	13373.542857
1412.862461	13377.295238
1414.840927	13344.266667
1416.817098	13338.171429
1418.792821	13337.723810
1420.768094	13351.323810
1422.741076	13371.228571
1424.713610	13380.123810
1426.685696	13373.561905
1428.657335	13408.704762
1430.624845	13442.961905
1432.597429	13461.009524
1434.562208	13493.809524
1436.532058	13553.838095
1438.497785	13577.952381
1440.464904	13644.047619
1442.429740	13675.361905
1444.390456	13676.780952
1446.356241	13702.933333
1448.316070	13743.428571
1450.277292	13766.209524
1452.239907	13776.619048
1454.198407	13824.180952
1456.156464	13808.314286
1458.114080	13823.600000
1460.071254	13824.304762
1462.026152	13820.228571
1463.982442	13802.200000
1465.936458	13817.161905
1467.890034	13810.552381
1469.841337	13821.504762
1471.794032	13758.428571
1473.744456	13707.838095
1475.694440	13684.380952
1477.643986	13640.676190
1479.591263	13634.438095
1481.536273	13624.114286
1483.482674	13603.076190
1485.428638	13582.600000
1487.374165	13585.209524
1489.317427	13532.495238
1491.260252	13469.666667
1493.200814	13461.895238
1495.142767	13469.323810
1497.082458	13449.600000
1499.021715	13395.342857
1500.960536	13336.990476
1502.897098	13325.419048
1504.835051	13355.466667
1506.770745	13340.123810
1508.706006	13378.104762
1510.639011	13390.400000
1512.571583	13398.400000
1514.503723	13401.476190
1516.435431	13419.638095
1518.364885	13390.914286
1520.295730	13436.847619
1522.226143	13494.390476
1524.152484	13524.504762
1526.080216	13487.466667
1528.005697	13480.057143
1529.930749	13475.209524
1531.855372	13490.038095
1533.779566	13504.533333
1535.701512	13548.561905
1537.624849	13547.133333
1539.545940	13574.571429
1541.464786	13610.323810
1543.385021	13622.876190
1545.303014	13630.523810
1547.220580	13663.028571
1549.135904	13681.876190
1551.052618	13721.647619
1552.965277	13736.952381
1554.881140	13730.876190
1556.794763	13731.219048
1558.706149	13735.438095
1560.618923	13726.209524
1562.527648	13720.009524
1564.437762	13703.342857
1566.347453	13673.542857
1568.256721	13687.057143
1570.163755	13712.095238
1572.068556	13743.104762
1573.974746	13752.104762
1575.878704	13757.333333
1577.782241	13776.942857
1579.685358	13820.885714
1581.586245	13845.552381
1583.488521	13827.476190
1585.388569	13769.161905
1587.290004	13740.714286
1589.187406	13740.695238
1591.084389	13761.114286
1592.980954	13765.114286
1594.878907	13746.133333
1596.771025	13756.609524
1598.666336	13807.876190
1600.561230	13885.009524
1602.453902	13957.790476
1604.346158	14001.885714
1606.236193	14007.961905
1608.125814	14064.295238
1610.015018	14076.076190
1611.903808	14071.561905
1613.790380	14006.190476
1615.678340	13951.400000
1617.562283	13892.914286
1619.447614	13893.828571
1621.332530	13830.571429
1623.215233	13806.380952
1625.099323	13793.161905
1626.979402	13828.209524
1628.860867	13882.285714
1630.740122	13932.904762
1632.620763	13935.171429
1634.495600	13999.990476
1636.375418	14056.809524
1638.251232	14120.400000
1640.126635	14154.342857
1642.003424	14120.600000
1643.874417	14053.733333
1645.748591	13955.771429
1647.618767	13867.085714
1649.492123	13832.457143
1651.363276	13836.761905
1653.232227	13841.438095
1655.102564	13806.847619
1656.968907	13757.961905
1658.836636	13760.552381
1660.702166	13712.428571
1662.569082	13643.304762
1664.432009	13662.428571
1666.296321	13594.666667
1668.158437	13552.238095
1670.020149	13543.866667
1671.883245	13485.771429
1673.744147	13412.047619
1675.602855	13417.257143
1677.461160	13365.333333
1679.320850	13320.323810
1681.174772	13305.190476
1683.031868	13334.771429
1684.888561	13305.219048
1686.741278	13295.800000
1688.597165	13238.714286
1690.449079	13195.876190
1692.300592	13179.809524
1694.151704	13187.390476
1696.002416	13159.361905
1697.852727	13171.266667
1699.700853	13143.514286
1701.550364	13168.123810
1703.394126	13167.876190
1705.242837	13176.666667
1707.085802	13152.676190
1708.931934	13144.619048
1710.774103	13170.790476
1712.619438	13235.019048
1714.459032	13288.876190
1716.300010	13338.523810
1718.142371	13330.933333
1719.980776	13326.628571
1721.820564	13346.428571
1723.658177	13309.600000
1725.495394	13272.133333
1727.330438	13224.523810
1729.166865	13186.266667
1731.001120	13163.180952
1732.834980	13186.942857
1734.668447	13164.476190
1736.497967	13110.380952
1738.330646	13064.133333
1740.159381	13007.628571
1741.991273	12948.657143
1743.819224	12888.419048
1745.646782	12873.942857
1747.473948	12833.657143
1749.300723	12859.723810
1751.127107	12864.580952
1752.949553	12857.590476
1754.775155	12810.866667
1756.596822	12767.514286
1758.419871	12752.923810
1760.240758	12775.266667
1762.061257	12786.990476
1763.883137	12799.019048
1765.699317	12777.657143
1767.518649	12706.542857
1769.334054	12750.952381
1771.152609	12780.809524
1772.967239	12812.285714
1774.781483	12835.819048
1776.595339	12808.323810
1778.408809	12792.361905
1780.220126	12819.571429
1782.032824	12862.000000
1783.845135	12872.476190
1785.653529	12852.000000
1787.463303	12812.238095
1789.269163	12810.761905
1791.078168	12798.104762
1792.883260	12811.771429
1794.689733	12803.695238
1796.495822	12768.657143
1798.298001	12742.285714
1800.103323	12755.228571
1801.904737	12751.380952
1803.707531	12787.876190
1805.506419	12821.152381
1807.306688	12826.400000
1809.106575	12792.657143
1810.904321	12767.657143
1812.701685	12746.485714
1814.498670	12779.123810
1816.295274	12794.257143
1818.089739	12802.638095
1819.885583	12812.095238
1821.675773	12846.352381
1823.470858	12869.161905
1825.260292	12865.123810
1827.052862	12847.647619
1828.843297	12859.800000
1830.631598	12876.161905
1832.423034	12926.171429
1834.208824	12907.714286
1835.995994	12913.400000
1837.781032	12877.161905
1839.569204	12888.933333
1841.353490	12871.028571
1843.135647	12887.828571
1844.919182	12868.704762
1846.700589	12929.428571
1848.483375	12930.419048
1850.262280	12997.104762
1852.042565	12958.200000
1853.820723	12902.780952
1855.600260	12854.409524
1857.377672	12868.771429
1859.152960	12873.161905
1860.929626	12920.238095
1862.704170	12872.428571
1864.480092	12810.923810
1866.250393	12773.485714
1868.023822	12800.628571
1869.795131	12798.866667
1871.566070	12817.657143
1873.338385	12830.276190
1875.105087	12869.438095
1876.874915	12884.438095
1878.640879	12889.819048
1880.409966	12821.361905
1882.175193	12796.657143
1883.940050	12781.295238
1885.706285	12805.933333
1887.468661	12799.085714
1889.230670	12785.000000
1890.992311	12764.657143
1892.753586	12786.447619
1894.514493	12836.123810
1896.275034	12835.609524
1898.033465	12832.628571
1899.791530	12813.057143
1901.547488	12755.009524
1903.304822	12719.638095
1905.061791	12680.009524
1906.816653	12656.514286
1908.569411	12672.019048
1910.321805	12706.390476
1912.075574	12712.390476
1913.827240	12692.657143
1915.576804	12639.847619
1917.327743	12622.123810
1919.078320	12618.152381
1920.825057	12653.619048
1922.573171	12698.161905
1924.319185	12704.561905
1926.066575	12704.790476
1927.811866	12713.409524
1929.555060	12716.723810
1931.299629	12697.200000
1933.042103	12719.066667
1934.784216	12748.980952
1936.525969	12755.838095
1938.267363	12797.990476
1940.006662	12803.609524
1941.745603	12795.409524
1943.484185	12817.509524
1945.220676	12854.076190
1946.956809	12853.109524
1948.694316	12874.609524
1950.428001	12853.576190
1952.163061	12824.352381
1953.896033	12782.714286
1955.628647	12802.257143
1957.360906	12834.238095
1959.092808	12838.104762
1960.822624	12851.847619
1962.550355	12804.514286
1964.279461	12773.666667
1966.008212	12806.571429
1967.734879	12866.523810
1969.461192	12893.466667
1971.188878	12921.600000
1972.911028	12901.638095
1974.636279	12926.923810
1976.357724	12964.361905
1978.082268	13000.380952
1979.804733	13066.638095
1981.523394	13053.761905
1983.245154	13046.466667
1984.963112	13045.190476
1986.682443	13041.561905
1988.397975	13041.676190
1990.118327	13086.523810
1991.834881	13085.504762
1993.547638	13095.666667
1995.263492	13111.228571
1996.977272	13136.295238
1998.690703	13178.542857
2000.402063	13219.066667
2002.114795	13258.285714
2003.823737	13240.961905
2005.535772	13238.123810
2007.242297	13252.038095
2008.951914	13306.133333
2010.659465	13364.609524
2012.366668	13412.885714
2014.071804	13396.638095
2015.776595	13409.847619
2017.482757	13433.438095
2019.185137	13446.847619
2020.888889	13477.447619
2022.590577	13455.333333
2024.291921	13438.228571
2025.992919	13401.114286
2027.691856	13359.209524
2029.392165	13349.542857
2031.088699	13384.704762
2032.786604	13402.266667
2034.482450	13427.352381
2036.181382	13395.828571
2037.874828	13378.800000
2039.569645	13384.219048
2041.264120	13395.400000
2042.954826	13376.028571
2044.648616	13317.838095
2046.338639	13293.190476
2048.030033	13296.800000
2049.719374	13284.219048
2051.410085	13273.142857
2053.097033	13220.133333
2054.783642	13161.209524
2056.471621	13152.342857
2058.155839	13179.304762
2059.841429	13187.666667
2061.526679	13201.714286
2063.209881	13188.390476
2064.894452	13184.990476
2066.573561	13161.180952
2068.257455	13163.295238
2069.935889	13123.552381
2071.617399	13112.980952
2073.295159	13097.047619
2074.972581	13119.476190
2076.651373	13123.914286
2078.328123	13143.390476
2080.002831	13155.533333
2081.678908	13159.609524
2083.352945	13109.485714
2085.026646	13078.133333
2086.700012	13006.819048
2088.371340	12972.571429
2090.042333	12984.342857
2091.712992	13073.971429
2093.383316	13089.142857
2095.053307	13096.819048
2096.721262	13027.371429
2098.388884	12996.904762
2100.054471	12959.466667
2101.721427	13039.333333
2103.386350	13047.238095
2105.050941	13086.361905
2106.713500	13101.476190
2108.377427	13143.676190
2110.039324	13115.123810
2111.700889	13127.723810
2113.362123	13143.428571
2115.021329	13182.047619
2116.680204	13234.019048
2118.338750	13290.523810
2119.996966	13269.352381
2121.651458	13250.914286
2123.309015	13259.057143
2124.966243	13225.647619
2126.619749	13238.857143
2128.274623	13258.285714
2129.925779	13223.428571
2131.579996	13234.866667
2133.230497	13217.400000
2134.882364	13148.761905
2136.528823	13146.361905
2138.180037	13145.304762
2139.827537	13146.047619
2141.476404	13189.190476
2143.123253	13218.561905
2144.769775	13215.190476
2146.415972	13237.295238
2148.058461	13214.676190
2149.704008	13182.780952
2151.345848	13160.457143
2152.990745	13155.266667
2154.631937	13185.276190
2156.272805	13215.800000
2157.913349	13233.819048
2159.551881	13261.923810
2161.191779	13246.895238
2162.827977	13241.066667
2164.465542	13225.733333
2166.102783	13218.123810
2167.738015	13196.323810
2169.372926	13163.285714
2171.007515	13133.723810
2172.641782	13129.019048
2174.272356	13107.361905
2175.905982	13103.590476
2177.535916	13100.876190
2179.167215	13076.323810
2180.796509	13104.561905
2182.425484	13097.800000
2184.054139	13125.038095
2185.682475	13101.304762
2187.308809	13136.180952
2188.934824	13150.228571
2190.558838	13142.904762
2192.184216	13117.761905
2193.807595	13135.247619
2195.432337	13121.771429
2197.053399	13119.314286
2198.674144	13106.580952
2200.296254	13090.923810
2201.916366	13090.028571
2203.534481	13068.447619
2205.152281	13070.295238
2206.769766	13010.200000
2208.386935	12994.580952
2210.003789	13024.066667
2211.620327	13033.619048
2213.234873	13028.228571
2214.847426	13027.133333
2216.461343	13001.876190
2218.073269	12986.104762
2219.686558	12946.171429
2221.297857	12890.095238
2222.907166	12883.723810
2224.517839	12853.647619
2226.126523	12832.085714
2227.734894	12786.704762
2229.341279	12745.600000
2230.949027	12758.276190
2232.554788	12786.971429
2234.160238	12804.819048
2235.763703	12806.419048
2237.368531	12846.314286
2238.971375	12878.638095
2240.572237	12901.580952
2242.174460	12923.380952
2243.774702	12911.904762
2245.376306	12901.304762
2246.974258	12948.771429
2248.573572	12961.485714
2250.170906	12921.180952
2251.767931	12895.085714
2253.366319	12860.295238
2254.961058	12881.561905
2256.553820	12937.457143
2258.147945	12964.333333
2259.743431	12927.628571
2261.335273	12901.638095
2262.926808	12844.885714
2264.519704	12824.266667
2266.107291	12794.095238
2267.699575	12785.952381
2269.286551	12774.952381
2270.876555	12788.780952
2272.461256	12762.428571
2274.050649	12748.038095
2275.634741	12736.895238
2277.220194	12724.485714
2278.803677	12705.152381
2280.390187	12616.209524
2281.973062	12542.533333
2283.555635	12548.828571
2285.137904	12541.990476
2286.716544	12561.276190
2288.298207	12556.533333
2289.876242	12476.414286
2291.457300	12421.009524
2293.034731	12425.957143
2294.610199	12376.342857
2296.188689	12402.119048
2297.763555	12397.895238
2299.338120	12403.352381
2300.912385	12395.314286
2302.486349	12377.647619
2304.060013	12329.485714
2305.633376	12320.104762
2307.203121	12329.771429
2308.772567	12362.295238
2310.345031	12406.038095
2311.912221	12436.485714
2313.482429	12411.038095
2315.049022	12422.409524
2316.616975	12401.000000
2318.182972	12391.780952
2319.748672	12387.095238
2321.314075	12386.961905
2322.877523	12407.314286
2324.442331	12449.019048
2326.003531	12433.800000
2327.567745	12447.076190
2329.126697	12436.457143
2330.688664	12427.028571
2332.248680	12443.323810
2333.808400	12409.314286
2335.366171	12378.571429
2336.923647	12396.857143
2338.480829	12429.200000
2340.036063	12461.009524
2341.591004	12487.476190
2343.145651	12508.400000
2344.700003	12495.038095
2346.254063	12493.733333
2347.807828	12458.933333
2349.359650	12450.533333
2350.909528	12435.600000
2352.462414	12455.952381
2354.010058	12433.809524
2355.560709	12426.657143
2357.107769	12388.600000
2358.656187	12385.019048
2360.204314	12356.247619
2361.748852	12378.000000
2363.294748	12341.400000
2364.838706	12367.961905
2366.384021	12328.514286
2367.925751	12313.038095
2369.468838	12302.971429
2371.009989	12302.723810
2372.550852	12244.533333
2374.091424	12270.752381
2375.631708	12267.323810
2377.171703	12266.695238
2378.708120	12256.447619
2380.247538	12231.695238
2381.783379	12199.238095
2383.320576	12214.285714
2384.854198	12241.123810
2386.390821	12242.133333
2387.925512	12224.209524
2389.458274	12218.914286
2390.990749	12212.419048
2392.521296	12254.076190
2394.054841	12297.514286
2395.583175	12310.190476
2397.112866	12289.142857
2398.642271	12258.638095
2400.171390	12240.171429
2401.700225	12245.704762
2403.223854	12293.295238
2404.752120	12300.219048
2406.275182	12292.333333
2407.802878	12277.028571
2409.323735	12323.780952
2410.849225	12348.895238
2412.371154	12353.904762
2413.894439	12364.800000
2415.415803	12355.914286
2416.935247	12375.295238
2418.456046	12429.104762
2419.974926	12427.990476
2421.493524	12381.142857
2423.010205	12354.600000
2424.528240	12299.161905
2426.045994	12290.447619
2427.560197	12305.000000
2429.074119	12315.400000
2430.587761	12314.609524
2432.102758	12279.247619
2433.614206	12266.647619
2435.127009	12296.476190
2436.637898	12297.990476
2438.148509	12296.038095
2439.657208	12271.561905
2441.168893	12221.361905
2442.677035	12196.895238
2444.184899	12225.904762
2445.692485	12215.200000
2447.196530	12231.676190
2448.703561	12228.333333
2450.208683	12260.409524
2451.713528	12262.000000
2453.216465	12257.971429
2454.719127	12244.533333
2456.221512	12183.276190
2457.721992	12095.133333
2459.223825	12076.685714
2460.723753	12019.390476
2462.223407	11982.400000
2463.722784	11974.619048
2465.220259	11963.133333
2466.715832	11966.028571
2468.214385	11981.914286
2469.709410	11938.476190
2471.205787	11919.457143
2472.698638	11894.247619
2474.192842	11858.847619
2475.686772	11851.923810
2477.177178	11847.304762
2478.670562	11834.809524
2480.162048	11827.704762
2481.651637	11798.676190
2483.140954	11760.723810
2484.628376	11787.028571
2486.118773	11794.771429
2487.605651	11816.790476
2489.093881	11805.628571
2490.578595	11785.428571
2492.063038	11805.457143
2493.548833	11795.066667
2495.032735	11759.371429
2496.517989	11732.123810
2497.998108	11675.104762
2499.481201	11658.790476
2500.962403	11703.533333
2502.443336	11702.866667
2503.922380	11683.609524
2505.401155	11658.561905
2506.879662	11633.295238
2508.357901	11626.600000
2509.835871	11664.590476
2511.310336	11713.238095
2512.787771	11743.600000
2514.261702	11723.180952
2515.736983	11703.161905
2517.211998	11683.876190
2518.683511	11693.171429
2520.156374	11712.904762
2521.627355	11766.952381
2523.099686	11773.095238
2524.566904	11761.323810
2526.037087	11783.419048
2527.505390	11813.419048
2528.973428	11783.200000
2530.441201	11797.780952
2531.908709	11842.314286
2533.375952	11867.609524
2534.839703	11930.752381
2536.304804	11977.342857
2537.768028	11991.542857
2539.232602	11976.857143
2540.693686	11987.123810
2542.156120	11976.780952
2543.618291	11965.714286
2545.076976	11980.857143
2546.540233	12014.038095
2547.998393	11975.533333
2549.457902	11965.609524
2550.912317	11932.152381
2552.371303	11924.161905
2553.828417	11918.800000
2555.283660	11889.314286
2556.738642	11871.533333
2558.191754	11863.495238
2559.646215	11820.561905
2561.098807	11839.990476
2562.551139	11849.190476
2564.001603	11836.323810
2565.455023	11838.933333
2566.903361	11828.019048
2568.354655	11806.885714
2569.804082	11819.247619
2571.250037	11855.980952
2572.698947	11887.704762
2574.144387	11893.495238
2575.591175	11895.942857
2577.036099	11897.114286
2578.480765	11841.638095
2579.926780	11831.257143
2581.369327	11865.685714
2582.813222	11854.371429
2584.253652	11852.800000
2585.695429	11836.457143
2587.135347	11785.790476
2588.576612	11797.685714
2590.014416	11806.523810
2591.455169	11737.104762
2592.890859	11701.428571
2594.329499	11698.542857
2595.766281	11696.257143
2597.201208	11756.761905
2598.639082	11776.961905
2600.071899	11767.923810
2601.506063	11763.628571
2602.938373	11780.200000
2604.372029	11713.561905
2605.803832	11658.447619
2607.235381	11637.504762
2608.666678	11641.609524
2610.096122	11613.590476
2611.525314	11633.571429
2612.952656	11588.038095
2614.381343	11568.800000
2615.809779	11572.990476
2617.234767	11612.533333
2618.661102	11587.152381
2620.085588	11638.380952
2621.511420	11632.371429
2622.933808	11642.123810
2624.357542	11616.314286
2625.779429	11574.276190
2627.201067	11553.209524
2628.620859	11542.428571
2630.041997	11503.314286
2631.462885	11510.838095
2632.880335	11529.685714
2634.300724	11512.733333
2635.717676	11532.457143
2637.134379	11551.571429
2638.550835	11519.590476
2639.967041	11491.142857
2641.383000	11499.409524
2642.797118	11472.171429
2644.210989	11412.257143
2645.623020	11411.485714
2647.036396	11405.323810
2648.446342	11368.942857
2649.859223	11421.304762
2651.268676	11449.609524
2652.677883	11455.952381
2654.085254	11451.723810
2655.495560	11481.380952
2656.904029	11415.914286
2658.310663	11375.390476
2659.717052	11350.390476
2661.121607	11321.514286
2662.527506	11343.142857
2663.931572	11358.857143
2665.335393	11366.400000
2666.738971	11411.714286
2668.140716	11454.142857
2669.543805	11467.161905
2670.943476	11486.104762
2672.344491	11440.619048
2673.742090	11430.895238
2675.142619	11455.514286
2676.539733	11501.933333
2677.938190	11487.400000
2679.334819	11457.533333
2680.731206	11386.409524
2682.127352	11330.600000
2683.521671	11322.076190
2684.917332	11379.857143
2686.309585	11380.685714
2687.703180	11420.523810
2689.094951	11381.495238
2690.488065	11362.961905
2691.879355	11327.161905
2693.268822	11301.533333
2694.658049	11269.000000
2696.047037	11283.276190
2697.437367	11282.095238
2698.822712	11308.952381
2700.210981	11268.590476
2701.597430	11221.600000
2702.983640	11198.800000
2704.369612	11179.171429
2705.752184	11145.619048
2707.136099	11147.723810
2708.519776	11083.933333
2709.903215	11076.409524
2711.283258	11123.561905
2712.664643	11135.723810
2714.044212	11124.828571
2715.425123	11114.504762
2716.804218	11049.895238
2718.181500	11038.895238
2719.560123	11041.390476
2720.936933	11051.085714
2722.313507	11072.028571
2723.689845	11084.180952
2725.064371	11089.580952
2726.440238	11102.447619
2727.812718	11086.523810
2729.188114	11045.314286
2730.558550	11029.142857
2731.930327	11017.190476
2733.301869	11008.495238
2734.671603	11014.038095
2736.042678	11024.819048
2737.411944	11016.171429
2738.780977	11015.828571
2740.148204	11012.247619
2741.515198	11010.066667
2742.881959	10982.847619
2744.248487	11001.161905
2745.613210	10986.609524
2746.977702	10991.771429
2748.341961	10987.866667
2749.705988	11018.885714
2751.069784	10995.276190
2752.430206	10949.095238
2753.793539	10878.171429
2755.151929	10867.295238
2756.513229	10817.057143
2757.871158	10816.000000
2759.231996	10823.304762
2760.591035	10772.314286
2761.946705	10787.323810
2763.305283	10788.209524
2764.660494	10768.580952
2766.015476	10734.695238
2767.368662	10746.980952
2768.724754	10745.390476
2770.077481	10791.552381
2771.429981	10791.019048
2772.782252	10762.800000
2774.135862	10722.552381
2775.486110	10712.895238
2776.834565	10745.895238
2778.185924	10754.828571
2779.533924	10769.933333
2780.883262	10727.323810
2782.230809	10696.180952
2783.578128	10681.066667
2784.925221	10664.000000
2786.270523	10630.523810
2787.615599	10629.009524
2788.960448	10605.542857
2790.305072	10592.647619
2791.646344	10616.895238
2792.988954	10624.866667
2794.331338	10638.771429
2795.673498	10631.009524
2797.012308	10620.323810
2798.354017	10603.514286
2799.692379	10639.857143
2801.032078	10641.161905
2802.369991	10639.761905
2803.706120	10622.942857
2805.042025	10607.123810
2806.379268	10610.942857
2807.714727	10671.314286
2809.049963	10714.961905
2810.383416	10762.333333
2811.718207	10773.542857
2813.049656	10716.609524
2814.384001	10715.400000
2815.713448	10734.657143
2817.044232	10726.857143
2818.374794	10707.838095
2819.703577	10653.971429
2821.033696	10596.619048
2822.362037	10596.866667
2823.690157	10618.133333
2825.016499	10620.533333
2826.344178	10608.857143
2827.668523	10543.466667
2828.994205	10491.485714
2830.318111	10459.980952
2831.641798	10463.457143
2832.966820	10464.933333
2834.288512	10469.590476
2835.609986	10462.304762
2836.931241	10406.971429
2838.252277	10416.504762
2839.571541	10410.714286
2840.892140	10393.942857
2842.210967	10372.133333
2843.529576	10365.180952
2844.846414	10313.752381
2846.163035	10326.704762
2847.479439	10325.400000
2848.794073	10355.771429
2850.110043	10349.123810
2851.422692	10355.409524
2852.736677	10387.885714
2854.050444	10406.771429
2855.363996	10394.419048
2856.675780	10410.895238
2857.985798	10422.333333
2859.297151	10439.866667
2860.605189	10501.085714
2861.914561	10545.733333
2863.223719	10548.038095
2864.532661	10572.352381
2865.839839	10627.438095
2867.145255	10653.942857
2868.452005	10663.333333
2869.756992	10666.380952
2871.061766	10652.838095
2872.364778	10621.190476
2873.670672	10630.923810
2874.971710	10638.780952
2876.274083	10640.628571
2877.574696	10626.800000
2878.876643	10678.428571
2880.178377	10665.457143
2881.476806	10654.961905
2882.776569	10592.066667
2884.074575	10503.704762
2885.372369	10456.400000
2886.668407	10453.285714
2887.965778	10441.600000
2889.261393	10477.095238
2890.556797	10485.171429
2891.851990	10458.390476
2893.143886	10473.438095
2894.438658	10423.600000
2895.730133	10398.895238
2897.022941	10376.323810
2898.315539	10344.657143
2899.604843	10316.828571
2900.895479	10315.076190
2902.184364	10291.942857
2903.474582	10319.104762
2904.761507	10335.200000
2906.049766	10354.295238
2907.336274	10365.257143
2908.622575	10367.666667
2909.908667	10352.742857
2911.193011	10382.247619
2912.480226	10403.780952
2913.762615	10419.514286
2915.046336	10405.876190
2916.328311	10394.923810
2917.610078	10379.676190
2918.890101	10362.914286
2920.172993	10388.914286
2921.454140	10414.933333
2922.732005	10456.952381
2924.012739	10505.609524
2925.290192	10511.504762
2926.567439	10485.133333
2927.842945	10470.076190
2929.121318	10446.314286
2930.394876	10439.180952
2931.671302	10414.238095
2932.945987	10412.971429
2934.218932	10409.171429
2935.493207	10357.038095
2936.765743	10327.876190
2938.038075	10300.038095
2939.307133	10278.857143
2940.579057	10288.200000
2941.849243	10294.714286
2943.119226	10286.361905
2944.389005	10254.000000
2945.657047	10231.409524
2946.923354	10221.819048
2948.189458	10212.304762
2949.456892	10210.000000
2950.722592	10199.990476
2951.988089	10106.942857
2953.253384	10063.285714
2954.515414	10019.209524
2955.778775	10046.933333
2957.041933	10024.923810
2958.303360	10021.123810
2959.566116	9992.028571
2960.827141	10004.666667
2962.086434	9977.857143
2963.345528	9994.733333
2964.604421	9933.000000
2965.863114	9908.666667
2967.121607	9901.495238
2968.378371	9902.409524
2969.634935	9873.285714
2970.889772	9881.571429
2972.145937	9839.095238
2973.398848	9833.771429
2974.653088	9804.276190
2975.907129	9789.971429
2977.159444	9771.371429
2978.411560	9788.714286
2979.661952	9729.628571
2980.915199	9738.723810
2982.163669	9726.342857
2983.414994	9732.361905
2984.663069	9700.571429
2985.910948	9690.666667
2987.158629	9656.790476
2988.406114	9658.323810
2989.651876	9676.771429
2990.897443	9700.161905
2992.144337	9662.447619
2993.387987	9669.619048
2994.632965	9708.876190
2995.874699	9685.666667
2997.119285	9703.704762
2998.362152	9697.819048
2999.601778	9613.161905
3000.844254	9581.104762
3002.083491	9598.419048
3003.324054	9559.552381
3004.562902	9610.533333
3005.801554	9604.942857
3007.038492	9587.295238
3008.276756	9584.980952
3009.513306	9573.038095
3010.749661	9523.314286
3011.985823	9514.038095
3013.220272	9497.571429
3014.454527	9511.171429
3015.688589	9535.780952
3016.920939	9512.885714
3018.151577	9486.200000
3019.385061	9449.190476
3020.616833	9467.009524
3021.846895	9453.990476
3023.076765	9464.504762
3024.304925	9465.380952
3025.534411	9480.838095
3026.762188	9487.019048
3027.989775	9504.266667
3029.218687	9471.076190
3030.442857	9417.219048
3031.669870	9407.580952
3032.893659	9394.000000
3034.118775	9396.657143
3035.342184	9379.276190
3036.565403	9371.390476
3037.786917	9347.228571
3039.011272	9337.647619
3040.230892	9291.495238
3041.451838	9275.723810
3042.672595	9270.647619
3043.891648	9278.076190
3045.112027	9285.152381
3046.329189	9296.590476
3047.547676	9297.123810
3048.764461	9303.409524
3049.981059	9320.104762
3051.197468	9337.419048
3052.410665	9326.533333
3053.626699	9284.361905
3054.839521	9277.980952
3056.055180	9225.647619
3057.266116	9212.704762
3058.478377	9194.400000
3059.690452	9193.066667
3060.902340	9147.590476
3062.112530	9169.133333
3063.322534	9182.800000
3064.532352	9191.609524
3065.740475	9158.295238
3066.948411	9186.847619
3068.154652	9190.300000
3069.362218	9204.904762
3070.568089	9197.376190
3071.773776	9169.809524
3072.979277	9125.671429
3074.183085	9116.914286
3075.388217	9129.666667
3076.591657	9135.771429
3077.793404	9120.980952
3078.994968	9120.276190
3080.196347	9068.238095
3081.397544	9051.638095
3082.597049	9033.780952
3083.796372	9030.657143
3084.997018	8993.047619
3086.195974	8984.666667
3087.391736	8965.933333
3088.590327	9002.514286
3089.785724	9009.866667
3090.982444	8997.704762
3092.175972	8952.628571
3093.372328	8918.390476
3094.566998	8906.257143
3095.758477	8922.438095
3096.954287	8941.914286
3098.145404	8944.400000
3099.337843	8941.028571
3100.527095	8888.104762
3101.719173	8884.704762
3102.909566	8885.266667
3104.096774	8931.123810
3105.285305	8913.361905
3106.475157	8896.180952
3107.661826	8838.285714
3108.848315	8793.942857
3110.034624	8763.723810
3111.222255	8754.000000
3112.406705	8737.847619
3113.589474	8729.752381
3114.775066	8710.200000
3115.958979	8682.761905
3117.141213	8658.847619
3118.323268	8642.971429
3119.505146	8696.933333
3120.686845	8687.923810
3121.866866	8654.257143
3123.045211	8642.095238
3124.226376	8636.685714
3125.404367	8631.371429
3126.582180	8632.600000
3127.759816	8606.285714
3128.935777	8582.552381
3130.111561	8586.447619
3131.288667	8616.190476
3132.464098	8602.323810
3133.637856	8568.466667
3134.809941	8571.190476
3135.983348	8536.942857
3137.156578	8552.209524
3138.328137	8584.390476
3139.501016	8573.228571
3140.670729	8596.876190
3141.841761	8646.304762
3143.011124	8627.428571
3144.178817	8655.971429
3145.349325	8651.114286
3146.515174	8610.657143
3147.685333	8605.009524
3148.850834	8629.009524
3150.016162	8630.580952
3151.181316	8658.352381
3152.346296	8630.514286
3153.512596	8579.580952
3154.674244	8552.104762
3155.837211	8567.885714
3157.000006	8552.200000
3158.162628	8546.361905
3159.323585	8501.019048
3160.484369	8449.857143
3161.644981	8417.657143
3162.803929	8425.514286
3163.962706	8400.142857
3165.121311	8366.723810
3166.279744	8367.247619
3167.438005	8339.323810
3168.594604	8333.047619
3169.749542	8334.314286
3170.905799	8319.028571
3172.060395	8312.161905
3173.214821	8287.352381
3174.367587	8244.085714
3175.520183	8236.657143
3176.672608	8222.371429
3177.824864	8203.057143
3178.976949	8208.923810
3180.125889	8181.514286
3181.277635	8207.161905
3182.427723	8209.352381
3183.576155	8202.047619
3184.724418	8193.942857
3185.872511	8198.780952
3187.020436	8195.323810
3188.166706	8220.780952
3189.312807	8207.114286
3190.457253	8185.466667
3191.601532	8210.161905
3192.745643	8223.371429
3193.891071	8218.828571
3195.033361	8239.638095
3196.175484	8222.552381
3197.317439	8189.247619
3198.459227	8207.695238
3199.600849	8192.828571
3200.739334	8169.933333
3201.879137	8174.314286
3203.020258	8166.466667
3204.158244	8174.380952
3205.294581	8199.876190
3206.430752	8164.980952
3207.568241	8166.019048
3208.704080	8130.457143
3209.841237	8119.476190
3210.973781	8123.352381
3212.110607	8130.409524
3213.242821	8067.085714
3214.376352	8084.571429
3215.509719	8050.638095
3216.639958	8046.952381
3217.772995	8036.847619
3218.902906	8019.790476
3220.034133	7947.628571
3221.162236	7933.038095
3222.293135	7922.476190
3223.422390	7951.285714
3224.550002	7985.780952
3225.674492	7970.638095
3226.803256	7945.723810
3227.928899	7927.266667
3229.054380	7917.076190
3230.178219	7930.142857
3231.304852	7955.847619
3232.426888	7960.161905
3233.550240	7939.971429
3234.673430	7916.923810
3235.796458	7862.247619
3236.917846	7844.019048
3238.039073	7823.742857
3239.158661	7835.019048
3240.278088	7849.161905
3241.395877	7868.028571
3242.516458	7873.800000
3243.633926	7895.238095
3244.751233	7870.142857
3245.868380	7864.885714
3246.983891	7859.428571
3248.100717	7887.761905
3249.214432	7884.342857
3250.330937	7888.133333
3251.445808	7880.342857
3252.557570	7887.285714
3253.669172	7869.638095
3254.782090	7887.019048
3255.894849	7848.123810
3257.004501	7817.228571
3258.115467	7779.523810
3259.226275	7784.209524
3260.335452	7765.552381
3261.442997	7786.304762
3262.551856	7769.504762
3263.660558	7767.828571
3264.766157	7780.914286
3265.873070	7812.714286
3266.978354	7789.809524
3268.084953	7808.104762
3269.188451	7752.190476
3270.293263	7738.580952
3271.397918	7765.161905
3272.499474	7778.409524
3273.600874	7752.028571
3274.703589	7757.533333
3275.806146	7726.942857
3276.905607	7717.295238
3278.007852	7720.304762
3279.107001	7715.333333
3280.204526	7677.847619
3281.301895	7667.542857
3282.402047	7634.104762
3283.499105	7622.342857
3284.596008	7591.314286
3285.692756	7570.409524
3286.784946	7561.657143
3287.881384	7561.733333
3288.976200	7554.095238
3290.070862	7568.361905
3291.163902	7528.133333
3292.256788	7500.152381
3293.348053	7508.257143
3294.440631	7546.323810
3295.531588	7571.495238
3296.620926	7570.761905
3297.710111	7538.514286
3298.800609	7488.590476
3299.888022	7462.323810
3300.975283	7489.847619
3302.063856	7456.657143
3303.152276	7419.219048
3304.236149	7407.485714
3305.324264	7413.114286
3306.409298	7408.942857
3307.492715	7433.361905
3308.577445	7443.085714
3309.660560	7436.866667
3310.744986	7465.295238
3311.826334	7469.895238
3312.908994	7437.438095
3313.990040	7426.238095
3315.070935	7432.533333
3316.150216	7422.047619
3317.229348	7447.019048
3318.309790	7443.361905
3319.387158	7429.514286
3320.465838	7439.028571
3321.542907	7439.180952
3322.619825	7441.200000
3323.695132	7465.980952
3324.770290	7477.742857
3325.846759	7448.314286
3326.920158	7441.666667
3327.993408	7403.485714
3329.067968	7378.942857
3330.140920	7381.019048
3331.212263	7360.228571
3332.284918	7329.209524
3333.354505	7336.695238
3334.425403	7308.619048
3335.494694	7288.780952
3336.565296	7259.980952
3337.634291	7244.114286
3338.701680	7241.552381
3339.767464	7252.847619
3340.837474	7254.247619
3341.904421	7267.980952
3342.968306	7224.076190
3344.034959	7204.438095
3345.100007	7184.657143
3346.163452	7179.009524
3347.226751	7210.704762
3348.289903	7218.152381
3349.352909	7178.752381
3350.415769	7136.761905
3351.477027	7095.285714
3352.535228	7058.485714
3353.597650	7095.695238
3354.657015	7097.819048
3355.716235	7108.838095
3356.776765	7122.714286
3357.832785	7132.009524
3358.891569	7142.476190
3359.945846	7179.514286
3361.002887	7191.238095
3362.058330	7209.952381
3363.115081	7207.314286
3364.170234	7178.476190
3365.223790	7175.047619
3366.275750	7162.428571
3367.330471	7144.657143
3368.382143	7139.666667
3369.433672	7144.580952
3370.486509	7133.695238
3371.536299	7137.485714
3372.587398	7132.695238
3373.635451	7129.876190
3374.686263	7127.361905
3375.734031	7141.876190
3376.781656	7145.142857
3377.829138	7130.980952
3378.875028	7082.695238
3379.922226	7064.552381
3380.966382	7055.009524
3382.013296	7084.504762
3383.058618	7114.171429
3384.100899	7138.380952
3385.143040	7107.819048
3386.186488	7055.923810
3387.229796	7029.466667
3388.271513	7035.923810
3389.313089	7054.980952
3390.354525	7073.695238
3391.394371	7079.857143
3392.432629	7077.819048
3393.472196	7076.885714
3394.511621	7075.333333
3395.549459	7066.266667
3396.585710	7057.104762
3397.621822	7054.657143
3398.659241	7026.428571
3399.693627	7005.076190
3400.729320	6978.257143
3401.764874	6970.133333
3402.797397	6994.752381
3403.832673	7002.771429
3404.864918	7004.561905
3405.897025	6998.152381
3406.927548	6966.942857
3407.959378	6965.676190
3408.991070	6948.752381
3410.019734	6937.161905
3411.048261	6932.038095
3412.078095	6882.638095
3413.107790	6886.352381
3414.134460	6889.933333
3415.162437	6894.809524
3416.187389	6915.857143
3417.215091	6938.247619
3418.239770	6958.771429
3419.265755	6976.285714
3420.290160	6963.609524
3421.314429	6912.857143
3422.337119	6871.685714
3423.359673	6869.133333
3424.383533	6864.314286
3425.404373	6833.457143
3426.425078	6819.542857
3427.447088	6782.247619
3428.466080	6767.647619
3429.484937	6789.319048
3430.505099	6830.547619
3431.522245	6886.600000
