-116.521679	8.400000
-113.852079	11.600000
-111.185414	-20.000000
-108.519501	17.600000
-105.856521	18.200000
-103.192110	14.400000
-100.530630	-4.000000
-97.867721	15.200000
-95.209918	0.600000
-92.550686	15.800000
-89.892202	3.400000
-87.236643	12.400000
-84.579654	-9.800000
-81.927764	9.800000
-79.274444	0.400000
-76.624043	21.400000
-73.972214	-22.400000
-71.325474	7.000000
-68.677306	-18.600000
-66.029880	6.800000
-63.385369	-11.800000
-60.739428	18.400000
-58.098569	10.400000
-55.456281	31.800000
-52.816902	1.600000
-50.176093	25.200000
-47.536025	4.600000
-44.901030	14.400000
-42.264605	13.600000
-39.631083	27.800000
-36.996133	-1.000000
-34.366248	17.800000
-31.732771	-27.400000
-29.104356	20.600000
-26.476675	0.000000
-23.847565	16.800000
-21.223512	12.400000
-18.595870	36.400000
-15.973281	45.000000
-13.351424	65.400000
-10.730297	80.000000
-8.109901	197.600000
-5.492392	639.200000
-2.873455	2069.000000
-0.257403	6411.200000
2.357920	9079.200000
4.972515	4558.000000
7.584229	479.200000
10.197371	73.600000
12.805479	68.400000
15.417169	34.400000
18.023828	24.000000
20.631915	21.800000
23.239278	44.600000
25.841616	-20.000000
28.447532	29.200000
31.048426	-1.000000
33.650748	26.600000
36.248053	-5.400000
38.848933	13.200000
41.444798	-2.200000
44.042092	2.200000
46.638666	-4.400000
49.230231	2.600000
51.823224	-11.800000
54.413356	-3.800000
57.004915	-1.600000
59.593616	-1.200000
62.183743	11.800000
64.768871	10.000000
67.355427	-5.600000
69.941269	2.800000
72.524257	13.600000
75.108671	15.200000
77.685957	-10.200000
80.266809	1.000000
82.844812	-17.600000
85.422105	2.200000
88.000824	5.600000
90.574561	1.800000
93.149726	14.600000
95.722047	3.400000
98.293660	8.000000
100.862433	0.000000
103.432633	-28.800000
105.999994	6.000000
108.568782	-2.000000
111.134733	22.600000
113.697849	11.000000
116.264521	-0.600000
118.821972	11.600000
121.385108	8.800000
123.943284	19.200000
126.505015	40.600000
129.061789	5.600000
131.619989	58.800000
134.173237	18.600000
136.725787	43.000000
139.281887	90.400000
141.833039	132.400000
144.383494	94.200000
146.933251	153.800000
149.480189	132.800000
152.026432	143.400000
154.574100	139.800000
157.121072	151.000000
159.663109	96.600000
162.204452	155.200000
164.745102	147.600000
167.287178	155.000000
169.826442	145.400000
172.362898	130.600000
174.898662	124.200000
177.435852	125.000000
179.972351	131.800000
182.506044	173.000000
185.036933	117.600000
187.567134	165.600000
190.098761	139.200000
192.627586	149.000000
195.153612	136.800000
197.678952	152.200000
200.205717	114.000000
202.729686	143.000000
205.252970	146.000000
207.775569	139.200000
210.295375	123.200000
212.814497	124.600000
215.332938	120.400000
217.852802	152.600000
220.365665	149.000000
222.882059	144.400000
225.397771	151.800000
227.908593	142.200000
230.420840	129.200000
232.930305	146.400000
235.439090	137.600000
237.947198	147.200000
240.456730	148.200000
242.961381	132.600000
245.465356	117.400000
247.970755	145.400000
250.471279	142.400000
252.975326	158.600000
255.472403	134.600000
257.973003	169.000000
260.470831	153.400000
262.967986	156.400000
265.464468	139.800000
267.956087	165.800000
270.451226	141.200000
272.943598	154.200000
275.435300	148.800000
277.924239	157.600000
280.414601	158.000000
282.902202	155.200000
285.387043	127.200000
287.875399	158.600000
290.356815	154.600000
292.841745	168.400000
295.321830	161.800000
297.805427	174.600000
300.284181	179.000000
302.764358	172.800000
305.241784	173.000000
307.718546	186.000000
310.194644	176.800000
312.667995	178.200000
315.140683	181.200000
317.612710	200.600000
320.084076	214.800000
322.552697	230.000000
325.020660	224.400000
327.490044	198.800000
329.954606	195.800000
332.422672	179.600000
334.885918	183.000000
337.348506	203.600000
339.810438	183.600000
342.271713	178.200000
344.730254	155.400000
347.190217	181.600000
349.647447	164.000000
352.104023	204.800000
354.559945	161.000000
357.013137	161.400000
359.467752	164.800000
361.917565	176.600000
364.370874	165.600000
366.819384	179.600000
369.267244	160.800000
371.716526	190.600000
374.161014	167.000000
376.606924	186.800000
379.052184	175.000000
381.494726	189.600000
383.936620	150.600000
386.377867	172.400000
388.816398	159.800000
391.256350	170.200000
393.693590	154.000000
396.128117	159.600000
398.566132	173.800000
400.999370	176.800000
403.434029	174.600000
405.863916	186.600000
408.297288	175.800000
410.725890	181.000000
413.153850	186.400000
415.583232	187.200000
418.007848	203.000000
420.433886	166.000000
422.859283	143.400000
425.284040	194.600000
427.704039	160.200000
430.125458	185.200000
432.544182	171.200000
434.964326	169.400000
437.381775	165.000000
439.800644	187.400000
442.216820	133.800000
444.628248	183.600000
447.043153	200.000000
449.455369	183.800000
451.866950	144.800000
454.277897	173.600000
456.686158	197.400000
459.093786	193.600000
461.500782	175.000000
463.907147	162.400000
466.310829	179.800000
468.713881	169.800000
471.116303	169.600000
473.518095	163.600000
475.917209	139.400000
478.317743	181.200000
480.717648	153.000000
483.112831	187.000000
485.511480	185.000000
487.905408	171.600000
490.298711	133.000000
492.691389	180.600000
495.083441	173.600000
497.476911	180.200000
499.865669	141.400000
502.251761	163.200000
504.639273	134.000000
507.026162	128.000000
509.410387	137.600000
511.796030	173.200000
514.179012	133.800000
516.559333	137.800000
518.941073	99.000000
521.320154	124.400000
523.700654	89.200000
526.078496	113.800000
528.453682	93.600000
530.828252	132.000000
533.204239	97.000000
535.577574	115.200000
537.952326	109.800000
540.322393	112.600000
542.691844	88.800000
545.062713	96.800000
547.428901	84.000000
549.796508	96.000000
552.161470	72.800000
554.525818	96.800000
556.889553	89.400000
559.254706	107.400000
561.615187	70.400000
563.977086	114.400000
566.336344	81.800000
568.692964	93.400000
571.053030	85.800000
573.406404	103.800000
575.763223	77.000000
578.117407	87.600000
580.470982	75.600000
582.823950	114.800000
585.174285	80.000000
587.526038	102.000000
589.871114	115.400000
592.221653	119.200000
594.565520	96.800000
596.914848	93.000000
599.259527	67.000000
601.601582	107.200000
603.945054	80.000000
606.285903	91.200000
608.626149	78.200000
610.963776	89.400000
613.304837	119.600000
615.641260	103.400000
617.979100	74.400000
620.314323	94.200000
622.646930	67.000000
624.980953	127.600000
627.312362	86.800000
629.643173	73.800000
631.973387	72.200000
634.303002	93.400000
636.627994	78.000000
638.958428	80.400000
641.284241	78.200000
643.607446	84.000000
645.932068	62.400000
648.254084	77.600000
650.575506	61.400000
652.894326	90.400000
655.214561	88.200000
657.534203	72.200000
659.851244	103.000000
662.167693	85.400000
664.481544	97.200000
666.796811	88.400000
669.109481	85.000000
671.423566	98.600000
673.733051	39.200000
676.043952	102.800000
678.352260	61.800000
680.659980	78.000000
682.969114	81.800000
685.273656	103.000000
687.577612	62.200000
689.880982	82.600000
692.185766	69.200000
694.485963	74.800000
696.787576	55.200000
699.088603	85.000000
701.385049	74.200000
703.682910	65.600000
705.980187	81.800000
708.276881	89.200000
710.568999	80.600000
712.864528	91.600000
715.155483	59.400000
717.447853	72.200000
719.737648	55.600000
722.026862	98.600000
724.315497	88.000000
726.601559	55.400000
728.889036	88.400000
731.173941	80.800000
733.458269	68.600000
735.740028	77.600000
738.023201	57.400000
740.305797	93.200000
742.583837	85.800000
744.863292	108.200000
747.142170	55.800000
749.420474	78.200000
751.694228	78.200000
753.969395	88.800000
756.243989	84.400000
758.516024	69.800000
760.789472	74.600000
763.060362	87.000000
765.328696	91.800000
767.598443	86.400000
769.865636	72.800000
772.132258	60.800000
774.398310	106.600000
776.661811	103.400000
778.926725	76.600000
781.191069	75.600000
783.450884	78.000000
785.712111	102.400000
787.972771	92.200000
790.230885	82.600000
792.486454	95.800000
794.745414	99.600000
796.997874	72.600000
799.255702	100.000000
801.509011	70.800000
803.759780	106.200000
806.011961	71.000000
808.261603	97.600000
810.512658	80.200000
812.759201	95.000000
815.007156	72.400000
817.252577	94.600000
819.499409	74.600000
821.745680	67.400000
823.987446	72.200000
826.232596	71.000000
828.471273	51.000000
830.713332	100.600000
832.950893	62.600000
835.189866	86.600000
837.426312	70.200000
839.664169	84.600000
841.899501	71.000000
844.132310	111.400000
846.366530	71.200000
848.598227	83.400000
850.829370	52.000000
853.059958	66.400000
855.289992	64.600000
857.519472	55.600000
859.744470	51.200000
861.972843	97.600000
864.196736	64.000000
866.422041	89.200000
868.642870	47.200000
870.867071	84.600000
873.086799	80.000000
875.307937	51.200000
877.528525	60.400000
879.746604	74.000000
881.966092	57.200000
884.181114	96.400000
886.395588	84.000000
888.609515	62.400000
890.822895	54.000000
893.035727	76.800000
895.248013	51.800000
897.457796	97.200000
899.667034	53.000000
901.875727	80.400000
904.081920	30.400000
906.289524	61.600000
908.494629	69.200000
910.699191	79.400000
912.901258	54.800000
915.104734	83.200000
917.305716	70.400000
919.506156	75.400000
921.708005	61.600000
923.903463	53.600000
926.102280	49.400000
928.296658	107.200000
930.494394	68.400000
932.687694	101.600000
934.882403	37.600000
937.074626	60.000000
939.266310	66.800000
941.457457	111.200000
943.646121	67.000000
945.834249	75.200000
948.019896	68.200000
950.208895	65.400000
952.393471	92.400000
954.577512	96.600000
956.764903	64.000000
958.943990	81.000000
961.126428	74.800000
963.308332	87.600000
965.487761	72.600000
967.664718	80.200000
969.843083	100.000000
972.022855	103.200000
974.196278	66.800000
976.373047	90.000000
978.545409	104.000000
980.719179	87.400000
982.888545	72.400000
985.061255	103.200000
987.231500	98.000000
989.401215	112.000000
991.570403	75.800000
993.735193	109.600000
995.903324	93.400000
998.067060	116.800000
1000.232204	97.600000
1002.394888	82.800000
1004.557047	89.400000
1006.716749	129.800000
1008.875926	102.600000
1011.036510	126.400000
1013.194639	117.200000
1015.352245	99.400000
1017.509327	94.800000
1019.665885	109.800000
1021.818064	109.800000
1023.971650	109.200000
1026.124714	113.600000
1028.275329	93.800000
1030.427351	98.000000
1032.574999	136.800000
1034.725979	81.800000
1036.872588	111.600000
1039.018678	77.400000
1041.164250	116.400000
1043.311227	129.400000
1045.451915	119.800000
1047.595933	92.400000
1049.737510	128.200000
1051.878571	93.400000
1054.021036	129.800000
1056.157221	93.400000
1058.296733	119.000000
1060.431890	141.000000
1062.570371	138.000000
1064.704498	117.200000
1066.838112	117.000000
1068.973130	127.600000
1071.103800	103.200000
1073.235874	85.000000
1075.365519	98.800000
1077.494652	105.600000
1079.623273	109.600000
1081.751383	101.200000
1083.877067	132.400000
1086.002241	103.800000
1088.128819	121.000000
1090.251059	106.600000
1092.374704	100.000000
1094.494014	105.200000
1096.618553	129.200000
1098.736848	98.000000
1100.856547	136.600000
1102.973827	97.600000
1105.090600	113.600000
1107.206868	99.200000
1109.320719	133.400000
1111.435975	80.200000
1113.546907	86.400000
1115.661152	94.800000
1117.771076	93.600000
1119.882404	62.800000
1121.993227	99.200000
1124.099734	105.200000
1126.209550	96.600000
1128.315053	72.000000
1130.421958	96.000000
1132.522648	85.000000
1134.628550	99.800000
1136.730143	111.400000
1138.833139	115.400000
1140.935634	100.600000
1143.031922	100.600000
1145.133417	82.400000
1147.230610	101.800000
1149.327305	86.400000
1151.423501	94.000000
1153.519199	75.400000
1155.614400	81.000000
1157.707204	97.000000
1159.801410	106.000000
1161.889425	73.000000
1163.982639	113.800000
1166.069664	88.000000
1168.159988	86.000000
1170.246024	94.400000
1172.335359	95.400000
1174.418512	70.000000
1176.503067	79.200000
1178.589024	53.600000
1180.670699	92.200000
1182.753775	70.200000
1184.834466	78.800000
1186.914666	78.000000
1188.994374	94.000000
1191.073591	62.200000
1193.150426	86.400000
1195.224879	107.400000
1197.302625	77.200000
1199.376101	76.000000
1201.450977	87.000000
1203.521586	49.000000
1205.593596	83.400000
1207.663231	78.800000
1209.734265	87.600000
1211.804813	71.600000
1213.871099	79.000000
1215.938786	93.000000
1218.004101	77.800000
1220.070816	68.800000
1222.133275	93.600000
1224.199019	90.200000
1226.260509	70.600000
1228.323400	68.600000
1230.383923	91.200000
1232.443962	85.400000
1234.503518	66.600000
1236.560710	41.800000
1238.617420	91.200000
1240.671766	69.800000
1242.729394	101.400000
1244.784659	75.200000
1246.835683	87.600000
1248.888107	57.000000
1250.940051	85.400000
1252.989637	80.600000
1255.038744	104.200000
1257.087372	76.200000
1259.135522	70.200000
1261.183194	74.200000
1263.226635	81.800000
1265.273352	62.200000
1267.317715	41.800000
1269.361602	71.200000
1271.403137	77.800000
1273.442323	63.400000
1275.484782	71.400000
1277.523018	64.000000
1279.562653	88.000000
1281.601813	83.800000
1283.636754	80.600000
1285.673094	54.000000
1287.707090	63.200000
1289.742483	65.600000
1291.773664	78.600000
1293.806242	50.400000
1295.838349	85.800000
1297.868115	70.600000
1299.899278	95.200000
1301.926235	66.800000
1303.954589	72.800000
1305.978738	67.200000
1308.006153	50.400000
1310.029365	57.200000
1312.053975	73.200000
1314.076251	71.400000
1316.099924	76.800000
1318.121263	51.200000
1320.142136	59.000000
1322.162541	36.600000
1324.178753	83.000000
1326.196362	48.000000
1328.211643	63.400000
1330.230183	64.800000
1332.244534	70.600000
1334.256558	51.400000
1336.271841	65.000000
1338.282938	65.200000
1340.295432	63.800000
1342.303743	84.400000
1344.315309	71.200000
1346.320837	56.200000
1348.329620	71.800000
1350.334225	54.800000
1352.342084	100.000000
1354.349481	59.200000
1356.350847	48.800000
1358.353609	54.600000
1360.355912	81.600000
1362.357755	71.200000
1364.359138	81.600000
1366.358208	55.000000
1368.356819	79.400000
1370.354971	79.800000
1372.352666	59.600000
1374.346198	78.200000
1376.341125	99.800000
1378.335596	73.200000
1380.329610	89.000000
1382.321317	65.000000
1384.312568	68.000000
1386.301514	65.000000
1388.291856	56.800000
1390.281742	85.200000
1392.269324	76.600000
1394.256453	48.800000
1396.241280	55.000000
1398.227502	83.400000
1400.211423	65.600000
1402.194892	55.400000
1404.177909	64.800000
1406.158628	64.400000
1408.140741	81.000000
1410.120558	51.000000
1412.099923	33.000000
1414.075150	85.400000
1416.053615	95.000000
1418.029787	67.600000
1420.005509	83.600000
1421.980783	82.000000
1423.953765	78.800000
1425.926299	75.600000
1427.898385	89.600000
1429.870024	102.000000
1431.837534	82.600000
1433.810118	71.600000
1435.774896	75.200000
1437.744747	58.000000
1439.710474	86.200000
1441.677593	65.200000
1443.642429	81.200000
1445.603145	88.800000
1447.568929	43.000000
1449.528758	57.600000
1451.489981	84.000000
1453.452595	67.400000
1455.411095	98.600000
1457.369153	71.200000
1459.326769	72.400000
1461.283942	65.400000
1463.238840	78.600000
1465.195131	61.800000
1467.149147	110.400000
1469.102722	83.200000
1471.054025	65.200000
1473.006721	74.400000
1474.957144	77.000000
1476.907129	42.800000
1478.856675	47.600000
1480.803952	79.000000
1482.748961	69.000000
1484.695363	51.600000
1486.641327	76.000000
1488.586854	80.600000
1490.530115	79.800000
1492.472941	61.600000
1494.413502	78.400000
1496.355456	64.800000
1498.295147	81.400000
1500.234403	80.800000
1502.173225	90.600000
1504.109787	91.600000
1506.047740	98.200000
1507.983434	44.600000
1509.918695	103.400000
1511.851699	78.600000
1513.784272	80.600000
1515.716412	69.600000
1517.648120	106.200000
1519.577574	65.200000
1521.508419	76.800000
1523.438832	88.800000
1525.365173	109.400000
1527.292904	69.200000
1529.218386	101.000000
1531.143438	94.400000
1533.068061	87.400000
1534.992254	90.400000
1536.914201	90.600000
1538.837538	100.600000
1540.758628	107.000000
1542.677474	78.800000
1544.597710	98.200000
1546.515703	101.000000
1548.433269	127.800000
1550.348593	66.800000
1552.265307	123.800000
1554.177966	117.200000
1556.093829	126.000000
1558.007452	133.000000
1559.918837	155.200000
1561.831612	151.400000
1563.740337	208.000000
1565.650451	187.400000
1567.560142	248.600000
1569.469410	258.400000
1571.376444	337.800000
1573.281245	383.800000
1575.187435	478.200000
1577.091393	553.000000
1578.994930	585.000000
1580.898047	654.400000
1582.798934	608.600000
1584.701210	525.800000
1586.601258	436.800000
1588.502693	366.000000
1590.400095	328.600000
1592.297078	263.000000
1594.193643	232.400000
1596.091595	172.600000
1597.983713	172.400000
1599.879025	132.400000
1601.773919	148.800000
1603.666591	118.600000
1605.558846	137.800000
1607.448882	117.400000
1609.338502	152.400000
1611.227707	70.000000
1613.116497	103.200000
1615.003069	79.600000
1616.891029	93.000000
1618.774972	72.400000
1620.660302	105.600000
1622.545219	90.200000
1624.427922	103.200000
1626.312012	92.800000
1628.192090	74.400000
1630.073556	79.800000
1631.952811	72.800000
1633.833452	67.400000
1635.708289	90.000000
1637.588107	78.800000
1639.463921	74.200000
1641.339324	90.000000
1643.216113	90.600000
1645.087106	81.400000
1646.961280	92.600000
1648.831455	88.200000
1650.704811	64.200000
1652.575964	59.800000
1654.444916	125.800000
1656.315252	88.800000
1658.181596	89.400000
1660.049325	76.000000
1661.914855	75.200000
1663.781771	91.200000
1665.644698	44.000000
1667.509010	56.000000
1669.371126	86.200000
1671.232837	46.200000
1673.095934	74.400000
1674.956835	74.600000
1676.815544	97.400000
1678.673849	89.600000
1680.533538	94.400000
1682.387461	81.200000
1684.244557	60.200000
1686.101249	64.000000
1687.953966	85.000000
1689.809854	78.800000
1691.661768	82.800000
1693.513281	67.200000
1695.364393	76.400000
1697.215105	49.800000
1699.065415	96.000000
1700.913542	48.200000
1702.763053	86.800000
1704.606814	69.000000
1706.455526	87.600000
1708.298491	86.000000
1710.144623	69.800000
1711.986792	69.800000
1713.832127	84.400000
1715.671721	62.000000
1717.512699	74.800000
1719.355060	68.400000
1721.193465	101.000000
1723.033253	60.200000
1724.870865	76.200000
1726.708083	60.800000
1728.543127	73.000000
1730.379554	77.800000
1732.213809	89.600000
1734.047669	71.800000
1735.881135	77.600000
1737.710656	61.000000
1739.543335	65.200000
1741.372070	67.400000
1743.203962	69.800000
1745.031912	66.600000
1746.859471	98.600000
1748.686637	64.000000
1750.513412	76.400000
1752.339795	53.400000
1754.162242	77.200000
1755.987844	68.200000
1757.809511	67.000000
1759.632560	55.200000
1761.453447	55.400000
1763.273946	46.600000
1765.095825	65.000000
1766.912006	69.800000
1768.731338	78.800000
1770.546742	63.200000
1772.365298	86.800000
1774.179928	77.200000
1775.994171	79.400000
1777.808028	61.000000
1779.621498	75.800000
1781.432815	83.400000
1783.245512	78.000000
1785.057824	58.200000
1786.866217	94.000000
1788.675992	47.400000
1790.481852	83.000000
1792.290857	70.000000
1794.095949	88.000000
1795.902422	41.000000
1797.708511	70.400000
1799.510689	61.200000
1801.316012	82.000000
1803.117426	39.600000
1804.920220	64.600000
1806.719108	77.600000
1808.519377	72.200000
1810.319264	64.200000
1812.117009	69.000000
1813.914374	48.000000
1815.711359	72.200000
1817.507963	66.200000
1819.302428	69.000000
1821.098272	70.000000
1822.888461	62.200000
1824.683547	44.000000
1826.472981	75.800000
1828.265551	59.400000
1830.055986	82.400000
1831.844287	69.200000
1833.635723	97.400000
1835.421513	71.600000
1837.208683	89.200000
1838.993721	47.600000
1840.781893	91.000000
1842.566179	63.200000
1844.348335	74.600000
1846.131871	81.200000
1847.913278	82.200000
1849.696064	47.600000
1851.474969	89.000000
1853.255253	98.600000
1855.033412	102.400000
1856.812949	66.400000
1858.590360	104.200000
1860.365649	90.200000
1862.142315	61.600000
1863.916859	63.400000
1865.692781	64.600000
1867.463082	50.400000
1869.236511	48.800000
1871.007820	59.800000
1872.778758	89.200000
1874.551074	85.600000
1876.317776	85.200000
1878.087603	51.000000
1879.853567	99.400000
1881.622655	52.800000
1883.387881	91.800000
1885.152739	58.600000
1886.918974	80.200000
1888.681350	53.400000
1890.443358	80.600000
1892.205000	66.000000
1893.966275	78.400000
1895.727182	52.200000
1897.487723	71.200000
1899.246154	59.000000
1901.004219	80.000000
1902.760177	57.200000
1904.517511	69.200000
1906.274480	62.800000
1908.029342	80.200000
1909.782100	42.800000
1911.534493	68.400000
1913.288263	50.400000
1915.039929	93.800000
1916.789493	62.200000
1918.540432	85.400000
1920.291009	54.000000
1922.037746	45.200000
1923.785860	96.400000
1925.531874	78.200000
1927.279263	89.200000
1929.024555	87.200000
1930.767749	50.600000
1932.512318	73.400000
1934.254791	62.400000
1935.996905	70.800000
1937.738658	52.600000
1939.480051	76.200000
1941.219351	58.000000
1942.958292	77.000000
1944.696874	68.800000
1946.433365	91.800000
1948.169498	93.300000
1949.907005	94.800000
1951.640690	61.400000
1953.375750	80.200000
1955.108721	80.600000
1956.841336	79.800000
1958.573595	64.600000
1960.305497	85.800000
1962.035313	77.000000
1963.763044	73.000000
1965.492150	80.000000
1967.220900	58.800000
1968.947568	61.600000
1970.673881	75.000000
1972.401567	68.400000
1974.123717	75.400000
1975.848968	47.200000
1977.570412	61.000000
1979.294957	63.600000
1981.017421	67.200000
1982.736083	56.600000
1984.457843	93.800000
1986.175801	62.200000
1987.895132	89.600000
1989.610664	71.200000
1991.331016	68.600000
1993.047570	99.400000
1994.760327	81.600000
1996.476180	63.200000
1998.189961	73.600000
1999.903392	67.600000
2001.614752	102.000000
2003.327484	76.200000
2005.036426	71.000000
2006.748460	53.800000
2008.454985	103.800000
2010.164603	54.000000
2011.872154	77.000000
2013.579356	90.600000
2015.284493	78.200000
2016.989284	62.600000
2018.695446	73.200000
2020.397826	92.000000
2022.101577	92.200000
2023.803266	87.400000
2025.504609	79.400000
2027.205608	97.400000
2028.904545	71.600000
2030.604854	77.000000
2032.301387	86.000000
2033.999292	63.800000
2035.695139	55.000000
2037.394071	69.200000
2039.087517	81.200000
2040.782334	52.600000
2042.476809	79.000000
2044.167515	45.000000
2045.861305	73.200000
2047.551328	64.600000
2049.242722	68.800000
2050.932063	60.000000
2052.622774	77.400000
2054.309722	56.000000
2055.996331	77.400000
2057.684309	67.800000
2059.368528	106.000000
2061.054118	45.400000
2062.739368	75.000000
2064.422569	57.600000
2066.107141	72.600000
2067.786249	87.200000
2069.470144	81.400000
2071.148577	62.600000
2072.830088	90.400000
2074.507847	46.000000
2076.185270	75.000000
2077.864062	64.000000
2079.540812	70.200000
2081.215519	52.200000
2082.891597	71.400000
2084.565633	66.400000
2086.239335	75.800000
2087.912701	86.000000
2089.584028	69.600000
2091.255021	76.400000
2092.925680	73.400000
2094.596005	40.800000
2096.265996	81.600000
2097.933951	57.600000
2099.601573	66.800000
2101.267160	60.400000
2102.934116	79.200000
2104.599039	80.200000
2106.263630	65.400000
2107.926189	48.800000
2109.590116	82.400000
2111.252012	59.800000
2112.913578	70.000000
2114.574812	50.000000
2116.234018	65.800000
2117.892893	76.000000
2119.551439	83.400000
2121.209654	74.200000
2122.864147	73.200000
2124.521704	68.200000
2126.178931	86.400000
2127.832438	77.800000
2129.487312	93.400000
2131.138467	58.800000
2132.792685	89.600000
2134.443185	66.600000
2136.095053	75.200000
2137.741512	76.000000
2139.392726	79.200000
2141.040226	73.000000
2142.689093	75.400000
2144.335941	52.400000
2145.982464	62.600000
2147.628661	74.400000
2149.271150	53.600000
2150.916697	45.600000
2152.558537	80.400000
2154.203434	36.400000
2155.844625	93.800000
2157.485494	65.600000
2159.126038	95.200000
2160.764570	87.200000
2162.404468	75.800000
2164.040666	61.000000
2165.678230	100.800000
2167.315472	64.800000
2168.950704	77.800000
2170.585614	79.600000
2172.220203	85.200000
2173.854471	70.000000
2175.485045	97.400000
2177.118671	63.400000
2178.748605	81.000000
2180.379904	85.600000
2182.009198	78.800000
2183.638173	66.600000
2185.266828	63.200000
2186.895164	71.800000
2188.521498	79.600000
2190.147513	66.800000
2191.771526	102.600000
2193.396905	50.400000
2195.020283	76.000000
2196.645026	65.400000
2198.266088	69.800000
2199.886833	77.400000
2201.508942	47.200000
2203.129054	73.400000
2204.747170	84.000000
2206.364970	48.400000
2207.982455	61.200000
2209.599624	61.400000
2211.216478	85.800000
2212.833016	65.000000
2214.447562	97.000000
2216.060115	69.400000
2217.674032	61.000000
2219.285958	70.400000
2220.899247	53.200000
2222.510546	44.600000
2224.119855	70.600000
2225.730528	37.200000
2227.339212	68.400000
2228.947583	49.200000
2230.553968	87.600000
2232.161715	66.400000
2233.767477	77.400000
2235.372927	49.800000
2236.976392	61.000000
2238.581220	69.200000
2240.184064	81.400000
2241.784925	80.400000
2243.387149	67.800000
2244.987391	58.200000
2246.588995	59.800000
2248.186946	60.600000
2249.786260	66.400000
2251.383594	50.000000
2252.980620	80.400000
2254.579008	59.800000
2256.173747	73.800000
2257.766509	60.400000
2259.360634	70.600000
2260.956120	62.400000
2262.547961	69.400000
2264.139496	61.400000
2265.732393	68.800000
2267.319980	30.000000
2268.912263	91.800000
2270.499240	70.600000
2272.089244	78.600000
2273.673944	69.000000
2275.263338	77.600000
2276.847430	67.400000
2278.432882	84.600000
2280.016366	34.400000
2281.602875	69.000000
2283.185751	26.800000
2284.768324	85.400000
2286.350593	17.800000
2287.929232	66.200000
2289.510896	60.200000
2291.088931	68.200000
2292.669989	42.000000
2294.247420	49.500000
2295.822888	57.000000
2297.401378	73.800000
2298.976244	62.800000
2300.550809	88.000000
2302.125073	84.200000
2303.699038	82.800000
2305.272701	62.200000
2306.846065	75.800000
2308.415810	71.600000
2309.985256	64.600000
2311.557720	69.600000
2313.124910	78.000000
2314.695118	39.600000
2316.261711	59.200000
2317.829664	69.800000
2319.395661	80.200000
2320.961361	56.000000
2322.526763	79.800000
2324.090212	68.000000
2325.655020	77.200000
2327.216220	72.600000
2328.780434	81.400000
2330.339386	82.800000
2331.901352	89.000000
2333.461368	102.400000
2335.021089	84.600000
2336.578860	79.600000
2338.136336	88.800000
2339.693518	55.000000
2341.248752	73.200000
2342.803693	79.200000
2344.358339	64.800000
2345.912692	61.800000
2347.466751	93.200000
2349.020517	59.800000
2350.572338	63.200000
2352.122217	52.600000
2353.675103	87.400000
2355.222746	69.200000
2356.773398	65.200000
2358.320458	67.400000
2359.868876	72.400000
2361.417003	49.200000
2362.961541	66.600000
2364.507437	61.200000
2366.051395	72.400000
2367.596709	60.600000
2369.138440	65.800000
2370.681527	69.800000
2372.222678	64.800000
2373.763540	50.000000
2375.304113	61.200000
2376.844397	52.400000
2378.384392	71.000000
2379.920809	45.400000
2381.460227	63.600000
2382.996067	42.600000
2384.533265	64.600000
2386.066887	65.400000
2387.603509	70.000000
2389.138201	58.800000
2390.670963	76.200000
2392.203438	69.200000
2393.733985	75.600000
2395.267530	72.000000
2396.795864	80.400000
2398.325554	65.200000
2399.854959	65.600000
2401.384079	61.600000
2402.912913	85.800000
2404.436543	60.600000
2405.964808	54.200000
2407.487871	74.600000
2409.015567	74.600000
2410.536424	74.800000
2412.061913	83.800000
2413.583843	72.200000
2415.107127	55.600000
2416.628491	74.400000
2418.147935	86.400000
2419.668734	60.600000
2421.187614	51.000000
2422.706213	53.400000
2424.222894	96.800000
2425.740929	64.000000
2427.258683	84.000000
2428.772885	51.400000
2430.286808	83.200000
2431.800450	72.400000
2433.315447	82.800000
2434.826895	54.000000
2436.339697	105.800000
2437.850587	59.400000
2439.361198	80.600000
2440.869897	46.000000
2442.381582	98.400000
2443.889724	81.000000
2445.397588	88.000000
2446.905174	52.400000
2448.409219	72.800000
2449.916249	84.200000
2451.421371	59.400000
2452.926216	77.400000
2454.429154	85.400000
2455.931816	79.000000
2457.434201	99.000000
2458.934681	55.800000
2460.436514	95.400000
2461.936442	72.600000
2463.436095	88.800000
2464.935473	77.600000
2466.432948	86.600000
2467.928521	58.800000
2469.427074	77.400000
2470.922099	78.200000
2472.418476	85.400000
2473.911327	67.000000
2475.405531	76.200000
2476.899461	70.000000
2478.389867	82.000000
2479.883251	64.400000
2481.374737	75.400000
2482.864326	46.600000
2484.353643	60.200000
2485.841064	47.800000
2487.331461	82.800000
2488.818340	71.600000
2490.306570	106.400000
2491.791283	56.000000
2493.275727	83.200000
2494.761521	65.600000
2496.245424	81.000000
2497.730677	57.000000
2499.210797	73.600000
2500.693890	74.000000
2502.175092	49.400000
2503.656025	37.200000
2505.135069	89.400000
2506.613844	80.000000
2508.092351	84.000000
2509.570590	38.200000
2511.048560	65.800000
2512.523025	63.400000
2514.000460	69.000000
2515.474391	68.200000
2516.949672	41.000000
2518.424686	55.200000
2519.896199	62.200000
2521.369063	61.800000
2522.840044	80.600000
2524.312375	64.800000
2525.779592	88.400000
2527.249776	62.000000
2528.718079	84.200000
2530.186117	57.000000
2531.653890	82.000000
2533.121398	70.200000
2534.588641	57.600000
2536.052392	63.200000
2537.517493	72.600000
2538.980717	61.800000
2540.445290	59.600000
2541.906375	56.400000
2543.368809	93.000000
2544.830980	53.800000
2546.289665	89.200000
2547.752921	60.000000
2549.211082	58.000000
2550.670591	63.000000
2552.125006	72.400000
2553.583992	70.000000
2555.041106	91.800000
2556.496348	74.600000
2557.951330	79.000000
2559.404443	87.000000
2560.858903	67.800000
2562.311495	78.600000
2563.763827	70.800000
2565.214292	52.000000
2566.667712	57.800000
2568.116050	80.000000
2569.567343	70.400000
2571.016771	39.000000
2572.462726	86.400000
2573.911636	63.000000
2575.357076	95.200000
2576.803863	43.000000
2578.248787	74.800000
2579.693454	55.400000
2581.139468	55.000000
2582.582016	44.600000
2584.025911	96.800000
2585.466340	45.600000
2586.908118	80.800000
2588.348036	41.400000
2589.789301	86.200000
2591.227104	66.800000
2592.667857	97.200000
2594.103548	39.200000
2595.542188	65.000000
2596.978970	71.400000
2598.413897	70.800000
2599.851771	67.600000
2601.284588	50.800000
2602.718752	60.000000
2604.151062	96.000000
2605.584718	57.400000
2607.016521	70.600000
2608.448070	69.800000
2609.879367	95.800000
2611.308811	55.000000
2612.738003	57.200000
2614.165345	40.600000
2615.594032	92.200000
2617.022468	45.800000
2618.447456	94.200000
2619.873791	71.800000
2621.298277	60.600000
2622.724109	65.200000
2624.146497	77.800000
2625.570231	67.000000
2626.992118	85.400000
2628.413756	56.600000
2629.833548	82.000000
2631.254686	83.800000
2632.675574	92.200000
2634.093023	85.600000
2635.513413	67.200000
2636.930365	83.400000
2638.347068	94.200000
2639.763523	97.400000
2641.179730	75.200000
2642.595689	61.200000
2644.009807	97.000000
2645.423677	69.600000
2646.835709	95.200000
2648.249084	107.400000
2649.659030	121.600000
2651.071912	76.000000
2652.481365	110.800000
2653.890572	80.200000
2655.297943	114.000000
2656.708248	82.400000
2658.116718	113.400000
2659.523352	92.800000
2660.929741	131.800000
2662.334296	107.600000
2663.740195	114.800000
2665.144261	80.800000
2666.548082	134.600000
2667.951659	112.800000
2669.353405	121.400000
2670.756494	134.600000
2672.156165	136.600000
2673.557180	125.800000
2674.954779	142.800000
2676.355307	109.600000
2677.752421	152.800000
2679.150878	125.200000
2680.547508	139.200000
2681.943895	138.000000
2683.340040	150.600000
2684.734359	154.200000
2686.130021	146.800000
2687.522274	125.600000
2688.915869	161.200000
2690.307640	151.600000
2691.700754	137.000000
2693.092044	135.400000
2694.481511	180.000000
2695.870738	130.600000
2697.259726	150.200000
2698.650055	142.800000
2700.035401	170.600000
2701.423670	145.600000
2702.810119	164.200000
2704.196329	156.400000
2705.582300	186.200000
2706.964873	177.400000
2708.348788	195.000000
2709.732465	204.000000
2711.115903	225.600000
2712.495946	189.200000
2713.877331	201.800000
2715.256901	193.800000
2716.637811	214.000000
2718.016907	195.400000
2719.394189	217.000000
2720.772812	177.600000
2722.149621	224.600000
2723.526195	176.200000
2724.902533	224.800000
2726.277060	170.400000
2727.652927	181.600000
2729.025407	140.400000
2730.400803	166.800000
2731.771239	178.200000
2733.143016	157.800000
2734.514558	161.400000
2735.884292	149.800000
2737.255367	130.400000
2738.624633	128.600000
2739.993666	115.800000
2741.360893	121.000000
2742.727886	115.800000
2744.094647	107.400000
2745.461176	110.600000
2746.825899	123.200000
2748.190390	95.200000
2749.554650	97.600000
2750.918677	94.800000
2752.282473	74.000000
2753.642895	71.600000
2755.006227	96.800000
2756.364617	90.200000
2757.725917	62.600000
2759.083847	68.400000
2760.444685	71.200000
2761.803724	55.400000
2763.159394	73.400000
2764.517972	71.400000
2765.873183	91.200000
2767.228165	64.200000
2768.581350	93.200000
2769.937442	48.000000
2771.290170	64.600000
2772.642670	56.400000
2773.994941	88.800000
2775.348550	55.200000
2776.698799	97.000000
2778.047253	66.600000
2779.398612	82.200000
2780.746613	47.200000
2782.095951	66.000000
2783.443497	56.000000
2784.790817	71.600000
2786.137910	63.400000
2787.483211	44.200000
2788.828287	59.200000
2790.173137	68.600000
2791.517761	44.800000
2792.859033	62.200000
2794.201643	52.600000
2795.544027	51.800000
2796.886186	31.200000
2798.224996	43.400000
2799.566706	50.400000
2800.905067	57.600000
2802.244766	74.400000
2803.582680	80.400000
2804.918809	56.200000
2806.254714	35.400000
2807.591957	39.800000
2808.927416	67.800000
2810.262652	59.000000
2811.596105	90.200000
2812.930895	40.200000
2814.262345	90.400000
2815.596690	29.000000
2816.926137	65.400000
2818.256920	32.000000
2819.587483	69.600000
2820.916266	57.400000
2822.246385	56.600000
2823.574726	55.200000
2824.902846	84.200000
2826.229188	57.800000
2827.556867	69.600000
2828.881212	49.000000
2830.206894	67.600000
2831.530800	58.600000
2832.854486	73.200000
2834.179509	69.400000
2835.501201	70.200000
2836.822675	46.200000
2838.143930	42.000000
2839.464966	46.400000
2840.784229	49.600000
2842.104828	18.400000
2843.423656	75.400000
2844.742265	28.800000
2846.059103	70.400000
2847.375724	45.200000
2848.692128	41.400000
2850.006762	60.800000
2851.322732	59.800000
2852.635381	37.200000
2853.949365	48.400000
2855.263133	49.200000
2856.576684	48.800000
2857.888469	62.800000
2859.198487	63.800000
2860.509840	43.800000
2861.817878	69.800000
2863.127250	61.000000
2864.436408	83.600000
2865.745350	42.600000
2867.052528	52.200000
2868.357944	61.400000
2869.664693	43.000000
2870.969681	61.200000
2872.274454	77.400000
2873.577467	47.600000
2874.883360	70.400000
2876.184399	53.000000
2877.486772	52.600000
2878.787385	41.200000
2880.089332	87.400000
2881.391065	48.200000
2882.689495	81.200000
2883.989258	29.000000
2885.287264	60.000000
2886.585058	41.200000
2887.881096	68.200000
2889.178467	41.000000
2890.474082	43.000000
2891.769486	38.400000
2893.064679	63.000000
2894.356575	26.400000
2895.651347	41.600000
2896.942822	47.000000
2898.235630	77.600000
2899.528228	34.600000
2900.817532	70.800000
2902.108168	45.800000
2903.397053	38.400000
2904.687270	13.200000
2905.974196	47.400000
2907.262454	31.200000
2908.548963	66.400000
2909.835263	34.400000
2911.121356	68.000000
2912.405700	56.800000
2913.692915	53.000000
2914.975304	52.400000
2916.259025	54.400000
2917.541000	52.200000
2918.822767	37.400000
2920.102789	52.600000
2921.385682	70.000000
2922.666829	57.800000
2923.944694	52.000000
2925.225428	50.800000
2926.502881	86.800000
2927.780128	22.600000
2929.055633	61.400000
2930.334006	19.000000
2931.607565	40.200000
2932.883991	51.200000
2934.158676	71.200000
2935.431620	50.400000
2936.705896	48.800000
2937.978432	27.400000
2939.250763	55.600000
2940.519822	30.800000
2941.791746	36.600000
2943.061932	58.400000
2944.331914	54.000000
2945.601693	33.200000
2946.869736	28.200000
2948.136042	50.600000
2949.402147	59.400000
2950.669581	64.000000
2951.935280	49.800000
2953.200778	25.600000
2954.466073	59.400000
2955.728103	46.600000
2956.991463	66.200000
2958.254622	49.400000
2959.516049	72.000000
2960.778805	45.000000
2962.039829	47.000000
2963.299123	40.200000
2964.558217	79.600000
2965.817110	40.200000
2967.075803	37.200000
2968.334296	50.000000
2969.591060	65.600000
2970.847624	30.000000
2972.102460	54.400000
2973.358626	37.000000
2974.611537	54.600000
2975.865777	50.600000
2977.119817	59.400000
2978.372132	65.800000
2979.624249	92.800000
2980.874641	35.000000
2982.127888	69.800000
2983.376358	23.200000
2984.627683	71.800000
2985.875758	40.000000
2987.123636	34.600000
2988.371318	36.000000
2989.618802	46.800000
2990.864565	43.800000
2992.110132	35.000000
2993.357026	32.000000
2994.600676	65.400000
2995.845654	32.400000
2997.087388	56.200000
2998.331974	48.800000
2999.574841	52.000000
3000.814467	24.600000
3002.056943	63.400000
3003.296179	33.400000
3004.536743	66.800000
3005.775590	50.400000
3007.014243	71.000000
3008.251180	34.000000
3009.489445	43.200000
3010.725994	18.000000
3011.962350	53.200000
3013.198512	39.000000
3014.432960	55.000000
3015.667216	55.800000
3016.901278	48.000000
3018.133627	64.400000
3019.364266	51.800000
3020.597750	64.800000
3021.829522	62.800000
3023.059584	49.400000
3024.289453	55.800000
3025.517613	47.800000
3026.747100	68.000000
3027.974877	69.600000
3029.202463	49.800000
3030.431375	51.800000
3031.655546	59.000000
3032.882559	39.800000
3034.106348	45.600000
3035.331464	33.200000
3036.554873	55.600000
3037.778092	35.800000
3038.999606	47.600000
3040.223961	19.000000
3041.443581	62.200000
3042.664527	43.400000
3043.885284	49.400000
3045.104337	57.400000
3046.324715	55.200000
3047.541877	47.600000
3048.760365	35.600000
3049.977150	30.800000
3051.193748	40.200000
3052.410157	39.000000
3053.623353	56.200000
3054.839388	18.600000
3056.052210	62.800000
3057.267869	39.000000
3058.478805	36.600000
3059.691066	44.400000
3060.903140	60.200000
3062.115028	45.800000
3063.325219	50.600000
3064.535223	45.400000
3065.745041	67.200000
3066.953163	38.600000
3068.161100	28.000000
3069.367341	23.000000
3070.574907	54.000000
3071.780778	54.300000
3072.986465	54.600000
3074.191966	58.200000
3075.395774	69.400000
3076.600906	17.600000
3077.804345	64.200000
3079.006093	58.600000
3080.207656	37.400000
3081.409036	38.000000
3082.610232	55.400000
3083.809738	25.200000
3085.009061	70.000000
3086.209707	43.600000
3087.408663	52.400000
3088.604425	31.600000
3089.803016	67.000000
3090.998413	40.000000
3092.195133	55.400000
3093.388661	26.800000
3094.585017	39.400000
3095.779686	51.800000
3096.971165	46.200000
3098.166976	10.800000
3099.358092	60.000000
3100.550532	23.400000
3101.739784	27.800000
3102.931861	25.400000
3104.122255	50.400000
3105.309463	37.600000
3106.497993	57.000000
3107.687846	38.600000
3108.874515	47.600000
3110.061003	45.000000
3111.247313	50.800000
3112.434944	33.800000
3113.619393	30.800000
3114.802163	23.200000
3115.987755	37.800000
3117.171668	59.600000
3118.353902	60.600000
3119.535957	18.200000
3120.717834	50.200000
3121.899533	47.200000
3123.079555	52.600000
3124.257900	12.600000
3125.439065	56.600000
3126.617055	54.000000
3127.794868	49.000000
3128.972504	58.200000
3130.148466	55.400000
3131.324250	9.400000
3132.501356	40.000000
3133.676787	32.600000
3134.850545	36.400000
3136.022630	55.200000
3137.196037	27.800000
3138.369267	23.400000
3139.540826	43.800000
3140.713705	43.200000
3141.883417	24.400000
3143.054450	19.200000
3144.223813	51.800000
3145.391505	35.600000
3146.562013	45.400000
3147.727863	37.000000
3148.898021	66.800000
3150.063523	21.200000
3151.228850	59.000000
3152.394004	24.200000
3153.558985	86.400000
3154.725285	39.200000
3155.886933	75.000000
3157.049900	34.400000
3158.212695	31.800000
3159.375317	9.200000
3160.536273	37.400000
3161.697058	42.000000
3162.857670	38.400000
3164.016618	44.200000
3165.175395	53.000000
3166.333999	36.200000
3167.492432	47.000000
3168.650694	40.200000
3169.807293	67.400000
3170.962231	26.800000
3172.118488	52.200000
3173.273084	45.200000
3174.427510	62.800000
3175.580276	31.800000
3176.732871	64.400000
3177.885297	40.200000
3179.037553	42.800000
3180.189638	51.000000
3181.338577	52.000000
3182.490324	45.600000
3183.640412	62.200000
3184.788844	39.000000
3185.937106	21.800000
3187.085200	27.000000
3188.233125	44.000000
3189.379394	52.000000
3190.525495	64.600000
3191.669942	30.600000
3192.814221	62.400000
3193.958332	36.000000
3195.103760	54.000000
3196.246050	48.200000
3197.388173	47.200000
3198.530128	37.800000
3199.671916	40.000000
3200.813537	19.200000
3201.952023	60.400000
3203.091826	42.200000
3204.232946	64.600000
3205.370933	47.800000
3206.507270	49.800000
3207.643441	17.600000
3208.780929	55.200000
3209.916769	26.200000
3211.053926	27.800000
3212.186470	17.200000
3213.323296	51.400000
3214.455510	29.000000
3215.589041	37.600000
3216.722408	44.600000
3217.852647	36.000000
3218.985684	19.800000
3220.115595	83.000000
3221.246822	47.000000
3222.374925	31.200000
3223.505824	19.400000
3224.635079	36.200000
3225.762691	60.000000
3226.887180	29.800000
3228.015945	57.800000
3229.141588	55.000000
3230.267069	33.400000
3231.390907	48.800000
3232.517541	35.000000
3233.639577	61.400000
3234.762929	35.200000
3235.886119	55.000000
3237.009146	40.000000
3238.130535	36.400000
3239.251761	36.800000
3240.371350	57.200000
3241.490777	47.200000
3242.608566	55.000000
3243.729147	43.800000
3244.846615	53.600000
3245.963922	29.000000
3247.081069	76.200000
3248.196579	78.800000
3249.313405	52.000000
3250.427121	56.800000
3251.543626	66.800000
3252.658497	20.000000
3253.770258	48.200000
3254.881861	35.200000
3255.994779	39.000000
3257.107537	35.600000
3258.217189	44.000000
3259.328156	18.400000
3260.438964	67.200000
3261.548140	38.600000
3262.655685	36.800000
3263.764545	20.200000
3264.873247	48.400000
3265.978846	31.600000
3267.085759	55.400000
3268.191043	18.600000
3269.297641	34.400000
3270.401139	43.200000
3271.505952	61.200000
3272.610606	44.000000
3273.712163	35.400000
3274.813563	51.400000
3275.916277	66.800000
3277.018835	10.000000
3278.118296	60.600000
3279.220541	36.000000
3280.319690	21.800000
3281.417215	18.200000
3282.514584	54.800000
3283.614735	49.800000
3284.711794	36.400000
3285.808697	25.800000
3286.905445	42.800000
3287.997634	41.800000
3289.094073	46.600000
3290.188889	28.400000
3291.283551	52.400000
3292.376591	31.800000
3293.469476	42.800000
3294.560741	35.400000
3295.653319	51.000000
3296.744277	38.000000
3297.833615	52.600000
3298.922800	41.800000
3300.013298	65.200000
3301.100711	43.000000
3302.187971	46.000000
3303.276544	26.000000
3304.364964	37.400000
3305.448838	24.000000
3306.536953	58.000000
3307.621986	5.600000
3308.705404	54.600000
3309.790134	33.800000
3310.873248	52.600000
3311.957675	20.200000
3313.039023	62.000000
3314.121683	36.400000
3315.202729	41.400000
3316.283624	16.800000
3317.362905	48.800000
3318.442036	36.200000
3319.522479	46.000000
3320.599847	28.400000
3321.678527	31.200000
3322.755595	29.200000
3323.832514	50.000000
3324.907821	35.200000
3325.982979	51.000000
3327.059448	41.600000
3328.132847	60.000000
3329.206096	31.200000
3330.280657	44.800000
3331.353609	25.400000
3332.424952	58.200000
3333.497606	17.800000
3334.567194	83.000000
3335.638092	21.200000
3336.707383	34.600000
3337.777985	14.200000
3338.846980	41.200000
3339.914369	44.800000
3340.980153	52.400000
3342.050163	25.200000
3343.117110	38.400000
3344.180995	19.200000
3345.247647	56.200000
3346.312696	23.600000
3347.376141	58.400000
3348.439440	34.400000
3349.502592	30.200000
3350.565598	0.800000
3351.628458	43.600000
3352.689716	20.600000
3353.747917	73.200000
3354.810338	31.000000
3355.869704	31.800000
3356.928924	33.000000
3357.989453	42.000000
3359.045474	61.800000
3360.104258	36.800000
3361.158535	24.000000
3362.215576	45.600000
3363.271018	25.800000
3364.327770	41.400000
3365.382923	43.600000
3366.436479	50.400000
3367.488439	33.200000
3368.543160	24.600000
3369.594832	31.200000
3370.646361	56.000000
3371.699198	34.200000
3372.748988	44.600000
3373.800087	28.400000
3374.848140	46.400000
3375.898952	22.000000
3376.946720	46.800000
3377.994344	40.600000
3379.041827	65.200000
3380.087717	45.400000
3381.134915	62.600000
3382.179071	53.600000
3383.225985	28.600000
3384.271307	24.400000
3385.313588	59.800000
3386.355728	14.600000
3387.399177	73.400000
3388.442484	19.600000
3389.484201	31.800000
3390.525778	11.400000
3391.567213	41.400000
3392.607060	19.600000
3393.645318	36.800000
3394.684884	51.200000
3395.724310	46.600000
3396.762148	43.200000
3397.798399	40.200000
3398.834511	37.400000
3399.871930	46.400000
3400.906316	30.200000
3401.942009	40.800000
3402.977563	19.800000
3404.010086	56.400000
3405.045362	34.400000
3406.077607	44.400000
3407.109714	47.400000
3408.140237	39.000000
3409.172067	40.000000
3410.203759	53.400000
3411.232423	47.800000
3412.260950	28.800000
3413.290783	23.600000
3414.320479	40.200000
3415.347149	56.600000
3416.375125	57.800000
3417.400078	26.200000
3418.427780	67.800000
3419.452459	47.200000
3420.478444	45.000000
3421.502849	7.200000
3422.527118	44.800000
3423.549808	33.200000
3424.572362	36.200000
3425.596222	46.200000
3426.617062	33.400000
3427.637766	38.000000
3428.659777	49.000000
3429.678769	33.000000
3430.697625	54.200000
3431.717788	44.400000
3432.734934	26.800000
