-116.521679	11.600000
-113.852079	7.400000
-111.185414	-6.400000
-108.519501	11.800000
-105.856521	-10.800000
-103.192110	-0.600000
-100.530630	16.000000
-97.867721	30.000000
-95.209918	5.000000
-92.550686	6.600000
-89.892202	1.600000
-87.236643	-16.600000
-84.579654	3.000000
-81.927764	37.600000
-79.274444	-7.800000
-76.624043	14.800000
-73.972214	-8.600000
-71.325474	6.000000
-68.677306	10.200000
-66.029880	-10.600000
-63.385369	11.000000
-60.739428	3.800000
-58.098569	-1.800000
-55.456281	-5.000000
-52.816902	1.200000
-50.176093	10.000000
-47.536025	2.400000
-44.901030	7.600000
-42.264605	18.400000
-39.631083	1.800000
-36.996133	-5.400000
-34.366248	2.800000
-31.732771	32.600000
-29.104356	37.800000
-26.476675	3.000000
-23.847565	-0.600000
-21.223512	22.200000
-18.595870	24.000000
-15.973281	46.000000
-13.351424	46.800000
-10.730297	56.000000
-8.109901	204.200000
-5.492392	623.200000
-2.873455	1998.200000
-0.257403	6281.400000
2.357920	10129.400000
4.972515	5584.000000
7.584229	500.400000
10.197371	66.000000
12.805479	76.600000
15.417169	13.800000
18.023828	4.400000
20.631915	21.200000
23.239278	-3.000000
25.841616	10.200000
28.447532	9.400000
31.048426	11.200000
33.650748	21.800000
36.248053	18.200000
38.848933	11.600000
41.444798	6.000000
44.042092	-34.400000
46.638666	23.800000
49.230231	6.000000
51.823224	18.200000
54.413356	-4.400000
57.004915	-7.000000
59.593616	-21.600000
62.183743	5.200000
64.768871	-5.600000
67.355427	24.400000
69.941269	6.400000
72.524257	3.600000
75.108671	0.600000
77.685957	-2.400000
80.266809	-16.200000
82.844812	19.600000
85.422105	14.800000
88.000824	-6.000000
90.574561	16.600000
93.149726	30.200000
95.722047	13.000000
98.293660	-7.200000
100.862433	-12.000000
103.432633	33.600000
105.999994	19.400000
108.568782	1.200000
111.134733	-14.400000
113.697849	-11.600000
116.264521	33.600000
118.821972	-0.200000
121.385108	24.800000
123.943284	13.400000
126.505015	6.600000
129.061789	21.400000
131.619989	16.000000
134.173237	49.000000
136.725787	36.400000
139.281887	77.200000
141.833039	112.200000
144.383494	114.800000
146.933251	117.600000
149.480189	121.600000
152.026432	128.800000
154.574100	120.400000
157.121072	173.200000
159.663109	136.000000
162.204452	131.200000
164.745102	167.000000
167.287178	131.800000
169.826442	151.600000
172.362898	147.400000
174.898662	148.800000
177.435852	116.600000
179.972351	134.400000
182.506044	127.400000
185.036933	125.200000
187.567134	138.000000
190.098761	144.200000
192.627586	130.800000
195.153612	131.400000
197.678952	122.600000
200.205717	132.200000
202.729686	149.400000
205.252970	144.800000
207.775569	125.000000
210.295375	122.600000
212.814497	129.000000
215.332938	144.600000
217.852802	111.000000
220.365665	128.000000
222.882059	133.600000
225.397771	137.400000
227.908593	116.600000
230.420840	153.600000
232.930305	121.600000
235.439090	145.600000
237.947198	134.800000
240.456730	154.800000
242.961381	131.000000
245.465356	130.600000
247.970755	146.200000
250.471279	114.000000
252.975326	133.000000
255.472403	155.600000
257.973003	127.800000
260.470831	128.400000
262.967986	140.600000
265.464468	121.800000
267.956087	135.600000
270.451226	143.400000
272.943598	135.000000
275.435300	134.000000
277.924239	130.400000
280.414601	147.000000
282.902202	133.200000
285.387043	157.400000
287.875399	167.200000
290.356815	145.200000
292.841745	156.600000
295.321830	155.800000
297.805427	149.600000
300.284181	168.400000
302.764358	167.600000
305.241784	174.000000
307.718546	163.800000
310.194644	149.600000
312.667995	167.600000
315.140683	149.200000
317.612710	157.200000
320.084076	215.400000
322.552697	208.200000
325.020660	211.400000
327.490044	179.000000
329.954606	187.000000
332.422672	132.800000
334.885918	159.800000
337.348506	173.800000
339.810438	204.800000
342.271713	192.400000
344.730254	164.600000
347.190217	173.800000
349.647447	178.800000
352.104023	184.200000
354.559945	186.000000
357.013137	172.800000
359.467752	157.000000
361.917565	181.200000
364.370874	147.400000
366.819384	175.400000
369.267244	166.400000
371.716526	171.400000
374.161014	169.200000
376.606924	167.200000
379.052184	196.800000
381.494726	181.800000
383.936620	198.600000
386.377867	172.800000
388.816398	184.600000
391.256350	174.200000
393.693590	165.000000
396.128117	180.000000
398.566132	177.000000
400.999370	158.800000
403.434029	154.200000
405.863916	181.400000
408.297288	172.800000
410.725890	168.600000
413.153850	167.400000
415.583232	177.400000
418.007848	174.000000
420.433886	154.600000
422.859283	159.800000
425.284040	184.600000
427.704039	169.600000
430.125458	199.800000
432.544182	186.400000
434.964326	171.200000
437.381775	167.600000
439.800644	163.800000
442.216820	184.600000
444.628248	188.200000
447.043153	167.200000
449.455369	173.200000
451.866950	175.800000
454.277897	178.800000
456.686158	150.000000
459.093786	167.400000
461.500782	152.600000
463.907147	165.800000
466.310829	151.400000
468.713881	153.200000
471.116303	163.200000
473.518095	167.800000
475.917209	153.400000
478.317743	180.000000
480.717648	174.800000
483.112831	161.800000
485.511480	180.400000
487.905408	164.200000
490.298711	167.200000
492.691389	159.600000
495.083441	158.800000
497.476911	146.000000
499.865669	147.600000
502.251761	167.600000
504.639273	152.600000
507.026162	142.600000
509.410387	134.200000
511.796030	123.400000
514.179012	116.000000
516.559333	97.600000
518.941073	117.800000
521.320154	136.800000
523.700654	100.400000
526.078496	93.400000
528.453682	116.400000
530.828252	99.400000
533.204239	89.200000
535.577574	96.200000
537.952326	93.400000
540.322393	76.800000
542.691844	114.800000
545.062713	92.200000
547.428901	104.000000
549.796508	87.000000
552.161470	106.200000
554.525818	98.200000
556.889553	115.200000
559.254706	77.200000
561.615187	99.600000
563.977086	98.600000
566.336344	110.400000
568.692964	83.200000
571.053030	101.400000
573.406404	118.600000
575.763223	85.400000
578.117407	74.600000
580.470982	98.600000
582.823950	82.800000
585.174285	104.400000
587.526038	78.800000
589.871114	87.000000
592.221653	89.000000
594.565520	65.200000
596.914848	86.600000
599.259527	97.000000
601.601582	82.000000
603.945054	110.600000
606.285903	82.800000
608.626149	103.600000
610.963776	77.200000
613.304837	100.000000
615.641260	98.800000
617.979100	81.400000
620.314323	103.800000
622.646930	73.400000
624.980953	99.600000
627.312362	91.600000
629.643173	87.000000
631.973387	112.200000
634.303002	93.600000
636.627994	70.000000
638.958428	84.000000
641.284241	65.200000
643.607446	67.200000
645.932068	59.400000
648.254084	85.800000
650.575506	65.400000
652.894326	63.000000
655.214561	72.600000
657.534203	81.600000
659.851244	90.600000
662.167693	72.000000
664.481544	85.800000
666.796811	87.000000
669.109481	63.200000
671.423566	68.000000
673.733051	52.800000
676.043952	84.000000
678.352260	66.400000
680.659980	80.600000
682.969114	94.800000
685.273656	55.800000
687.577612	68.000000
689.880982	74.800000
692.185766	73.800000
694.485963	82.200000
696.787576	60.800000
699.088603	92.000000
701.385049	71.600000
703.682910	85.000000
705.980187	60.600000
708.276881	95.200000
710.568999	60.200000
712.864528	63.600000
715.155483	80.000000
717.447853	69.400000
719.737648	75.400000
722.026862	68.000000
724.315497	78.400000
726.601559	75.800000
728.889036	63.800000
731.173941	64.000000
733.458269	69.000000
735.740028	70.800000
738.023201	79.200000
740.305797	74.200000
742.583837	50.600000
744.863292	87.200000
747.142170	76.600000
749.420474	83.600000
751.694228	82.000000
753.969395	66.400000
756.243989	69.600000
758.516024	71.400000
760.789472	69.000000
763.060362	77.600000
765.328696	47.400000
767.598443	82.200000
769.865636	73.200000
772.132258	76.200000
774.398310	98.800000
776.661811	48.200000
778.926725	51.600000
781.191069	56.200000
783.450884	74.200000
785.712111	60.400000
787.972771	90.600000
790.230885	89.000000
792.486454	81.600000
794.745414	77.800000
796.997874	87.000000
799.255702	66.000000
801.509011	87.800000
803.759780	75.200000
806.011961	69.800000
808.261603	51.200000
810.512658	85.600000
812.759201	76.600000
815.007156	49.000000
817.252577	74.200000
819.499409	82.600000
821.745680	47.800000
823.987446	82.800000
826.232596	65.200000
828.471273	104.000000
830.713332	58.800000
832.950893	88.200000
835.189866	72.600000
837.426312	84.200000
839.664169	76.600000
841.899501	78.200000
844.132310	101.000000
846.366530	71.400000
848.598227	64.600000
850.829370	78.200000
853.059958	62.800000
855.289992	86.400000
857.519472	65.200000
859.744470	72.200000
861.972843	76.600000
864.196736	72.000000
866.422041	63.600000
868.642870	68.200000
870.867071	66.200000
873.086799	75.200000
875.307937	53.600000
877.528525	54.000000
879.746604	83.000000
881.966092	64.000000
884.181114	78.000000
886.395588	83.200000
888.609515	60.200000
890.822895	54.200000
893.035727	64.200000
895.248013	73.400000
897.457796	73.000000
899.667034	69.400000
901.875727	66.000000
904.081920	85.600000
906.289524	77.600000
908.494629	63.200000
910.699191	85.600000
912.901258	67.800000
915.104734	75.600000
917.305716	72.200000
919.506156	67.600000
921.708005	65.400000
923.903463	82.400000
926.102280	68.400000
928.296658	82.400000
930.494394	65.400000
932.687694	85.800000
934.882403	63.200000
937.074626	50.000000
939.266310	62.800000
941.457457	72.000000
943.646121	47.800000
945.834249	86.200000
948.019896	78.600000
950.208895	86.400000
952.393471	92.000000
954.577512	66.000000
956.764903	66.200000
958.943990	73.800000
961.126428	74.800000
963.308332	93.000000
965.487761	111.600000
967.664718	94.800000
969.843083	83.600000
972.022855	74.400000
974.196278	77.400000
976.373047	96.000000
978.545409	68.400000
980.719179	94.000000
982.888545	91.800000
985.061255	91.600000
987.231500	78.000000
989.401215	95.000000
991.570403	86.400000
993.735193	113.600000
995.903324	102.800000
998.067060	110.800000
1000.232204	72.800000
1002.394888	96.000000
1004.557047	104.400000
1006.716749	108.400000
1008.875926	105.800000
1011.036510	108.600000
1013.194639	75.600000
1015.352245	95.800000
1017.509327	94.800000
1019.665885	107.800000
1021.818064	104.400000
1023.971650	72.200000
1026.124714	112.200000
1028.275329	100.000000
1030.427351	118.800000
1032.574999	137.000000
1034.725979	113.800000
1036.872588	92.200000
1039.018678	109.400000
1041.164250	101.800000
1043.311227	101.600000
1045.451915	102.600000
1047.595933	97.800000
1049.737510	113.800000
1051.878571	110.200000
1054.021036	109.400000
1056.157221	101.600000
1058.296733	124.000000
1060.431890	85.000000
1062.570371	131.800000
1064.704498	116.000000
1066.838112	106.400000
1068.973130	119.600000
1071.103800	110.000000
1073.235874	102.600000
1075.365519	117.000000
1077.494652	114.000000
1079.623273	128.600000
1081.751383	115.600000
1083.877067	104.400000
1086.002241	80.200000
1088.128819	112.200000
1090.251059	116.800000
1092.374704	91.400000
1094.494014	132.200000
1096.618553	107.600000
1098.736848	111.400000
1100.856547	68.600000
1102.973827	56.400000
1105.090600	84.800000
1107.206868	94.600000
1109.320719	77.600000
1111.435975	97.800000
1113.546907	105.600000
1115.661152	69.600000
1117.771076	99.000000
1119.882404	98.400000
1121.993227	70.800000
1124.099734	89.000000
1126.209550	94.200000
1128.315053	106.000000
1130.421958	59.000000
1132.522648	91.400000
1134.628550	83.600000
1136.730143	95.400000
1138.833139	58.200000
1140.935634	69.400000
1143.031922	85.400000
1145.133417	87.800000
1147.230610	93.000000
1149.327305	89.000000
1151.423501	102.000000
1153.519199	89.000000
1155.614400	65.000000
1157.707204	80.800000
1159.801410	126.400000
1161.889425	81.800000
1163.982639	92.600000
1166.069664	56.600000
1168.159988	93.800000
1170.246024	74.600000
1172.335359	76.800000
1174.418512	96.200000
1176.503067	78.200000
1178.589024	87.000000
1180.670699	74.600000
1182.753775	79.000000
1184.834466	101.400000
1186.914666	102.800000
1188.994374	67.000000
1191.073591	82.600000
1193.150426	81.400000
1195.224879	77.400000
1197.302625	82.400000
1199.376101	62.600000
1201.450977	70.600000
1203.521586	81.400000
1205.593596	39.200000
1207.663231	68.600000
1209.734265	88.800000
1211.804813	74.400000
1213.871099	77.800000
1215.938786	79.800000
1218.004101	73.600000
1220.070816	72.200000
1222.133275	77.800000
1224.199019	86.000000
1226.260509	82.200000
1228.323400	60.600000
1230.383923	77.800000
1232.443962	64.800000
1234.503518	61.000000
1236.560710	73.000000
1238.617420	61.200000
1240.671766	66.200000
1242.729394	75.600000
1244.784659	60.200000
1246.835683	66.600000
1248.888107	68.000000
1250.940051	78.400000
1252.989637	82.600000
1255.038744	72.000000
1257.087372	63.800000
1259.135522	74.200000
1261.183194	91.200000
1263.226635	67.400000
1265.273352	89.000000
1267.317715	75.400000
1269.361602	64.200000
1271.403137	74.600000
1273.442323	96.600000
1275.484782	73.200000
1277.523018	51.200000
1279.562653	65.400000
1281.601813	66.600000
1283.636754	83.800000
1285.673094	86.200000
1287.707090	76.400000
1289.742483	72.000000
1291.773664	41.000000
1293.806242	57.800000
1295.838349	74.000000
1297.868115	89.800000
1299.899278	71.400000
1301.926235	66.800000
1303.954589	66.600000
1305.978738	72.200000
1308.006153	55.400000
1310.029365	45.800000
1312.053975	57.600000
1314.076251	41.000000
1316.099924	91.400000
1318.121263	92.600000
1320.142136	57.200000
1322.162541	60.000000
1324.178753	82.600000
1326.196362	70.400000
1328.211643	69.600000
1330.230183	68.600000
1332.244534	73.200000
1334.256558	94.800000
1336.271841	63.400000
1338.282938	74.000000
1340.295432	70.200000
1342.303743	75.800000
1344.315309	62.600000
1346.320837	74.600000
1348.329620	91.800000
1350.334225	79.800000
1352.342084	63.200000
1354.349481	61.800000
1356.350847	70.000000
1358.353609	58.600000
1360.355912	71.800000
1362.357755	66.800000
1364.359138	64.000000
1366.358208	60.000000
1368.356819	65.000000
1370.354971	66.200000
1372.352666	57.800000
1374.346198	61.400000
1376.341125	83.400000
1378.335596	87.800000
1380.329610	59.400000
1382.321317	73.000000
1384.312568	64.400000
1386.301514	88.200000
1388.291856	76.800000
1390.281742	62.600000
1392.269324	47.800000
1394.256453	52.600000
1396.241280	73.600000
1398.227502	82.600000
1400.211423	72.400000
1402.194892	82.400000
1404.177909	80.200000
1406.158628	78.600000
1408.140741	54.000000
1410.120558	56.800000
1412.099923	52.400000
1414.075150	81.200000
1416.053615	53.200000
1418.029787	64.200000
1420.005509	49.000000
1421.980783	68.200000
1423.953765	79.000000
1425.926299	73.400000
1427.898385	64.000000
1429.870024	58.600000
1431.837534	69.600000
1433.810118	88.400000
1435.774896	68.600000
1437.744747	47.600000
1439.710474	96.000000
1441.677593	59.400000
1443.642429	87.600000
1445.603145	73.000000
1447.568929	85.800000
1449.528758	53.600000
1451.489981	60.200000
1453.452595	77.600000
1455.411095	88.800000
1457.369153	49.800000
1459.326769	68.600000
1461.283942	46.000000
1463.238840	68.800000
1465.195131	61.600000
1467.149147	71.000000
1469.102722	57.000000
1471.054025	54.800000
1473.006721	71.000000
1474.957144	74.800000
1476.907129	67.400000
1478.856675	91.400000
1480.803952	79.400000
1482.748961	49.000000
1484.695363	67.800000
1486.641327	99.400000
1488.586854	90.800000
1490.530115	53.400000
1492.472941	101.000000
1494.413502	91.000000
1496.355456	80.400000
1498.295147	69.400000
1500.234403	67.000000
1502.173225	71.600000
1504.109787	92.200000
1506.047740	60.400000
1507.983434	88.800000
1509.918695	83.200000
1511.851699	79.200000
1513.784272	73.000000
1515.716412	96.600000
1517.648120	68.000000
1519.577574	81.600000
1521.508419	73.000000
1523.438832	88.400000
1525.365173	78.600000
1527.292904	95.800000
1529.218386	55.000000
1531.143438	84.000000
1533.068061	83.800000
1534.992254	99.000000
1536.914201	93.600000
1538.837538	100.800000
1540.758628	101.000000
1542.677474	65.000000
1544.597710	100.600000
1546.515703	70.600000
1548.433269	118.000000
1550.348593	111.400000
1552.265307	92.400000
1554.177966	113.400000
1556.093829	125.600000
1558.007452	134.000000
1559.918837	125.000000
1561.831612	161.600000
1563.740337	145.800000
1565.650451	191.000000
1567.560142	198.800000
1569.469410	232.200000
1571.376444	272.000000
1573.281245	332.400000
1575.187435	411.800000
1577.091393	513.800000
1578.994930	575.000000
1580.898047	671.600000
1582.798934	718.200000
1584.701210	602.800000
1586.601258	546.800000
1588.502693	422.200000
1590.400095	331.200000
1592.297078	282.600000
1594.193643	196.000000
1596.091595	197.200000
1597.983713	169.600000
1599.879025	174.200000
1601.773919	145.000000
1603.666591	149.800000
1605.558846	114.400000
1607.448882	91.800000
1609.338502	125.400000
1611.227707	109.800000
1613.116497	93.200000
1615.003069	87.000000
1616.891029	88.200000
1618.774972	106.000000
1620.660302	75.600000
1622.545219	60.400000
1624.427922	101.800000
1626.312012	75.600000
1628.192090	86.200000
1630.073556	81.000000
1631.952811	67.800000
1633.833452	76.800000
1635.708289	82.800000
1637.588107	57.000000
1639.463921	71.600000
1641.339324	74.800000
1643.216113	86.800000
1645.087106	64.000000
1646.961280	89.200000
1648.831455	77.000000
1650.704811	58.200000
1652.575964	78.000000
1654.444916	72.800000
1656.315252	67.400000
1658.181596	66.600000
1660.049325	87.000000
1661.914855	55.200000
1663.781771	70.800000
1665.644698	75.600000
1667.509010	48.600000
1669.371126	76.400000
1671.232837	73.400000
1673.095934	67.600000
1674.956835	59.200000
1676.815544	82.000000
1678.673849	64.200000
1680.533538	64.200000
1682.387461	96.200000
1684.244557	82.000000
1686.101249	53.800000
1687.953966	70.600000
1689.809854	94.000000
1691.661768	66.000000
1693.513281	75.800000
1695.364393	67.200000
1697.215105	80.600000
1699.065415	60.000000
1700.913542	82.400000
1702.763053	73.600000
1704.606814	57.200000
1706.455526	68.800000
1708.298491	66.800000
1710.144623	58.600000
1711.986792	86.800000
1713.832127	60.000000
1715.671721	58.200000
1717.512699	67.600000
1719.355060	66.000000
1721.193465	70.000000
1723.033253	76.400000
1724.870865	65.200000
1726.708083	74.600000
1728.543127	32.200000
1730.379554	67.000000
1732.213809	66.400000
1734.047669	68.600000
1735.881135	76.600000
1737.710656	81.200000
1739.543335	60.800000
1741.372070	84.600000
1743.203962	90.000000
1745.031912	41.400000
1746.859471	91.800000
1748.686637	67.800000
1750.513412	71.200000
1752.339795	61.400000
1754.162242	73.000000
1755.987844	75.400000
1757.809511	73.800000
1759.632560	84.200000
1761.453447	69.600000
1763.273946	71.000000
1765.095825	78.200000
1766.912006	44.400000
1768.731338	66.000000
1770.546742	64.400000
1772.365298	65.600000
1774.179928	72.200000
1775.994171	101.000000
1777.808028	67.000000
1779.621498	88.000000
1781.432815	87.400000
1783.245512	58.200000
1785.057824	54.400000
1786.866217	68.200000
1788.675992	61.600000
1790.481852	73.600000
1792.290857	72.600000
1794.095949	59.800000
1795.902422	58.000000
1797.708511	37.000000
1799.510689	76.200000
1801.316012	63.200000
1803.117426	72.600000
1804.920220	63.000000
1806.719108	83.400000
1808.519377	84.000000
1810.319264	55.600000
1812.117009	60.200000
1813.914374	65.200000
1815.711359	90.000000
1817.507963	77.600000
1819.302428	49.600000
1821.098272	76.600000
1822.888461	88.200000
1824.683547	85.800000
1826.472981	58.200000
1828.265551	92.800000
1830.055986	72.200000
1831.844287	51.400000
1833.635723	67.200000
1835.421513	58.200000
1837.208683	50.600000
1838.993721	53.400000
1840.781893	89.000000
1842.566179	64.200000
1844.348335	77.400000
1846.131871	71.600000
1847.913278	70.000000
1849.696064	76.800000
1851.474969	82.200000
1853.255253	74.600000
1855.033412	77.000000
1856.812949	87.600000
1858.590360	65.000000
1860.365649	67.600000
1862.142315	73.600000
1863.916859	91.200000
1865.692781	75.000000
1867.463082	58.800000
1869.236511	73.800000
1871.007820	69.000000
1872.778758	67.400000
1874.551074	61.400000
1876.317776	69.800000
1878.087603	75.200000
1879.853567	70.200000
1881.622655	48.600000
1883.387881	59.000000
1885.152739	70.400000
1886.918974	66.000000
1888.681350	54.800000
1890.443358	62.400000
1892.205000	89.200000
1893.966275	73.600000
1895.727182	60.800000
1897.487723	73.800000
1899.246154	53.600000
1901.004219	62.200000
1902.760177	63.200000
1904.517511	52.000000
1906.274480	48.200000
1908.029342	62.800000
1909.782100	62.200000
1911.534493	62.000000
1913.288263	84.600000
1915.039929	73.800000
1916.789493	48.000000
1918.540432	55.400000
1920.291009	75.800000
1922.037746	67.200000
1923.785860	50.400000
1925.531874	82.400000
1927.279263	78.000000
1929.024555	72.600000
1930.767749	64.200000
1932.512318	57.800000
1934.254791	73.000000
1935.996905	68.000000
1937.738658	71.000000
1939.480051	60.400000
1941.219351	79.200000
1942.958292	78.200000
1944.696874	63.800000
1946.433365	61.800000
1948.169498	57.100000
1949.907005	52.400000
1951.640690	76.400000
1953.375750	67.400000
1955.108721	66.200000
1956.841336	78.600000
1958.573595	59.400000
1960.305497	71.000000
1962.035313	87.200000
1963.763044	78.800000
1965.492150	60.600000
1967.220900	81.600000
1968.947568	48.000000
1970.673881	58.800000
1972.401567	59.800000
1974.123717	81.600000
1975.848968	55.000000
1977.570412	54.000000
1979.294957	68.200000
1981.017421	58.200000
1982.736083	63.600000
1984.457843	77.600000
1986.175801	76.400000
1987.895132	44.000000
1989.610664	34.400000
1991.331016	72.400000
1993.047570	67.600000
1994.760327	57.200000
1996.476180	39.800000
1998.189961	59.400000
1999.903392	76.400000
2001.614752	64.000000
2003.327484	72.600000
2005.036426	46.200000
2006.748460	62.200000
2008.454985	92.800000
2010.164603	77.200000
2011.872154	54.600000
2013.579356	59.200000
2015.284493	61.200000
2016.989284	97.600000
2018.695446	59.800000
2020.397826	48.200000
2022.101577	68.400000
2023.803266	58.400000
2025.504609	72.600000
2027.205608	76.200000
2028.904545	79.000000
2030.604854	49.000000
2032.301387	71.800000
2033.999292	42.800000
2035.695139	64.400000
2037.394071	71.800000
2039.087517	96.800000
2040.782334	76.600000
2042.476809	84.400000
2044.167515	65.200000
2045.861305	71.200000
2047.551328	77.600000
2049.242722	50.600000
2050.932063	43.800000
2052.622774	80.200000
2054.309722	64.400000
2055.996331	57.200000
2057.684309	56.800000
2059.368528	79.400000
2061.054118	45.200000
2062.739368	65.000000
2064.422569	35.600000
2066.107141	61.600000
2067.786249	54.200000
2069.470144	88.200000
2071.148577	72.400000
2072.830088	56.800000
2074.507847	78.600000
2076.185270	49.800000
2077.864062	87.600000
2079.540812	69.200000
2081.215519	73.400000
2082.891597	88.400000
2084.565633	75.400000
2086.239335	93.200000
2087.912701	47.600000
2089.584028	81.200000
2091.255021	73.200000
2092.925680	66.000000
2094.596005	77.600000
2096.265996	48.800000
2097.933951	37.800000
2099.601573	79.200000
2101.267160	54.400000
2102.934116	67.400000
2104.599039	56.200000
2106.263630	54.800000
2107.926189	65.400000
2109.590116	73.600000
2111.252012	57.800000
2112.913578	56.000000
2114.574812	69.000000
2116.234018	52.000000
2117.892893	62.600000
2119.551439	66.600000
2121.209654	45.200000
2122.864147	68.400000
2124.521704	71.000000
2126.178931	64.000000
2127.832438	65.400000
2129.487312	50.200000
2131.138467	49.000000
2132.792685	59.000000
2134.443185	74.400000
2136.095053	91.000000
2137.741512	88.600000
2139.392726	69.800000
2141.040226	42.400000
2142.689093	60.200000
2144.335941	66.600000
2145.982464	48.400000
2147.628661	48.400000
2149.271150	58.800000
2150.916697	71.200000
2152.558537	81.200000
2154.203434	46.400000
2155.844625	80.200000
2157.485494	61.000000
2159.126038	84.400000
2160.764570	67.400000
2162.404468	84.200000
2164.040666	68.000000
2165.678230	63.400000
2167.315472	56.800000
2168.950704	75.800000
2170.585614	81.200000
2172.220203	69.400000
2173.854471	63.800000
2175.485045	68.000000
2177.118671	55.200000
2178.748605	65.800000
2180.379904	36.600000
2182.009198	84.600000
2183.638173	71.600000
2185.266828	72.800000
2186.895164	68.200000
2188.521498	65.000000
2190.147513	44.600000
2191.771526	51.600000
2193.396905	36.800000
2195.020283	58.200000
2196.645026	59.000000
2198.266088	61.400000
2199.886833	67.000000
2201.508942	75.400000
2203.129054	85.200000
2204.747170	40.800000
2206.364970	48.000000
2207.982455	83.200000
2209.599624	71.400000
2211.216478	85.000000
2212.833016	79.600000
2214.447562	53.000000
2216.060115	58.000000
2217.674032	50.000000
2219.285958	76.800000
2220.899247	57.600000
2222.510546	70.600000
2224.119855	50.000000
2225.730528	72.800000
2227.339212	68.800000
2228.947583	71.200000
2230.553968	58.200000
2232.161715	47.600000
2233.767477	85.200000
2235.372927	64.200000
2236.976392	66.600000
2238.581220	77.200000
2240.184064	42.000000
2241.784925	42.400000
2243.387149	57.400000
2244.987391	66.400000
2246.588995	56.400000
2248.186946	66.600000
2249.786260	49.400000
2251.383594	42.400000
2252.980620	57.800000
2254.579008	56.000000
2256.173747	74.600000
2257.766509	55.600000
2259.360634	67.400000
2260.956120	49.800000
2262.547961	67.600000
2264.139496	79.000000
2265.732393	89.600000
2267.319980	83.000000
2268.912263	44.600000
2270.499240	75.400000
2272.089244	38.000000
2273.673944	51.800000
2275.263338	59.600000
2276.847430	84.400000
2278.432882	64.800000
2280.016366	67.000000
2281.602875	80.200000
2283.185751	92.600000
2284.768324	59.200000
2286.350593	59.400000
2287.929232	70.600000
2289.510896	53.200000
2291.088931	67.600000
2292.669989	54.000000
2294.247420	51.100000
2295.822888	48.200000
2297.401378	67.400000
2298.976244	61.000000
2300.550809	45.600000
2302.125073	67.200000
2303.699038	52.200000
2305.272701	64.400000
2306.846065	66.000000
2308.415810	62.200000
2309.985256	48.400000
2311.557720	56.600000
2313.124910	78.400000
2314.695118	72.400000
2316.261711	65.600000
2317.829664	68.800000
2319.395661	62.400000
2320.961361	47.000000
2322.526763	65.400000
2324.090212	48.600000
2325.655020	76.800000
2327.216220	80.400000
2328.780434	89.400000
2330.339386	110.000000
2331.901352	53.600000
2333.461368	78.400000
2335.021089	84.000000
2336.578860	86.000000
2338.136336	80.200000
2339.693518	64.600000
2341.248752	70.200000
2342.803693	74.200000
2344.358339	36.600000
2345.912692	52.800000
2347.466751	54.400000
2349.020517	84.600000
2350.572338	63.200000
2352.122217	51.000000
2353.675103	68.200000
2355.222746	66.000000
2356.773398	72.800000
2358.320458	61.200000
2359.868876	92.400000
2361.417003	70.800000
2362.961541	76.200000
2364.507437	75.800000
2366.051395	64.600000
2367.596709	29.200000
2369.138440	59.400000
2370.681527	53.800000
2372.222678	81.200000
2373.763540	58.000000
2375.304113	60.800000
2376.844397	73.800000
2378.384392	91.000000
2379.920809	73.600000
2381.460227	30.800000
2382.996067	107.000000
2384.533265	40.600000
2386.066887	50.800000
2387.603509	67.800000
2389.138201	74.200000
2390.670963	69.600000
2392.203438	78.800000
2393.733985	69.000000
2395.267530	37.000000
2396.795864	76.000000
2398.325554	69.600000
2399.854959	48.400000
2401.384079	53.200000
2402.912913	57.000000
2404.436543	102.600000
2405.964808	63.800000
2407.487871	75.200000
2409.015567	57.600000
2410.536424	67.600000
2412.061913	62.800000
2413.583843	40.600000
2415.107127	49.600000
2416.628491	59.000000
2418.147935	76.400000
2419.668734	69.000000
2421.187614	70.600000
2422.706213	48.600000
2424.222894	64.200000
2425.740929	77.200000
2427.258683	72.200000
2428.772885	43.200000
2430.286808	98.200000
2431.800450	52.000000
2433.315447	62.000000
2434.826895	53.800000
2436.339697	94.800000
2437.850587	67.200000
2439.361198	61.200000
2440.869897	66.000000
2442.381582	62.000000
2443.889724	62.000000
2445.397588	74.200000
2446.905174	74.800000
2448.409219	93.400000
2449.916249	72.000000
2451.421371	85.600000
2452.926216	60.000000
2454.429154	70.200000
2455.931816	62.400000
2457.434201	68.200000
2458.934681	88.800000
2460.436514	69.800000
2461.936442	99.200000
2463.436095	83.200000
2464.935473	61.600000
2466.432948	53.800000
2467.928521	69.000000
2469.427074	58.600000
2470.922099	58.200000
2472.418476	90.800000
2473.911327	49.000000
2475.405531	73.000000
2476.899461	77.400000
2478.389867	81.200000
2479.883251	71.400000
2481.374737	59.200000
2482.864326	60.400000
2484.353643	66.200000
2485.841064	62.800000
2487.331461	80.800000
2488.818340	81.400000
2490.306570	60.800000
2491.791283	59.600000
2493.275727	80.400000
2494.761521	60.400000
2496.245424	64.200000
2497.730677	74.800000
2499.210797	64.400000
2500.693890	47.200000
2502.175092	56.800000
2503.656025	58.600000
2505.135069	69.200000
2506.613844	57.800000
2508.092351	55.000000
2509.570590	50.400000
2511.048560	64.400000
2512.523025	54.200000
2514.000460	63.200000
2515.474391	57.000000
2516.949672	60.600000
2518.424686	65.000000
2519.896199	63.400000
2521.369063	60.600000
2522.840044	54.200000
2524.312375	58.200000
2525.779592	67.600000
2527.249776	71.000000
2528.718079	64.400000
2530.186117	76.200000
2531.653890	53.400000
2533.121398	66.000000
2534.588641	67.800000
2536.052392	60.000000
2537.517493	72.200000
2538.980717	85.600000
2540.445290	57.400000
2541.906375	60.200000
2543.368809	95.600000
2544.830980	80.600000
2546.289665	33.000000
2547.752921	65.600000
2549.211082	66.600000
2550.670591	62.800000
2552.125006	52.600000
2553.583992	75.800000
2555.041106	42.200000
2556.496348	61.400000
2557.951330	58.000000
2559.404443	69.400000
2560.858903	68.000000
2562.311495	82.000000
2563.763827	32.600000
2565.214292	41.000000
2566.667712	50.200000
2568.116050	64.400000
2569.567343	59.600000
2571.016771	70.000000
2572.462726	75.600000
2573.911636	90.200000
2575.357076	57.400000
2576.803863	50.600000
2578.248787	39.400000
2579.693454	73.400000
2581.139468	44.200000
2582.582016	71.600000
2584.025911	68.800000
2585.466340	83.800000
2586.908118	58.400000
2588.348036	77.800000
2589.789301	64.800000
2591.227104	70.600000
2592.667857	50.000000
2594.103548	70.600000
2595.542188	65.800000
2596.978970	103.600000
2598.413897	70.000000
2599.851771	72.800000
2601.284588	56.400000
2602.718752	85.200000
2604.151062	47.000000
2605.584718	64.800000
2607.016521	68.400000
2608.448070	91.600000
2609.879367	75.000000
2611.308811	53.800000
2612.738003	85.000000
2614.165345	79.600000
2615.594032	66.000000
2617.022468	68.200000
2618.447456	78.200000
2619.873791	68.400000
2621.298277	84.800000
2622.724109	68.000000
2624.146497	45.600000
2625.570231	86.800000
2626.992118	92.600000
2628.413756	49.400000
2629.833548	82.000000
2631.254686	63.200000
2632.675574	77.800000
2634.093023	51.800000
2635.513413	84.000000
2636.930365	45.800000
2638.347068	79.400000
2639.763523	79.600000
2641.179730	69.200000
2642.595689	89.200000
2644.009807	116.000000
2645.423677	99.600000
2646.835709	102.000000
2648.249084	71.400000
2649.659030	65.600000
2651.071912	73.400000
2652.481365	98.000000
2653.890572	75.600000
2655.297943	130.600000
2656.708248	103.800000
2658.116718	89.600000
2659.523352	101.600000
2660.929741	101.000000
2662.334296	120.400000
2663.740195	114.200000
2665.144261	115.200000
2666.548082	122.200000
2667.951659	129.000000
2669.353405	108.200000
2670.756494	115.400000
2672.156165	123.200000
2673.557180	108.800000
2674.954779	132.200000
2676.355307	143.000000
2677.752421	118.600000
2679.150878	120.400000
2680.547508	141.800000
2681.943895	140.400000
2683.340040	130.800000
2684.734359	135.400000
2686.130021	146.200000
2687.522274	148.400000
2688.915869	149.400000
2690.307640	151.600000
2691.700754	143.800000
2693.092044	158.200000
2694.481511	149.600000
2695.870738	157.200000
2697.259726	151.200000
2698.650055	167.400000
2700.035401	131.200000
2701.423670	144.600000
2702.810119	159.200000
2704.196329	160.000000
2705.582300	167.400000
2706.964873	166.800000
2708.348788	146.800000
2709.732465	201.200000
2711.115903	173.800000
2712.495946	192.400000
2713.877331	228.200000
2715.256901	213.400000
2716.637811	226.800000
2718.016907	206.600000
2719.394189	225.800000
2720.772812	213.600000
2722.149621	220.000000
2723.526195	212.200000
2724.902533	213.000000
2726.277060	208.800000
2727.652927	184.000000
2729.025407	183.200000
2730.400803	207.000000
2731.771239	152.800000
2733.143016	167.200000
2734.514558	170.600000
2735.884292	140.200000
2737.255367	126.200000
2738.624633	125.800000
2739.993666	118.400000
2741.360893	150.000000
2742.727886	103.800000
2744.094647	127.600000
2745.461176	111.000000
2746.825899	117.400000
2748.190390	103.800000
2749.554650	124.600000
2750.918677	107.800000
2752.282473	126.400000
2753.642895	98.200000
2755.006227	92.400000
2756.364617	89.800000
2757.725917	88.400000
2759.083847	68.000000
2760.444685	50.400000
2761.803724	75.000000
2763.159394	76.600000
2764.517972	74.200000
2765.873183	60.400000
2767.228165	49.200000
2768.581350	78.200000
2769.937442	80.000000
2771.290170	55.200000
2772.642670	73.800000
2773.994941	67.800000
2775.348550	68.800000
2776.698799	80.200000
2778.047253	65.200000
2779.398612	64.600000
2780.746613	82.600000
2782.095951	96.000000
2783.443497	51.800000
2784.790817	50.000000
2786.137910	34.800000
2787.483211	69.200000
2788.828287	70.200000
2790.173137	82.400000
2791.517761	40.400000
2792.859033	68.800000
2794.201643	61.600000
2795.544027	48.000000
2796.886186	64.400000
2798.224996	57.000000
2799.566706	45.400000
2800.905067	65.800000
2802.244766	75.800000
2803.582680	42.800000
2804.918809	49.800000
2806.254714	60.600000
2807.591957	50.000000
2808.927416	54.800000
2810.262652	69.000000
2811.596105	76.200000
2812.930895	73.000000
2814.262345	62.400000
2815.596690	50.600000
2816.926137	55.200000
2818.256920	60.800000
2819.587483	87.400000
2820.916266	61.800000
2822.246385	60.800000
2823.574726	68.600000
2824.902846	36.200000
2826.229188	99.000000
2827.556867	58.800000
2828.881212	36.800000
2830.206894	74.400000
2831.530800	41.000000
2832.854486	32.000000
2834.179509	41.400000
2835.501201	64.200000
2836.822675	48.200000
2838.143930	53.600000
2839.464966	56.600000
2840.784229	52.000000
2842.104828	62.000000
2843.423656	67.200000
2844.742265	49.400000
2846.059103	37.600000
2847.375724	57.400000
2848.692128	52.200000
2850.006762	31.200000
2851.322732	32.600000
2852.635381	47.800000
2853.949365	50.600000
2855.263133	46.400000
2856.576684	33.200000
2857.888469	51.200000
2859.198487	61.600000
2860.509840	46.000000
2861.817878	55.400000
2863.127250	34.400000
2864.436408	60.600000
2865.745350	43.200000
2867.052528	65.600000
2868.357944	67.800000
2869.664693	52.800000
2870.969681	34.200000
2872.274454	55.600000
2873.577467	72.400000
2874.883360	51.400000
2876.184399	44.000000
2877.486772	26.200000
2878.787385	76.200000
2880.089332	57.000000
2881.391065	62.600000
2882.689495	32.400000
2883.989258	36.800000
2885.287264	49.200000
2886.585058	44.800000
2887.881096	42.600000
2889.178467	49.800000
2890.474082	39.200000
2891.769486	50.200000
2893.064679	53.200000
2894.356575	50.800000
2895.651347	45.000000
2896.942822	36.200000
2898.235630	53.000000
2899.528228	62.000000
2900.817532	30.400000
2902.108168	47.000000
2903.397053	37.400000
2904.687270	49.000000
2905.974196	50.800000
2907.262454	47.000000
2908.548963	53.200000
2909.835263	49.800000
2911.121356	49.200000
2912.405700	53.200000
2913.692915	45.600000
2914.975304	42.600000
2916.259025	49.200000
2917.541000	52.400000
2918.822767	44.200000
2920.102789	79.800000
2921.385682	39.200000
2922.666829	38.600000
2923.944694	43.000000
2925.225428	43.600000
2926.502881	64.800000
2927.780128	52.800000
2929.055633	59.200000
2930.334006	47.400000
2931.607565	26.800000
2932.883991	48.400000
2934.158676	46.000000
2935.431620	35.800000
2936.705896	36.400000
2937.978432	57.200000
2939.250763	67.200000
2940.519822	41.400000
2941.791746	73.600000
2943.061932	37.600000
2944.331914	47.400000
2945.601693	42.200000
2946.869736	52.600000
2948.136042	54.000000
2949.402147	64.200000
2950.669581	57.800000
2951.935280	45.800000
2953.200778	70.600000
2954.466073	46.000000
2955.728103	28.400000
2956.991463	46.200000
2958.254622	52.000000
2959.516049	42.200000
2960.778805	46.200000
2962.039829	50.800000
2963.299123	56.800000
2964.558217	35.400000
2965.817110	53.000000
2967.075803	55.600000
2968.334296	52.800000
2969.591060	55.400000
2970.847624	43.800000
2972.102460	37.400000
2973.358626	36.000000
2974.611537	40.400000
2975.865777	61.200000
2977.119817	45.400000
2978.372132	45.000000
2979.624249	61.200000
2980.874641	39.000000
2982.127888	40.800000
2983.376358	19.200000
2984.627683	40.600000
2985.875758	69.400000
2987.123636	41.600000
2988.371318	26.600000
2989.618802	43.400000
2990.864565	39.600000
2992.110132	43.800000
2993.357026	47.200000
2994.600676	27.400000
2995.845654	61.600000
2997.087388	29.000000
2998.331974	44.800000
2999.574841	44.000000
3000.814467	52.400000
3002.056943	59.200000
3003.296179	39.600000
3004.536743	39.200000
3005.775590	65.200000
3007.014243	69.400000
3008.251180	45.000000
3009.489445	64.800000
3010.725994	42.600000
3011.962350	41.800000
3013.198512	30.400000
3014.432960	47.000000
3015.667216	52.200000
3016.901278	41.400000
3018.133627	38.200000
3019.364266	39.800000
3020.597750	53.600000
3021.829522	51.200000
3023.059584	36.000000
3024.289453	50.000000
3025.517613	51.600000
3026.747100	47.800000
3027.974877	69.200000
3029.202463	65.400000
3030.431375	54.200000
3031.655546	57.000000
3032.882559	48.200000
3034.106348	48.400000
3035.331464	73.600000
3036.554873	60.200000
3037.778092	63.000000
3038.999606	51.800000
3040.223961	51.400000
3041.443581	49.000000
3042.664527	63.000000
3043.885284	58.000000
3045.104337	28.600000
3046.324715	43.000000
3047.541877	60.000000
3048.760365	48.000000
3049.977150	59.200000
3051.193748	65.400000
3052.410157	45.000000
3053.623353	47.600000
3054.839388	42.200000
3056.052210	48.000000
3057.267869	70.200000
3058.478805	35.200000
3059.691066	49.400000
3060.903140	61.600000
3062.115028	41.600000
3063.325219	56.200000
3064.535223	56.000000
3065.745041	45.200000
3066.953163	42.200000
3068.161100	76.200000
3069.367341	37.400000
3070.574907	51.600000
3071.780778	45.500000
3072.986465	39.400000
3074.191966	51.400000
3075.395774	24.400000
3076.600906	47.200000
3077.804345	42.000000
3079.006093	45.600000
3080.207656	47.000000
3081.409036	40.600000
3082.610232	48.000000
3083.809738	49.600000
3085.009061	49.600000
3086.209707	59.600000
3087.408663	30.800000
3088.604425	24.200000
3089.803016	39.400000
3090.998413	65.000000
3092.195133	72.600000
3093.388661	91.000000
3094.585017	67.200000
3095.779686	36.000000
3096.971165	44.400000
3098.166976	55.000000
3099.358092	55.800000
3100.550532	50.800000
3101.739784	33.200000
3102.931861	61.200000
3104.122255	51.200000
3105.309463	39.400000
3106.497993	52.000000
3107.687846	38.000000
3108.874515	41.800000
3110.061003	40.800000
3111.247313	38.800000
3112.434944	51.800000
3113.619393	31.000000
3114.802163	38.400000
3115.987755	50.800000
3117.171668	63.600000
3118.353902	32.200000
3119.535957	51.000000
3120.717834	31.600000
3121.899533	38.000000
3123.079555	54.800000
3124.257900	30.800000
3125.439065	12.000000
3126.617055	53.400000
3127.794868	70.000000
3128.972504	60.000000
3130.148466	33.400000
3131.324250	40.000000
3132.501356	34.600000
3133.676787	36.200000
3134.850545	40.600000
3136.022630	39.000000
3137.196037	49.800000
3138.369267	23.000000
3139.540826	30.800000
3140.713705	64.600000
3141.883417	53.600000
3143.054450	47.200000
3144.223813	39.600000
3145.391505	58.800000
3146.562013	40.200000
3147.727863	60.000000
3148.898021	29.200000
3150.063523	30.600000
3151.228850	21.400000
3152.394004	31.600000
3153.558985	24.600000
3154.725285	61.400000
3155.886933	60.200000
3157.049900	33.000000
3158.212695	48.800000
3159.375317	39.000000
3160.536273	56.400000
3161.697058	31.400000
3162.857670	65.400000
3164.016618	43.800000
3165.175395	43.200000
3166.333999	44.200000
3167.492432	41.600000
3168.650694	43.800000
3169.807293	30.400000
3170.962231	61.800000
3172.118488	63.200000
3173.273084	32.200000
3174.427510	39.800000
3175.580276	47.800000
3176.732871	47.600000
3177.885297	25.800000
3179.037553	28.600000
3180.189638	51.000000
3181.338577	36.800000
3182.490324	46.600000
3183.640412	44.000000
3184.788844	62.600000
3185.937106	35.200000
3187.085200	34.800000
3188.233125	68.200000
3189.379394	45.200000
3190.525495	38.000000
3191.669942	38.600000
3192.814221	44.800000
3193.958332	31.600000
3195.103760	32.800000
3196.246050	23.200000
3197.388173	29.200000
3198.530128	51.600000
3199.671916	43.400000
3200.813537	44.000000
3201.952023	44.000000
3203.091826	45.800000
3204.232946	35.800000
3205.370933	52.000000
3206.507270	51.200000
3207.643441	46.600000
3208.780929	37.200000
3209.916769	30.400000
3211.053926	45.600000
3212.186470	10.200000
3213.323296	44.600000
3214.455510	31.800000
3215.589041	29.400000
3216.722408	50.600000
3217.852647	41.000000
3218.985684	30.600000
3220.115595	41.600000
3221.246822	47.400000
3222.374925	41.000000
3223.505824	19.400000
3224.635079	34.400000
3225.762691	25.800000
3226.887180	45.400000
3228.015945	25.400000
3229.141588	58.000000
3230.267069	41.800000
3231.390907	37.200000
3232.517541	31.000000
3233.639577	55.400000
3234.762929	49.800000
3235.886119	70.000000
3237.009146	25.600000
3238.130535	37.200000
3239.251761	57.600000
3240.371350	46.600000
3241.490777	60.200000
3242.608566	43.800000
3243.729147	45.000000
3244.846615	36.000000
3245.963922	46.600000
3247.081069	51.000000
3248.196579	52.400000
3249.313405	50.800000
3250.427121	61.000000
3251.543626	22.200000
3252.658497	41.200000
3253.770258	47.600000
3254.881861	43.400000
3255.994779	28.000000
3257.107537	24.000000
3258.217189	47.400000
3259.328156	35.600000
3260.438964	22.000000
3261.548140	51.600000
3262.655685	28.000000
3263.764545	41.000000
3264.873247	20.000000
3265.978846	45.200000
3267.085759	52.400000
3268.191043	44.200000
3269.297641	36.800000
3270.401139	53.400000
3271.505952	35.400000
3272.610606	33.800000
3273.712163	36.400000
3274.813563	49.000000
3275.916277	24.000000
3277.018835	38.600000
3278.118296	38.400000
3279.220541	43.800000
3280.319690	49.800000
3281.417215	33.000000
3282.514584	29.800000
3283.614735	43.000000
3284.711794	27.000000
3285.808697	41.600000
3286.905445	46.600000
3287.997634	11.600000
3289.094073	23.800000
3290.188889	23.800000
3291.283551	18.000000
3292.376591	23.600000
3293.469476	22.600000
3294.560741	30.800000
3295.653319	85.800000
3296.744277	51.200000
3297.833615	45.600000
3298.922800	51.400000
3300.013298	25.200000
3301.100711	24.400000
3302.187971	38.800000
3303.276544	40.800000
3304.364964	46.200000
3305.448838	30.800000
3306.536953	47.400000
3307.621986	25.800000
3308.705404	27.800000
3309.790134	42.800000
3310.873248	22.200000
3311.957675	35.600000
3313.039023	42.400000
3314.121683	37.400000
3315.202729	44.200000
3316.283624	54.800000
3317.362905	6.200000
3318.442036	20.600000
3319.522479	56.000000
3320.599847	32.800000
3321.678527	40.600000
3322.755595	20.600000
3323.832514	36.200000
3324.907821	41.400000
3325.982979	52.000000
3327.059448	43.800000
3328.132847	32.000000
3329.206096	29.800000
3330.280657	13.600000
3331.353609	39.000000
3332.424952	37.200000
3333.497606	43.200000
3334.567194	43.800000
3335.638092	56.400000
3336.707383	23.800000
3337.777985	34.600000
3338.846980	29.600000
3339.914369	39.000000
3340.980153	25.000000
3342.050163	32.600000
3343.117110	38.600000
3344.180995	48.400000
3345.247647	59.800000
3346.312696	44.800000
3347.376141	23.200000
3348.439440	26.200000
3349.502592	14.000000
3350.565598	30.200000
3351.628458	56.000000
3352.689716	30.800000
3353.747917	36.800000
3354.810338	36.400000
3355.869704	31.200000
3356.928924	55.400000
3357.989453	39.000000
3359.045474	45.800000
3360.104258	4.800000
3361.158535	61.800000
3362.215576	28.600000
3363.271018	29.400000
3364.327770	43.000000
3365.382923	78.400000
3366.436479	38.200000
3367.488439	8.000000
3368.543160	18.600000
3369.594832	0.800000
3370.646361	47.800000
3371.699198	47.000000
3372.748988	18.200000
3373.800087	43.200000
3374.848140	46.400000
3375.898952	18.600000
3376.946720	40.400000
3377.994344	35.000000
3379.041827	37.400000
3380.087717	30.800000
3381.134915	19.600000
3382.179071	48.800000
3383.225985	24.800000
3384.271307	23.000000
3385.313588	18.200000
3386.355728	60.000000
3387.399177	57.000000
3388.442484	38.800000
3389.484201	34.600000
3390.525778	51.600000
3391.567213	26.000000
3392.607060	46.800000
3393.645318	40.400000
3394.684884	33.800000
3395.724310	44.000000
3396.762148	50.800000
3397.798399	50.400000
3398.834511	42.200000
3399.871930	47.400000
3400.906316	37.600000
3401.942009	47.400000
3402.977563	21.000000
3404.010086	50.800000
3405.045362	34.400000
3406.077607	27.800000
3407.109714	21.200000
3408.140237	36.400000
3409.172067	62.600000
3410.203759	27.000000
3411.232423	56.400000
3412.260950	26.400000
3413.290783	38.400000
3414.320479	23.800000
3415.347149	9.600000
3416.375125	29.400000
3417.400078	32.000000
3418.427780	23.400000
3419.452459	25.400000
3420.478444	37.200000
3421.502849	44.800000
3422.527118	23.200000
3423.549808	46.600000
3424.572362	39.800000
3425.596222	21.000000
3426.617062	48.200000
3427.637766	42.800000
3428.659777	35.800000
3429.678769	44.600000
3430.697625	32.600000
3431.717788	29.800000
3432.734934	16.000000
