-116.521679	-29.400000
-113.852079	20.400000
-111.185414	13.200000
-108.519501	2.400000
-105.856521	-35.800000
-103.192110	7.600000
-100.530630	4.800000
-97.867721	3.800000
-95.209918	-16.400000
-92.550686	-4.000000
-89.892202	-6.800000
-87.236643	1.200000
-84.579654	-6.000000
-81.927764	30.000000
-79.274444	-3.800000
-76.624043	7.400000
-73.972214	7.000000
-71.325474	22.200000
-68.677306	7.200000
-66.029880	-10.200000
-63.385369	-10.000000
-60.739428	41.800000
-58.098569	-19.800000
-55.456281	38.000000
-52.816902	-12.800000
-50.176093	19.200000
-47.536025	11.400000
-44.901030	22.200000
-42.264605	-15.200000
-39.631083	-0.600000
-36.996133	6.000000
-34.366248	19.000000
-31.732771	-2.200000
-29.104356	-7.400000
-26.476675	3.200000
-23.847565	21.800000
-21.223512	10.200000
-18.595870	-2.400000
-15.973281	21.800000
-13.351424	36.600000
-10.730297	64.600000
-8.109901	191.800000
-5.492392	633.400000
-2.873455	2305.600000
-0.257403	6787.600000
2.357920	9296.600000
4.972515	4841.400000
7.584229	510.800000
10.197371	86.600000
12.805479	57.200000
15.417169	32.800000
18.023828	43.400000
20.631915	-15.000000
23.239278	23.600000
25.841616	5.200000
28.447532	18.800000
31.048426	7.800000
33.650748	10.600000
36.248053	-2.400000
38.848933	26.200000
41.444798	-7.200000
44.042092	10.600000
46.638666	-2.200000
49.230231	27.800000
51.823224	-4.400000
54.413356	-4.800000
57.004915	-44.200000
59.593616	9.400000
62.183743	-17.400000
64.768871	13.400000
67.355427	-11.200000
69.941269	17.200000
72.524257	4.000000
75.108671	10.200000
77.685957	-1.400000
80.266809	34.200000
82.844812	0.200000
85.422105	-21.200000
88.000824	-29.800000
90.574561	25.600000
93.149726	-18.800000
95.722047	-2.600000
98.293660	-21.800000
100.862433	-17.600000
103.432633	22.000000
105.999994	12.800000
108.568782	11.400000
111.134733	22.400000
113.697849	-8.400000
116.264521	6.400000
118.821972	-1.000000
121.385108	1.000000
123.943284	3.000000
126.505015	37.200000
129.061789	23.000000
131.619989	37.600000
134.173237	53.800000
136.725787	79.600000
139.281887	51.200000
141.833039	118.400000
144.383494	126.800000
146.933251	146.000000
149.480189	112.000000
152.026432	165.000000
154.574100	137.000000
157.121072	193.800000
159.663109	141.800000
162.204452	147.200000
164.745102	162.200000
167.287178	151.800000
169.826442	150.400000
172.362898	153.600000
174.898662	125.400000
177.435852	144.400000
179.972351	129.800000
182.506044	145.600000
185.036933	145.600000
187.567134	144.800000
190.098761	146.200000
192.627586	160.000000
195.153612	126.000000
197.678952	158.800000
200.205717	126.400000
202.729686	141.000000
205.252970	140.800000
207.775569	162.400000
210.295375	133.000000
212.814497	174.400000
215.332938	150.400000
217.852802	126.400000
220.365665	142.400000
222.882059	134.600000
225.397771	148.800000
227.908593	152.000000
230.420840	119.600000
232.930305	147.800000
235.439090	164.200000
237.947198	157.200000
240.456730	173.600000
242.961381	166.400000
245.465356	155.800000
247.970755	141.800000
250.471279	149.200000
252.975326	166.800000
255.472403	140.000000
257.973003	148.000000
260.470831	122.000000
262.967986	163.000000
265.464468	152.800000
267.956087	167.800000
270.451226	158.400000
272.943598	148.800000
275.435300	140.000000
277.924239	168.000000
280.414601	162.000000
282.902202	173.800000
285.387043	151.000000
287.875399	179.200000
290.356815	168.200000
292.841745	163.400000
295.321830	164.200000
297.805427	209.200000
300.284181	162.200000
302.764358	168.400000
305.241784	173.200000
307.718546	177.600000
310.194644	152.600000
312.667995	168.200000
315.140683	190.800000
317.612710	175.200000
320.084076	194.000000
322.552697	250.800000
325.020660	229.000000
327.490044	189.400000
329.954606	185.000000
332.422672	174.200000
334.885918	182.400000
337.348506	174.800000
339.810438	157.800000
342.271713	204.600000
344.730254	162.400000
347.190217	185.400000
349.647447	183.800000
352.104023	190.000000
354.559945	145.600000
357.013137	198.000000
359.467752	158.000000
361.917565	180.000000
364.370874	183.400000
366.819384	190.000000
369.267244	190.800000
371.716526	183.200000
374.161014	139.800000
376.606924	193.400000
379.052184	138.200000
381.494726	184.800000
383.936620	174.200000
386.377867	205.000000
388.816398	157.000000
391.256350	193.600000
393.693590	166.800000
396.128117	203.200000
398.566132	136.400000
400.999370	197.000000
403.434029	182.400000
405.863916	204.200000
408.297288	159.400000
410.725890	172.800000
413.153850	142.800000
415.583232	178.600000
418.007848	169.400000
420.433886	180.200000
422.859283	182.800000
425.284040	194.800000
427.704039	190.600000
430.125458	206.000000
432.544182	175.400000
434.964326	198.800000
437.381775	155.600000
439.800644	201.000000
442.216820	184.200000
444.628248	173.600000
447.043153	167.400000
449.455369	199.200000
451.866950	198.400000
454.277897	200.400000
456.686158	168.000000
459.093786	195.600000
461.500782	188.000000
463.907147	191.400000
466.310829	164.600000
468.713881	195.400000
471.116303	159.400000
473.518095	165.600000
475.917209	165.000000
478.317743	192.400000
480.717648	169.200000
483.112831	171.800000
485.511480	147.000000
487.905408	176.000000
490.298711	165.600000
492.691389	166.600000
495.083441	157.400000
497.476911	167.400000
499.865669	139.600000
502.251761	185.600000
504.639273	128.000000
507.026162	129.200000
509.410387	151.200000
511.796030	130.600000
514.179012	154.800000
516.559333	142.400000
518.941073	98.600000
521.320154	132.800000
523.700654	92.000000
526.078496	118.800000
528.453682	103.200000
530.828252	103.600000
533.204239	138.000000
535.577574	129.400000
537.952326	81.800000
540.322393	140.600000
542.691844	99.000000
545.062713	120.600000
547.428901	95.800000
549.796508	111.200000
552.161470	73.400000
554.525818	117.600000
556.889553	83.400000
559.254706	96.600000
561.615187	103.600000
563.977086	95.200000
566.336344	79.600000
568.692964	114.600000
571.053030	105.600000
573.406404	107.800000
575.763223	85.600000
578.117407	126.800000
580.470982	96.400000
582.823950	105.800000
585.174285	84.000000
587.526038	108.400000
589.871114	75.400000
592.221653	102.000000
594.565520	87.200000
596.914848	97.400000
599.259527	82.000000
601.601582	106.400000
603.945054	94.800000
606.285903	110.800000
608.626149	89.000000
610.963776	105.400000
613.304837	100.400000
615.641260	105.200000
617.979100	90.200000
620.314323	120.400000
622.646930	67.600000
624.980953	110.800000
627.312362	66.600000
629.643173	110.600000
631.973387	81.400000
634.303002	100.000000
636.627994	102.000000
638.958428	101.800000
641.284241	94.800000
643.607446	102.600000
645.932068	78.800000
648.254084	88.600000
650.575506	89.600000
652.894326	90.200000
655.214561	92.200000
657.534203	87.400000
659.851244	83.800000
662.167693	95.200000
664.481544	76.400000
666.796811	94.400000
669.109481	84.000000
671.423566	119.400000
673.733051	67.600000
676.043952	98.000000
678.352260	45.400000
680.659980	83.200000
682.969114	67.400000
685.273656	88.000000
687.577612	87.800000
689.880982	85.400000
692.185766	80.000000
694.485963	83.200000
696.787576	73.400000
699.088603	84.800000
701.385049	57.800000
703.682910	73.600000
705.980187	63.600000
708.276881	85.600000
710.568999	85.600000
712.864528	76.400000
715.155483	59.000000
717.447853	90.000000
719.737648	73.200000
722.026862	62.400000
724.315497	84.800000
726.601559	105.800000
728.889036	86.000000
731.173941	77.400000
733.458269	91.000000
735.740028	98.400000
738.023201	64.600000
740.305797	76.200000
742.583837	79.600000
744.863292	111.200000
747.142170	70.000000
749.420474	95.800000
751.694228	78.600000
753.969395	104.000000
756.243989	82.000000
758.516024	92.800000
760.789472	80.800000
763.060362	101.800000
765.328696	87.400000
767.598443	105.800000
769.865636	86.000000
772.132258	81.200000
774.398310	89.200000
776.661811	116.000000
778.926725	74.400000
781.191069	93.600000
783.450884	60.400000
785.712111	96.600000
787.972771	74.800000
790.230885	115.000000
792.486454	82.400000
794.745414	107.200000
796.997874	79.400000
799.255702	88.800000
801.509011	105.400000
803.759780	112.200000
806.011961	101.400000
808.261603	82.400000
810.512658	72.000000
812.759201	111.200000
815.007156	81.400000
817.252577	111.200000
819.499409	99.800000
821.745680	103.600000
823.987446	80.600000
826.232596	84.200000
828.471273	58.800000
830.713332	107.000000
832.950893	79.600000
835.189866	81.600000
837.426312	78.000000
839.664169	90.800000
841.899501	66.600000
844.132310	71.800000
846.366530	90.000000
848.598227	87.000000
850.829370	50.200000
853.059958	93.800000
855.289992	105.800000
857.519472	75.600000
859.744470	83.800000
861.972843	83.600000
864.196736	71.000000
866.422041	84.600000
868.642870	97.000000
870.867071	94.000000
873.086799	70.600000
875.307937	113.400000
877.528525	82.000000
879.746604	90.600000
881.966092	64.200000
884.181114	81.400000
886.395588	104.200000
888.609515	114.600000
890.822895	79.000000
893.035727	112.000000
895.248013	54.400000
897.457796	92.200000
899.667034	74.800000
901.875727	87.200000
904.081920	67.200000
906.289524	69.600000
908.494629	78.000000
910.699191	100.800000
912.901258	44.600000
915.104734	93.800000
917.305716	64.200000
919.506156	107.200000
921.708005	102.000000
923.903463	74.600000
926.102280	82.400000
928.296658	75.400000
930.494394	96.800000
932.687694	97.600000
934.882403	68.400000
937.074626	106.200000
939.266310	60.000000
941.457457	91.200000
943.646121	69.000000
945.834249	91.400000
948.019896	78.800000
950.208895	115.000000
952.393471	88.600000
954.577512	74.200000
956.764903	82.400000
958.943990	89.800000
961.126428	85.400000
963.308332	106.400000
965.487761	72.200000
967.664718	115.600000
969.843083	74.600000
972.022855	132.200000
974.196278	117.200000
976.373047	106.000000
978.545409	107.400000
980.719179	114.600000
982.888545	93.800000
985.061255	109.600000
987.231500	98.800000
989.401215	94.600000
991.570403	104.000000
993.735193	100.000000
995.903324	86.800000
998.067060	100.600000
1000.232204	109.600000
1002.394888	96.400000
1004.557047	91.000000
1006.716749	107.800000
1008.875926	96.400000
1011.036510	131.000000
1013.194639	130.800000
1015.352245	129.600000
1017.509327	91.400000
1019.665885	112.200000
1021.818064	101.200000
1023.971650	138.000000
1026.124714	103.600000
1028.275329	136.400000
1030.427351	96.600000
1032.574999	113.600000
1034.725979	105.400000
1036.872588	121.800000
1039.018678	134.000000
1041.164250	133.400000
1043.311227	113.400000
1045.451915	124.800000
1047.595933	82.000000
1049.737510	137.000000
1051.878571	112.000000
1054.021036	123.600000
1056.157221	142.400000
1058.296733	121.800000
1060.431890	122.600000
1062.570371	120.600000
1064.704498	131.600000
1066.838112	138.400000
1068.973130	112.000000
1071.103800	119.600000
1073.235874	124.200000
1075.365519	153.000000
1077.494652	98.200000
1079.623273	108.200000
1081.751383	94.600000
1083.877067	89.000000
1086.002241	100.000000
1088.128819	126.600000
1090.251059	106.000000
1092.374704	92.200000
1094.494014	110.200000
1096.618553	100.600000
1098.736848	91.200000
1100.856547	115.400000
1102.973827	91.800000
1105.090600	97.200000
1107.206868	90.600000
1109.320719	120.000000
1111.435975	92.600000
1113.546907	109.200000
1115.661152	73.800000
1117.771076	110.600000
1119.882404	83.400000
1121.993227	124.000000
1124.099734	73.400000
1126.209550	73.400000
1128.315053	82.400000
1130.421958	88.600000
1132.522648	105.400000
1134.628550	99.800000
1136.730143	66.600000
1138.833139	117.600000
1140.935634	78.800000
1143.031922	110.400000
1145.133417	81.400000
1147.230610	119.000000
1149.327305	81.600000
1151.423501	97.800000
1153.519199	72.800000
1155.614400	97.200000
1157.707204	70.600000
1159.801410	71.600000
1161.889425	105.800000
1163.982639	105.000000
1166.069664	88.200000
1168.159988	112.800000
1170.246024	71.200000
1172.335359	105.800000
1174.418512	72.400000
1176.503067	115.400000
1178.589024	82.800000
1180.670699	76.400000
1182.753775	102.000000
1184.834466	97.600000
1186.914666	74.200000
1188.994374	92.800000
1191.073591	96.200000
1193.150426	102.000000
1195.224879	88.000000
1197.302625	69.800000
1199.376101	67.800000
1201.450977	100.200000
1203.521586	69.600000
1205.593596	84.600000
1207.663231	69.400000
1209.734265	105.800000
1211.804813	90.600000
1213.871099	82.400000
1215.938786	83.400000
1218.004101	103.000000
1220.070816	77.200000
1222.133275	109.200000
1224.199019	81.800000
1226.260509	87.400000
1228.323400	88.600000
1230.383923	111.400000
1232.443962	61.800000
1234.503518	70.600000
1236.560710	73.400000
1238.617420	93.600000
1240.671766	83.600000
1242.729394	87.400000
1244.784659	95.800000
1246.835683	112.400000
1248.888107	39.800000
1250.940051	100.200000
1252.989637	56.000000
1255.038744	96.000000
1257.087372	67.600000
1259.135522	95.600000
1261.183194	62.800000
1263.226635	100.200000
1265.273352	68.400000
1267.317715	88.000000
1269.361602	61.200000
1271.403137	105.600000
1273.442323	71.400000
1275.484782	96.200000
1277.523018	64.800000
1279.562653	82.200000
1281.601813	78.800000
1283.636754	92.000000
1285.673094	84.200000
1287.707090	107.400000
1289.742483	47.400000
1291.773664	105.400000
1293.806242	75.200000
1295.838349	78.600000
1297.868115	78.000000
1299.899278	85.600000
1301.926235	73.400000
1303.954589	63.800000
1305.978738	92.800000
1308.006153	77.600000
1310.029365	56.400000
1312.053975	70.600000
1314.076251	65.000000
1316.099924	62.200000
1318.121263	62.200000
1320.142136	107.600000
1322.162541	68.800000
1324.178753	76.600000
1326.196362	75.800000
1328.211643	91.400000
1330.230183	72.800000
1332.244534	66.400000
1334.256558	84.600000
1336.271841	77.400000
1338.282938	53.400000
1340.295432	92.600000
1342.303743	70.600000
1344.315309	103.400000
1346.320837	68.800000
1348.329620	58.000000
1350.334225	57.600000
1352.342084	86.800000
1354.349481	67.800000
1356.350847	90.800000
1358.353609	82.200000
1360.355912	78.400000
1362.357755	72.000000
1364.359138	98.400000
1366.358208	88.600000
1368.356819	74.600000
1370.354971	76.600000
1372.352666	97.600000
1374.346198	87.800000
1376.341125	82.800000
1378.335596	60.800000
1380.329610	100.000000
1382.321317	75.400000
1384.312568	103.000000
1386.301514	67.600000
1388.291856	90.200000
1390.281742	73.400000
1392.269324	84.400000
1394.256453	60.200000
1396.241280	88.200000
1398.227502	68.600000
1400.211423	81.000000
1402.194892	55.400000
1404.177909	96.800000
1406.158628	58.800000
1408.140741	95.200000
1410.120558	57.000000
1412.099923	82.400000
1414.075150	88.600000
1416.053615	94.800000
1418.029787	55.200000
1420.005509	64.800000
1421.980783	63.200000
1423.953765	70.000000
1425.926299	77.400000
1427.898385	70.800000
1429.870024	83.600000
1431.837534	76.600000
1433.810118	72.000000
1435.774896	86.600000
1437.744747	46.800000
1439.710474	67.400000
1441.677593	47.800000
1443.642429	73.400000
1445.603145	71.200000
1447.568929	97.200000
1449.528758	70.600000
1451.489981	104.400000
1453.452595	55.000000
1455.411095	99.800000
1457.369153	75.000000
1459.326769	88.400000
1461.283942	85.600000
1463.238840	81.200000
1465.195131	79.600000
1467.149147	95.800000
1469.102722	68.600000
1471.054025	89.400000
1473.006721	78.000000
1474.957144	73.400000
1476.907129	83.600000
1478.856675	80.800000
1480.803952	68.600000
1482.748961	88.400000
1484.695363	100.400000
1486.641327	95.600000
1488.586854	90.600000
1490.530115	144.000000
1492.472941	90.000000
1494.413502	105.400000
1496.355456	55.000000
1498.295147	63.400000
1500.234403	67.000000
1502.173225	82.400000
1504.109787	75.800000
1506.047740	107.600000
1507.983434	88.400000
1509.918695	80.400000
1511.851699	51.800000
1513.784272	107.600000
1515.716412	75.000000
1517.648120	99.800000
1519.577574	85.400000
1521.508419	117.400000
1523.438832	73.600000
1525.365173	105.400000
1527.292904	103.600000
1529.218386	109.600000
1531.143438	93.400000
1533.068061	97.400000
1534.992254	116.800000
1536.914201	96.200000
1538.837538	89.400000
1540.758628	104.000000
1542.677474	78.000000
1544.597710	104.800000
1546.515703	88.800000
1548.433269	93.600000
1550.348593	104.800000
1552.265307	134.400000
1554.177966	117.000000
1556.093829	145.800000
1558.007452	122.600000
1559.918837	146.200000
1561.831612	153.800000
1563.740337	157.400000
1565.650451	191.000000
1567.560142	219.000000
1569.469410	251.000000
1571.376444	300.200000
1573.281245	349.200000
1575.187435	438.400000
1577.091393	460.400000
1578.994930	585.800000
1580.898047	628.800000
1582.798934	636.200000
1584.701210	578.600000
1586.601258	544.000000
1588.502693	376.000000
1590.400095	356.200000
1592.297078	289.200000
1594.193643	240.200000
1596.091595	196.200000
1597.983713	202.800000
1599.879025	141.400000
1601.773919	157.800000
1603.666591	125.600000
1605.558846	121.000000
1607.448882	115.600000
1609.338502	126.200000
1611.227707	102.800000
1613.116497	136.200000
1615.003069	87.000000
1616.891029	107.600000
1618.774972	102.600000
1620.660302	118.000000
1622.545219	107.200000
1624.427922	110.400000
1626.312012	80.400000
1628.192090	103.800000
1630.073556	97.000000
1631.952811	95.800000
1633.833452	79.200000
1635.708289	95.600000
1637.588107	76.000000
1639.463921	104.200000
1641.339324	69.200000
1643.216113	111.400000
1645.087106	77.600000
1646.961280	95.400000
1648.831455	73.400000
1650.704811	55.600000
1652.575964	65.400000
1654.444916	76.400000
1656.315252	88.000000
1658.181596	97.800000
1660.049325	69.600000
1661.914855	78.400000
1663.781771	80.400000
1665.644698	80.000000
1667.509010	83.600000
1669.371126	97.200000
1671.232837	82.200000
1673.095934	102.400000
1674.956835	48.600000
1676.815544	125.600000
1678.673849	38.600000
1680.533538	101.200000
1682.387461	74.800000
1684.244557	86.800000
1686.101249	79.000000
1687.953966	98.000000
1689.809854	74.800000
1691.661768	93.000000
1693.513281	51.200000
1695.364393	89.200000
1697.215105	71.600000
1699.065415	99.400000
1700.913542	88.000000
1702.763053	68.600000
1704.606814	45.800000
1706.455526	101.000000
1708.298491	71.600000
1710.144623	62.200000
1711.986792	54.600000
1713.832127	79.000000
1715.671721	55.400000
1717.512699	92.800000
1719.355060	73.400000
1721.193465	79.200000
1723.033253	58.000000
1724.870865	75.600000
1726.708083	65.000000
1728.543127	83.800000
1730.379554	58.400000
1732.213809	81.800000
1734.047669	66.400000
1735.881135	83.800000
1737.710656	79.800000
1739.543335	72.800000
1741.372070	48.400000
1743.203962	88.400000
1745.031912	67.600000
1746.859471	84.800000
1748.686637	87.000000
1750.513412	99.400000
1752.339795	58.000000
1754.162242	85.600000
1755.987844	77.600000
1757.809511	52.800000
1759.632560	73.200000
1761.453447	68.400000
1763.273946	54.000000
1765.095825	97.600000
1766.912006	75.400000
1768.731338	63.600000
1770.546742	74.400000
1772.365298	87.400000
1774.179928	69.800000
1775.994171	68.400000
1777.808028	76.800000
1779.621498	67.000000
1781.432815	74.200000
1783.245512	101.600000
1785.057824	59.200000
1786.866217	109.400000
1788.675992	68.600000
1790.481852	87.600000
1792.290857	48.800000
1794.095949	95.200000
1795.902422	73.000000
1797.708511	76.600000
1799.510689	75.200000
1801.316012	79.000000
1803.117426	52.800000
1804.920220	77.400000
1806.719108	74.200000
1808.519377	73.400000
1810.319264	62.800000
1812.117009	84.200000
1813.914374	56.200000
1815.711359	57.400000
1817.507963	51.000000
1819.302428	92.200000
1821.098272	69.800000
1822.888461	105.000000
1824.683547	69.800000
1826.472981	102.600000
1828.265551	81.800000
1830.055986	100.600000
1831.844287	71.000000
1833.635723	85.600000
1835.421513	55.400000
1837.208683	84.000000
1838.993721	73.200000
1840.781893	84.600000
1842.566179	58.200000
1844.348335	71.200000
1846.131871	71.600000
1847.913278	71.600000
1849.696064	94.600000
1851.474969	63.800000
1853.255253	68.400000
1855.033412	101.600000
1856.812949	86.000000
1858.590360	67.400000
1860.365649	77.200000
1862.142315	81.800000
1863.916859	88.800000
1865.692781	91.800000
1867.463082	57.600000
1869.236511	95.400000
1871.007820	90.400000
1872.778758	97.200000
1874.551074	87.600000
1876.317776	110.400000
1878.087603	64.400000
1879.853567	92.200000
1881.622655	72.200000
1883.387881	81.800000
1885.152739	64.200000
1886.918974	96.800000
1888.681350	59.400000
1890.443358	70.000000
1892.205000	74.000000
1893.966275	78.800000
1895.727182	66.600000
1897.487723	100.400000
1899.246154	64.800000
1901.004219	93.200000
1902.760177	61.000000
1904.517511	106.400000
1906.274480	64.200000
1908.029342	85.200000
1909.782100	90.200000
1911.534493	55.000000
1913.288263	59.000000
1915.039929	105.800000
1916.789493	72.800000
1918.540432	114.800000
1920.291009	65.000000
1922.037746	88.400000
1923.785860	79.200000
1925.531874	80.000000
1927.279263	86.800000
1929.024555	89.200000
1930.767749	40.000000
1932.512318	104.000000
1934.254791	71.400000
1935.996905	73.400000
1937.738658	80.800000
1939.480051	85.600000
1941.219351	86.200000
1942.958292	87.400000
1944.696874	59.400000
1946.433365	72.000000
1948.169498	86.700000
1949.907005	101.400000
1951.640690	74.200000
1953.375750	75.800000
1955.108721	85.000000
1956.841336	79.200000
1958.573595	62.800000
1960.305497	97.000000
1962.035313	78.800000
1963.763044	104.400000
1965.492150	56.000000
1967.220900	96.600000
1968.947568	85.600000
1970.673881	69.000000
1972.401567	54.200000
1974.123717	86.000000
1975.848968	69.200000
1977.570412	100.000000
1979.294957	80.800000
1981.017421	70.800000
1982.736083	61.800000
1984.457843	60.800000
1986.175801	82.800000
1987.895132	75.400000
1989.610664	65.800000
1991.331016	101.400000
1993.047570	47.600000
1994.760327	92.000000
1996.476180	79.400000
1998.189961	119.400000
1999.903392	66.800000
2001.614752	79.000000
2003.327484	74.600000
2005.036426	80.400000
2006.748460	73.200000
2008.454985	61.200000
2010.164603	76.000000
2011.872154	70.200000
2013.579356	52.600000
2015.284493	82.400000
2016.989284	79.600000
2018.695446	93.800000
2020.397826	53.800000
2022.101577	59.400000
2023.803266	66.000000
2025.504609	65.800000
2027.205608	71.800000
2028.904545	90.400000
2030.604854	74.200000
2032.301387	93.600000
2033.999292	86.400000
2035.695139	108.400000
2037.394071	63.200000
2039.087517	73.800000
2040.782334	67.600000
2042.476809	89.000000
2044.167515	69.000000
2045.861305	104.000000
2047.551328	97.200000
2049.242722	78.400000
2050.932063	70.200000
2052.622774	79.000000
2054.309722	36.600000
2055.996331	80.200000
2057.684309	74.600000
2059.368528	75.200000
2061.054118	40.600000
2062.739368	92.600000
2064.422569	37.200000
2066.107141	82.600000
2067.786249	68.800000
2069.470144	92.800000
2071.148577	89.600000
2072.830088	67.200000
2074.507847	62.000000
2076.185270	96.400000
2077.864062	62.800000
2079.540812	68.400000
2081.215519	96.400000
2082.891597	73.400000
2084.565633	70.600000
2086.239335	70.400000
2087.912701	36.600000
2089.584028	78.400000
2091.255021	30.600000
2092.925680	93.000000
2094.596005	81.600000
2096.265996	71.600000
2097.933951	43.200000
2099.601573	96.600000
2101.267160	33.600000
2102.934116	82.200000
2104.599039	61.000000
2106.263630	97.800000
2107.926189	71.000000
2109.590116	69.400000
2111.252012	90.000000
2112.913578	83.800000
2114.574812	76.800000
2116.234018	83.000000
2117.892893	71.600000
2119.551439	93.200000
2121.209654	48.200000
2122.864147	65.800000
2124.521704	65.200000
2126.178931	80.800000
2127.832438	64.600000
2129.487312	63.000000
2131.138467	67.600000
2132.792685	62.400000
2134.443185	83.000000
2136.095053	85.200000
2137.741512	61.600000
2139.392726	77.600000
2141.040226	72.000000
2142.689093	70.800000
2144.335941	66.400000
2145.982464	55.800000
2147.628661	59.800000
2149.271150	95.800000
2150.916697	73.400000
2152.558537	65.600000
2154.203434	92.600000
2155.844625	73.800000
2157.485494	41.600000
2159.126038	72.800000
2160.764570	46.400000
2162.404468	77.200000
2164.040666	89.600000
2165.678230	70.400000
2167.315472	62.000000
2168.950704	66.800000
2170.585614	64.000000
2172.220203	69.000000
2173.854471	66.800000
2175.485045	64.400000
2177.118671	80.800000
2178.748605	90.200000
2180.379904	62.800000
2182.009198	94.800000
2183.638173	55.400000
2185.266828	72.800000
2186.895164	71.200000
2188.521498	85.600000
2190.147513	29.200000
2191.771526	101.400000
2193.396905	73.200000
2195.020283	88.000000
2196.645026	71.000000
2198.266088	67.800000
2199.886833	71.200000
2201.508942	73.800000
2203.129054	62.800000
2204.747170	95.000000
2206.364970	65.200000
2207.982455	84.800000
2209.599624	69.200000
2211.216478	75.000000
2212.833016	50.200000
2214.447562	75.600000
2216.060115	72.000000
2217.674032	81.400000
2219.285958	82.400000
2220.899247	81.800000
2222.510546	63.600000
2224.119855	66.400000
2225.730528	65.600000
2227.339212	88.400000
2228.947583	68.000000
2230.553968	83.000000
2232.161715	78.400000
2233.767477	91.200000
2235.372927	65.200000
2236.976392	103.000000
2238.581220	69.000000
2240.184064	66.400000
2241.784925	61.000000
2243.387149	83.400000
2244.987391	52.600000
2246.588995	78.000000
2248.186946	69.000000
2249.786260	103.000000
2251.383594	71.400000
2252.980620	86.200000
2254.579008	45.200000
2256.173747	82.800000
2257.766509	58.600000
2259.360634	101.000000
2260.956120	51.000000
2262.547961	98.600000
2264.139496	44.000000
2265.732393	79.600000
2267.319980	68.400000
2268.912263	75.800000
2270.499240	54.200000
2272.089244	85.600000
2273.673944	65.000000
2275.263338	70.600000
2276.847430	49.200000
2278.432882	87.000000
2280.016366	80.200000
2281.602875	78.800000
2283.185751	26.800000
2284.768324	99.000000
2286.350593	48.200000
2287.929232	48.200000
2289.510896	62.200000
2291.088931	72.800000
2292.669989	72.400000
2294.247420	61.100000
2295.822888	49.800000
2297.401378	65.000000
2298.976244	80.600000
2300.550809	66.000000
2302.125073	69.400000
2303.699038	80.800000
2305.272701	52.600000
2306.846065	58.600000
2308.415810	62.800000
2309.985256	68.600000
2311.557720	44.400000
2313.124910	79.000000
2314.695118	54.400000
2316.261711	82.600000
2317.829664	73.800000
2319.395661	57.800000
2320.961361	66.600000
2322.526763	99.600000
2324.090212	65.600000
2325.655020	39.200000
2327.216220	52.600000
2328.780434	79.200000
2330.339386	65.000000
2331.901352	90.400000
2333.461368	89.800000
2335.021089	72.800000
2336.578860	78.800000
2338.136336	67.600000
2339.693518	51.000000
2341.248752	101.000000
2342.803693	59.600000
2344.358339	88.600000
2345.912692	63.800000
2347.466751	105.600000
2349.020517	65.400000
2350.572338	93.200000
2352.122217	76.800000
2353.675103	85.600000
2355.222746	81.600000
2356.773398	49.200000
2358.320458	69.400000
2359.868876	85.200000
2361.417003	67.800000
2362.961541	80.600000
2364.507437	83.400000
2366.051395	69.600000
2367.596709	57.000000
2369.138440	86.000000
2370.681527	51.600000
2372.222678	84.400000
2373.763540	73.800000
2375.304113	70.400000
2376.844397	45.200000
2378.384392	69.800000
2379.920809	64.800000
2381.460227	97.400000
2382.996067	43.200000
2384.533265	85.200000
2386.066887	53.600000
2387.603509	82.000000
2389.138201	46.400000
2390.670963	72.600000
2392.203438	75.800000
2393.733985	52.600000
2395.267530	34.200000
2396.795864	88.600000
2398.325554	61.400000
2399.854959	66.000000
2401.384079	51.600000
2402.912913	92.400000
2404.436543	50.400000
2405.964808	75.600000
2407.487871	79.400000
2409.015567	91.000000
2410.536424	66.000000
2412.061913	82.200000
2413.583843	75.200000
2415.107127	72.800000
2416.628491	66.200000
2418.147935	68.600000
2419.668734	56.600000
2421.187614	79.400000
2422.706213	64.400000
2424.222894	101.600000
2425.740929	76.600000
2427.258683	64.800000
2428.772885	63.200000
2430.286808	65.000000
2431.800450	62.400000
2433.315447	80.400000
2434.826895	52.200000
2436.339697	104.800000
2437.850587	66.000000
2439.361198	101.000000
2440.869897	86.200000
2442.381582	98.400000
2443.889724	89.200000
2445.397588	77.400000
2446.905174	71.400000
2448.409219	109.800000
2449.916249	86.400000
2451.421371	96.400000
2452.926216	71.400000
2454.429154	103.400000
2455.931816	79.400000
2457.434201	79.200000
2458.934681	62.400000
2460.436514	82.200000
2461.936442	66.400000
2463.436095	80.200000
2464.935473	89.200000
2466.432948	98.200000
2467.928521	74.800000
2469.427074	74.200000
2470.922099	52.800000
2472.418476	100.200000
2473.911327	54.600000
2475.405531	93.000000
2476.899461	88.200000
2478.389867	79.400000
2479.883251	62.600000
2481.374737	83.200000
2482.864326	64.200000
2484.353643	94.800000
2485.841064	63.200000
2487.331461	99.600000
2488.818340	61.800000
2490.306570	84.800000
2491.791283	67.800000
2493.275727	78.200000
2494.761521	46.800000
2496.245424	67.600000
2497.730677	61.000000
2499.210797	80.400000
2500.693890	79.000000
2502.175092	80.000000
2503.656025	57.800000
2505.135069	68.000000
2506.613844	62.000000
2508.092351	61.600000
2509.570590	54.000000
2511.048560	66.200000
2512.523025	41.200000
2514.000460	73.600000
2515.474391	77.600000
2516.949672	71.200000
2518.424686	69.600000
2519.896199	60.800000
2521.369063	71.000000
2522.840044	62.200000
2524.312375	66.200000
2525.779592	48.200000
2527.249776	49.600000
2528.718079	68.000000
2530.186117	56.800000
2531.653890	64.600000
2533.121398	48.600000
2534.588641	56.000000
2536.052392	61.800000
2537.517493	86.800000
2538.980717	73.200000
2540.445290	86.800000
2541.906375	50.800000
2543.368809	54.800000
2544.830980	53.600000
2546.289665	88.200000
2547.752921	48.200000
2549.211082	85.400000
2550.670591	62.400000
2552.125006	89.800000
2553.583992	49.400000
2555.041106	71.200000
2556.496348	70.600000
2557.951330	91.400000
2559.404443	63.400000
2560.858903	95.200000
2562.311495	51.400000
2563.763827	73.600000
2565.214292	56.600000
2566.667712	73.400000
2568.116050	67.200000
2569.567343	72.000000
2571.016771	66.400000
2572.462726	75.200000
2573.911636	53.600000
2575.357076	76.600000
2576.803863	54.000000
2578.248787	72.000000
2579.693454	47.400000
2581.139468	74.800000
2582.582016	57.800000
2584.025911	97.400000
2585.466340	47.200000
2586.908118	90.200000
2588.348036	46.400000
2589.789301	91.400000
2591.227104	83.800000
2592.667857	69.200000
2594.103548	53.600000
2595.542188	96.800000
2596.978970	71.400000
2598.413897	101.800000
2599.851771	23.600000
2601.284588	111.200000
2602.718752	58.200000
2604.151062	65.000000
2605.584718	34.000000
2607.016521	93.200000
2608.448070	58.400000
2609.879367	73.400000
2611.308811	60.000000
2612.738003	104.600000
2614.165345	59.000000
2615.594032	62.600000
2617.022468	71.600000
2618.447456	76.600000
2619.873791	62.200000
2621.298277	96.400000
2622.724109	81.600000
2624.146497	107.400000
2625.570231	49.800000
2626.992118	77.200000
2628.413756	62.600000
2629.833548	78.800000
2631.254686	58.800000
2632.675574	71.200000
2634.093023	77.600000
2635.513413	66.000000
2636.930365	72.800000
2638.347068	94.000000
2639.763523	98.200000
2641.179730	106.400000
2642.595689	77.600000
2644.009807	81.200000
2645.423677	108.800000
2646.835709	91.200000
2648.249084	82.200000
2649.659030	114.200000
2651.071912	82.400000
2652.481365	106.600000
2653.890572	91.800000
2655.297943	113.000000
2656.708248	115.000000
2658.116718	107.400000
2659.523352	86.000000
2660.929741	128.400000
2662.334296	106.800000
2663.740195	131.200000
2665.144261	123.600000
2666.548082	119.000000
2667.951659	120.400000
2669.353405	149.400000
2670.756494	134.600000
2672.156165	141.000000
2673.557180	98.000000
2674.954779	148.000000
2676.355307	115.200000
2677.752421	159.400000
2679.150878	113.400000
2680.547508	147.200000
2681.943895	117.200000
2683.340040	165.400000
2684.734359	138.000000
2686.130021	143.600000
2687.522274	126.800000
2688.915869	161.000000
2690.307640	131.800000
2691.700754	163.200000
2693.092044	125.800000
2694.481511	154.200000
2695.870738	124.000000
2697.259726	130.400000
2698.650055	132.800000
2700.035401	153.200000
2701.423670	169.600000
2702.810119	177.600000
2704.196329	161.800000
2705.582300	190.800000
2706.964873	157.400000
2708.348788	184.000000
2709.732465	191.800000
2711.115903	151.400000
2712.495946	198.200000
2713.877331	237.400000
2715.256901	221.600000
2716.637811	251.400000
2718.016907	224.200000
2719.394189	240.800000
2720.772812	236.600000
2722.149621	224.600000
2723.526195	206.000000
2724.902533	188.200000
2726.277060	203.200000
2727.652927	228.400000
2729.025407	164.200000
2730.400803	209.400000
2731.771239	153.600000
2733.143016	180.200000
2734.514558	157.800000
2735.884292	156.600000
2737.255367	125.400000
2738.624633	163.200000
2739.993666	140.200000
2741.360893	149.400000
2742.727886	117.400000
2744.094647	121.800000
2745.461176	109.000000
2746.825899	133.800000
2748.190390	118.800000
2749.554650	115.000000
2750.918677	86.400000
2752.282473	122.600000
2753.642895	84.800000
2755.006227	109.800000
2756.364617	79.400000
2757.725917	92.600000
2759.083847	91.200000
2760.444685	88.000000
2761.803724	54.000000
2763.159394	67.400000
2764.517972	82.400000
2765.873183	110.800000
2767.228165	49.200000
2768.581350	83.200000
2769.937442	65.200000
2771.290170	75.400000
2772.642670	100.600000
2773.994941	66.600000
2775.348550	80.800000
2776.698799	89.000000
2778.047253	47.400000
2779.398612	75.800000
2780.746613	80.600000
2782.095951	70.000000
2783.443497	55.000000
2784.790817	75.200000
2786.137910	52.400000
2787.483211	91.200000
2788.828287	46.200000
2790.173137	79.200000
2791.517761	66.600000
2792.859033	71.600000
2794.201643	54.400000
2795.544027	71.400000
2796.886186	64.200000
2798.224996	63.400000
2799.566706	58.400000
2800.905067	88.000000
2802.244766	67.400000
2803.582680	78.800000
2804.918809	61.400000
2806.254714	90.600000
2807.591957	64.400000
2808.927416	52.800000
2810.262652	57.200000
2811.596105	90.400000
2812.930895	32.000000
2814.262345	81.200000
2815.596690	73.200000
2816.926137	95.600000
2818.256920	61.800000
2819.587483	71.000000
2820.916266	40.200000
2822.246385	85.200000
2823.574726	49.200000
2824.902846	72.200000
2826.229188	46.600000
2827.556867	73.200000
2828.881212	34.600000
2830.206894	93.200000
2831.530800	25.600000
2832.854486	30.200000
2834.179509	36.200000
2835.501201	55.800000
2836.822675	59.600000
2838.143930	60.400000
2839.464966	64.600000
2840.784229	64.200000
2842.104828	49.600000
2843.423656	69.000000
2844.742265	40.800000
2846.059103	70.200000
2847.375724	28.600000
2848.692128	72.000000
2850.006762	51.000000
2851.322732	74.400000
2852.635381	37.400000
2853.949365	55.000000
2855.263133	55.000000
2856.576684	48.600000
2857.888469	49.200000
2859.198487	42.400000
2860.509840	71.200000
2861.817878	87.800000
2863.127250	44.600000
2864.436408	51.600000
2865.745350	46.600000
2867.052528	54.000000
2868.357944	59.200000
2869.664693	74.400000
2870.969681	70.800000
2872.274454	69.800000
2873.577467	44.200000
2874.883360	60.800000
2876.184399	52.400000
2877.486772	81.000000
2878.787385	24.400000
2880.089332	76.400000
2881.391065	51.800000
2882.689495	75.800000
2883.989258	62.600000
2885.287264	75.800000
2886.585058	62.600000
2887.881096	55.600000
2889.178467	71.000000
2890.474082	47.200000
2891.769486	57.800000
2893.064679	78.200000
2894.356575	68.000000
2895.651347	57.200000
2896.942822	14.400000
2898.235630	85.200000
2899.528228	60.000000
2900.817532	51.600000
2902.108168	33.000000
2903.397053	68.600000
2904.687270	39.000000
2905.974196	51.800000
2907.262454	50.000000
2908.548963	48.200000
2909.835263	52.000000
2911.121356	54.000000
2912.405700	56.600000
2913.692915	39.800000
2914.975304	34.400000
2916.259025	95.600000
2917.541000	42.400000
2918.822767	64.800000
2920.102789	55.000000
2921.385682	83.000000
2922.666829	37.200000
2923.944694	65.600000
2925.225428	44.600000
2926.502881	79.000000
2927.780128	48.800000
2929.055633	61.800000
2930.334006	55.800000
2931.607565	86.800000
2932.883991	75.800000
2934.158676	65.800000
2935.431620	49.800000
2936.705896	71.400000
2937.978432	53.400000
2939.250763	67.800000
2940.519822	36.800000
2941.791746	62.400000
2943.061932	51.200000
2944.331914	52.800000
2945.601693	60.600000
2946.869736	43.400000
2948.136042	35.800000
2949.402147	64.800000
2950.669581	42.400000
2951.935280	64.400000
2953.200778	37.600000
2954.466073	53.200000
2955.728103	69.200000
2956.991463	49.400000
2958.254622	47.200000
2959.516049	68.200000
2960.778805	23.600000
2962.039829	51.800000
2963.299123	48.600000
2964.558217	64.200000
2965.817110	41.600000
2967.075803	43.000000
2968.334296	43.000000
2969.591060	44.800000
2970.847624	46.200000
2972.102460	79.000000
2973.358626	52.600000
2974.611537	78.400000
2975.865777	6.200000
2977.119817	77.600000
2978.372132	30.200000
2979.624249	78.800000
2980.874641	47.200000
2982.127888	57.000000
2983.376358	38.400000
2984.627683	32.000000
2985.875758	62.800000
2987.123636	44.000000
2988.371318	40.200000
2989.618802	55.200000
2990.864565	18.000000
2992.110132	64.800000
2993.357026	25.800000
2994.600676	49.400000
2995.845654	65.600000
2997.087388	63.000000
2998.331974	35.600000
2999.574841	32.600000
3000.814467	26.200000
3002.056943	47.600000
3003.296179	24.400000
3004.536743	62.800000
3005.775590	47.800000
3007.014243	62.400000
3008.251180	50.000000
3009.489445	55.400000
3010.725994	54.400000
3011.962350	62.200000
3013.198512	55.800000
3014.432960	78.600000
3015.667216	59.800000
3016.901278	81.400000
3018.133627	45.600000
3019.364266	49.600000
3020.597750	52.200000
3021.829522	44.400000
3023.059584	36.400000
3024.289453	76.600000
3025.517613	57.000000
3026.747100	60.000000
3027.974877	36.800000
3029.202463	66.600000
3030.431375	69.800000
3031.655546	69.200000
3032.882559	57.400000
3034.106348	53.800000
3035.331464	38.400000
3036.554873	40.200000
3037.778092	37.200000
3038.999606	52.400000
3040.223961	53.600000
3041.443581	50.800000
3042.664527	50.800000
3043.885284	36.200000
3045.104337	32.600000
3046.324715	50.800000
3047.541877	31.600000
3048.760365	27.400000
3049.977150	14.800000
3051.193748	59.400000
3052.410157	26.200000
3053.623353	83.400000
3054.839388	41.400000
3056.052210	44.200000
3057.267869	57.000000
3058.478805	71.000000
3059.691066	46.400000
3060.903140	80.600000
3062.115028	35.600000
3063.325219	57.400000
3064.535223	23.400000
3065.745041	66.200000
3066.953163	52.600000
3068.161100	76.600000
3069.367341	20.000000
3070.574907	69.200000
3071.780778	79.900000
3072.986465	90.600000
3074.191966	27.400000
3075.395774	29.800000
3076.600906	34.000000
3077.804345	69.200000
3079.006093	48.800000
3080.207656	61.200000
3081.409036	31.200000
3082.610232	56.200000
3083.809738	40.800000
3085.009061	76.600000
3086.209707	39.000000
3087.408663	50.200000
3088.604425	51.400000
3089.803016	58.400000
3090.998413	37.600000
3092.195133	61.600000
3093.388661	32.800000
3094.585017	61.800000
3095.779686	48.600000
3096.971165	64.000000
3098.166976	47.200000
3099.358092	46.400000
3100.550532	35.000000
3101.739784	66.600000
3102.931861	30.200000
3104.122255	60.400000
3105.309463	44.600000
3106.497993	45.800000
3107.687846	44.400000
3108.874515	64.400000
3110.061003	44.800000
3111.247313	58.800000
3112.434944	44.400000
3113.619393	49.600000
3114.802163	55.600000
3115.987755	30.000000
3117.171668	35.000000
3118.353902	61.200000
3119.535957	52.800000
3120.717834	67.600000
3121.899533	30.600000
3123.079555	47.400000
3124.257900	51.800000
3125.439065	50.400000
3126.617055	30.600000
3127.794868	58.400000
3128.972504	47.000000
3130.148466	44.000000
3131.324250	28.400000
3132.501356	59.000000
3133.676787	24.000000
3134.850545	51.600000
3136.022630	51.800000
3137.196037	61.000000
3138.369267	21.600000
3139.540826	58.600000
3140.713705	26.000000
3141.883417	71.800000
3143.054450	50.600000
3144.223813	86.200000
3145.391505	42.400000
3146.562013	49.600000
3147.727863	17.400000
3148.898021	37.200000
3150.063523	53.800000
3151.228850	50.000000
3152.394004	24.000000
3153.558985	74.000000
3154.725285	31.800000
3155.886933	34.000000
3157.049900	35.600000
3158.212695	35.000000
3159.375317	31.600000
3160.536273	40.600000
3161.697058	42.400000
3162.857670	54.400000
3164.016618	59.200000
3165.175395	50.600000
3166.333999	33.400000
3167.492432	46.400000
3168.650694	60.400000
3169.807293	56.000000
3170.962231	51.000000
3172.118488	54.000000
3173.273084	43.600000
3174.427510	36.200000
3175.580276	25.000000
3176.732871	40.400000
3177.885297	40.000000
3179.037553	65.600000
3180.189638	34.600000
3181.338577	61.800000
3182.490324	42.800000
3183.640412	57.800000
3184.788844	38.400000
3185.937106	27.600000
3187.085200	28.200000
3188.233125	51.800000
3189.379394	47.800000
3190.525495	42.400000
3191.669942	53.800000
3192.814221	46.600000
3193.958332	39.800000
3195.103760	65.200000
3196.246050	35.800000
3197.388173	55.800000
3198.530128	42.000000
3199.671916	45.400000
3200.813537	31.000000
3201.952023	31.800000
3203.091826	38.200000
3204.232946	48.800000
3205.370933	29.000000
3206.507270	29.600000
3207.643441	24.000000
3208.780929	42.200000
3209.916769	64.200000
3211.053926	40.600000
3212.186470	48.800000
3213.323296	32.800000
3214.455510	54.600000
3215.589041	69.200000
3216.722408	14.400000
3217.852647	49.000000
3218.985684	27.400000
3220.115595	47.200000
3221.246822	44.800000
3222.374925	64.200000
3223.505824	20.800000
3224.635079	72.600000
3225.762691	15.200000
3226.887180	53.200000
3228.015945	29.600000
3229.141588	54.000000
3230.267069	39.200000
3231.390907	48.800000
3232.517541	56.000000
3233.639577	67.800000
3234.762929	36.600000
3235.886119	69.200000
3237.009146	5.400000
3238.130535	64.000000
3239.251761	34.800000
3240.371350	60.600000
3241.490777	46.400000
3242.608566	46.200000
3243.729147	47.000000
3244.846615	60.600000
3245.963922	67.400000
3247.081069	84.200000
3248.196579	40.000000
3249.313405	74.400000
3250.427121	40.200000
3251.543626	34.200000
3252.658497	28.600000
3253.770258	42.600000
3254.881861	66.000000
3255.994779	35.800000
3257.107537	20.400000
3258.217189	85.200000
3259.328156	36.200000
3260.438964	44.200000
3261.548140	56.800000
3262.655685	41.600000
3263.764545	36.400000
3264.873247	61.800000
3265.978846	19.200000
3267.085759	51.200000
3268.191043	25.600000
3269.297641	64.800000
3270.401139	40.800000
3271.505952	44.600000
3272.610606	35.800000
3273.712163	55.600000
3274.813563	18.000000
3275.916277	62.000000
3277.018835	37.800000
3278.118296	37.000000
3279.220541	33.800000
3280.319690	67.800000
3281.417215	37.400000
3282.514584	42.600000
3283.614735	42.800000
3284.711794	38.800000
3285.808697	-4.800000
3286.905445	68.400000
3287.997634	-2.600000
3289.094073	42.400000
3290.188889	18.400000
3291.283551	65.800000
3292.376591	35.000000
3293.469476	42.600000
3294.560741	23.600000
3295.653319	43.200000
3296.744277	54.600000
3297.833615	41.000000
3298.922800	34.600000
3300.013298	40.400000
3301.100711	45.800000
3302.187971	28.400000
3303.276544	9.800000
3304.364964	34.600000
3305.448838	20.400000
3306.536953	39.800000
3307.621986	41.400000
3308.705404	34.800000
3309.790134	27.000000
3310.873248	39.800000
3311.957675	21.800000
3313.039023	64.600000
3314.121683	44.400000
3315.202729	58.200000
3316.283624	43.400000
3317.362905	40.000000
3318.442036	44.200000
3319.522479	16.800000
3320.599847	24.400000
3321.678527	58.800000
3322.755595	12.600000
3323.832514	32.800000
3324.907821	12.000000
3325.982979	34.000000
3327.059448	37.400000
3328.132847	49.400000
3329.206096	30.800000
3330.280657	38.200000
3331.353609	23.600000
3332.424952	29.400000
3333.497606	5.600000
3334.567194	38.200000
3335.638092	22.600000
3336.707383	35.000000
3337.777985	33.800000
3338.846980	54.200000
3339.914369	38.800000
3340.980153	37.400000
3342.050163	22.400000
3343.117110	44.400000
3344.180995	34.000000
3345.247647	24.400000
3346.312696	22.200000
3347.376141	51.800000
3348.439440	34.000000
3349.502592	38.400000
3350.565598	46.200000
3351.628458	46.400000
3352.689716	18.000000
3353.747917	27.800000
3354.810338	13.400000
3355.869704	65.200000
3356.928924	15.800000
3357.989453	27.600000
3359.045474	40.800000
3360.104258	54.400000
3361.158535	28.800000
3362.215576	13.800000
3363.271018	24.200000
3364.327770	53.400000
3365.382923	25.800000
3366.436479	67.800000
3367.488439	37.000000
3368.543160	25.400000
3369.594832	16.200000
3370.646361	47.600000
3371.699198	15.600000
3372.748988	38.000000
3373.800087	54.400000
3374.848140	17.800000
3375.898952	28.800000
3376.946720	56.600000
3377.994344	20.600000
3379.041827	58.600000
3380.087717	35.600000
3381.134915	43.200000
3382.179071	30.800000
3383.225985	46.800000
3384.271307	28.400000
3385.313588	39.200000
3386.355728	68.600000
3387.399177	44.000000
3388.442484	17.600000
3389.484201	39.400000
3390.525778	52.800000
3391.567213	51.800000
3392.607060	56.800000
3393.645318	37.600000
3394.684884	17.400000
3395.724310	50.400000
3396.762148	28.800000
3397.798399	51.200000
3398.834511	38.800000
3399.871930	62.800000
3400.906316	46.400000
3401.942009	45.600000
3402.977563	35.800000
3404.010086	70.800000
3405.045362	36.600000
3406.077607	30.200000
3407.109714	30.000000
3408.140237	40.600000
3409.172067	26.200000
3410.203759	45.800000
3411.232423	24.000000
3412.260950	61.800000
3413.290783	32.400000
3414.320479	57.200000
3415.347149	13.800000
3416.375125	30.600000
3417.400078	38.800000
3418.427780	40.200000
3419.452459	46.000000
3420.478444	65.200000
3421.502849	32.000000
3422.527118	15.000000
3423.549808	78.000000
3424.572362	44.600000
3425.596222	49.400000
3426.617062	79.800000
3427.637766	19.400000
3428.659777	52.600000
3429.678769	3.600000
3430.697625	39.400000
3431.717788	32.000000
3432.734934	42.400000
