-116.521679	-1.800000
-113.852079	-6.200000
-111.185414	-3.200000
-108.519501	-14.400000
-105.856521	-21.600000
-103.192110	4.600000
-100.530630	1.400000
-97.867721	-40.400000
-95.209918	8.200000
-92.550686	6.400000
-89.892202	5.000000
-87.236643	-13.200000
-84.579654	21.600000
-81.927764	-24.000000
-79.274444	17.600000
-76.624043	1.600000
-73.972214	-9.400000
-71.325474	1.200000
-68.677306	29.400000
-66.029880	-2.800000
-63.385369	3.400000
-60.739428	11.200000
-58.098569	25.000000
-55.456281	7.800000
-52.816902	7.000000
-50.176093	34.000000
-47.536025	26.800000
-44.901030	1.600000
-42.264605	14.400000
-39.631083	0.200000
-36.996133	0.200000
-34.366248	16.800000
-31.732771	12.800000
-29.104356	20.800000
-26.476675	-12.200000
-23.847565	16.000000
-21.223512	11.000000
-18.595870	31.800000
-15.973281	22.400000
-13.351424	63.800000
-10.730297	102.400000
-8.109901	213.600000
-5.492392	690.400000
-2.873455	2569.200000
-0.257403	7728.800000
2.357920	8024.200000
4.972515	6869.200000
7.584229	794.000000
10.197371	85.200000
12.805479	40.800000
15.417169	50.200000
18.023828	29.600000
20.631915	9.200000
23.239278	-0.200000
25.841616	18.000000
28.447532	9.200000
31.048426	5.200000
33.650748	21.400000
36.248053	27.600000
38.848933	14.200000
41.444798	-4.600000
44.042092	-16.200000
46.638666	11.600000
49.230231	-1.400000
51.823224	14.000000
54.413356	2.200000
57.004915	15.400000
59.593616	4.000000
62.183743	9.000000
64.768871	-4.200000
67.355427	8.800000
69.941269	10.600000
72.524257	-10.000000
75.108671	-0.600000
77.685957	12.600000
80.266809	0.200000
82.844812	21.800000
85.422105	-7.800000
88.000824	-6.800000
90.574561	-4.000000
93.149726	8.200000
95.722047	9.200000
98.293660	-13.800000
100.862433	32.000000
103.432633	8.000000
105.999994	5.000000
108.568782	9.600000
111.134733	7.200000
113.697849	-11.000000
116.264521	17.400000
118.821972	30.200000
121.385108	-15.400000
123.943284	14.200000
126.505015	6.200000
129.061789	14.800000
131.619989	32.800000
134.173237	51.400000
136.725787	47.600000
139.281887	83.400000
141.833039	131.800000
144.383494	101.200000
146.933251	121.600000
149.480189	170.200000
152.026432	127.000000
154.574100	151.200000
157.121072	158.400000
159.663109	145.400000
162.204452	125.000000
164.745102	135.800000
167.287178	129.400000
169.826442	141.800000
172.362898	175.200000
174.898662	144.800000
177.435852	166.200000
179.972351	155.800000
182.506044	152.200000
185.036933	138.800000
187.567134	115.600000
190.098761	126.200000
192.627586	129.000000
195.153612	154.400000
197.678952	156.200000
200.205717	147.800000
202.729686	114.400000
205.252970	146.200000
207.775569	148.000000
210.295375	127.400000
212.814497	144.400000
215.332938	171.400000
217.852802	137.600000
220.365665	110.400000
222.882059	144.200000
225.397771	157.000000
227.908593	144.000000
230.420840	110.400000
232.930305	145.800000
235.439090	152.400000
237.947198	148.400000
240.456730	166.800000
242.961381	125.600000
245.465356	138.600000
247.970755	135.200000
250.471279	147.000000
252.975326	128.600000
255.472403	133.400000
257.973003	131.000000
260.470831	143.400000
262.967986	139.600000
265.464468	175.200000
267.956087	139.200000
270.451226	163.600000
272.943598	164.000000
275.435300	161.400000
277.924239	148.200000
280.414601	146.000000
282.902202	147.800000
285.387043	167.200000
287.875399	181.800000
290.356815	163.800000
292.841745	149.400000
295.321830	163.600000
297.805427	129.000000
300.284181	176.400000
302.764358	130.200000
305.241784	170.400000
307.718546	147.800000
310.194644	169.600000
312.667995	187.400000
315.140683	174.200000
317.612710	188.800000
320.084076	198.000000
322.552697	231.600000
325.020660	202.600000
327.490044	193.400000
329.954606	212.000000
332.422672	184.800000
334.885918	184.200000
337.348506	173.800000
339.810438	200.000000
342.271713	138.800000
344.730254	178.200000
347.190217	178.800000
349.647447	201.200000
352.104023	175.000000
354.559945	160.000000
357.013137	174.400000
359.467752	190.800000
361.917565	181.600000
364.370874	202.800000
366.819384	160.000000
369.267244	163.400000
371.716526	178.200000
374.161014	196.400000
376.606924	197.200000
379.052184	168.400000
381.494726	187.200000
383.936620	193.800000
386.377867	168.400000
388.816398	206.600000
391.256350	191.600000
393.693590	193.800000
396.128117	171.600000
398.566132	191.800000
400.999370	181.400000
403.434029	166.600000
405.863916	169.800000
408.297288	159.000000
410.725890	168.600000
413.153850	164.400000
415.583232	183.400000
418.007848	183.400000
420.433886	181.800000
422.859283	169.200000
425.284040	181.200000
427.704039	179.800000
430.125458	212.000000
432.544182	140.800000
434.964326	175.000000
437.381775	176.000000
439.800644	179.000000
442.216820	183.600000
444.628248	174.000000
447.043153	178.000000
449.455369	173.200000
451.866950	172.000000
454.277897	183.000000
456.686158	192.800000
459.093786	186.200000
461.500782	152.600000
463.907147	182.200000
466.310829	198.400000
468.713881	185.400000
471.116303	164.600000
473.518095	184.400000
475.917209	159.200000
478.317743	168.800000
480.717648	173.000000
483.112831	153.800000
485.511480	186.200000
487.905408	186.600000
490.298711	178.600000
492.691389	150.400000
495.083441	194.400000
497.476911	157.400000
499.865669	155.200000
502.251761	152.200000
504.639273	143.800000
507.026162	140.400000
509.410387	150.200000
511.796030	105.200000
514.179012	118.600000
516.559333	118.800000
518.941073	130.800000
521.320154	103.400000
523.700654	114.200000
526.078496	146.200000
528.453682	120.800000
530.828252	99.600000
533.204239	109.200000
535.577574	99.200000
537.952326	104.800000
540.322393	125.000000
542.691844	84.200000
545.062713	101.200000
547.428901	110.800000
549.796508	91.800000
552.161470	75.000000
554.525818	125.200000
556.889553	106.200000
559.254706	115.800000
561.615187	106.200000
563.977086	88.000000
566.336344	93.600000
568.692964	108.800000
571.053030	118.200000
573.406404	87.000000
575.763223	88.000000
578.117407	78.000000
580.470982	110.000000
582.823950	106.800000
585.174285	94.800000
587.526038	63.000000
589.871114	99.800000
592.221653	84.800000
594.565520	84.800000
596.914848	99.800000
599.259527	87.600000
601.601582	112.200000
603.945054	106.000000
606.285903	91.000000
608.626149	106.200000
610.963776	86.200000
613.304837	82.800000
615.641260	87.200000
617.979100	63.200000
620.314323	82.400000
622.646930	82.000000
624.980953	116.400000
627.312362	92.200000
629.643173	74.400000
631.973387	97.600000
634.303002	75.400000
636.627994	113.800000
638.958428	96.800000
641.284241	92.800000
643.607446	94.600000
645.932068	110.400000
648.254084	78.600000
650.575506	107.400000
652.894326	82.400000
655.214561	103.600000
657.534203	92.000000
659.851244	96.200000
662.167693	56.800000
664.481544	90.800000
666.796811	65.200000
669.109481	76.400000
671.423566	89.800000
673.733051	90.600000
676.043952	62.600000
678.352260	73.600000
680.659980	86.200000
682.969114	57.000000
685.273656	68.200000
687.577612	71.200000
689.880982	82.200000
692.185766	71.200000
694.485963	83.000000
696.787576	97.400000
699.088603	63.200000
701.385049	86.600000
703.682910	67.000000
705.980187	88.800000
708.276881	61.200000
710.568999	82.800000
712.864528	47.400000
715.155483	59.400000
717.447853	62.000000
719.737648	79.000000
722.026862	81.600000
724.315497	90.800000
726.601559	68.800000
728.889036	49.200000
731.173941	65.800000
733.458269	100.600000
735.740028	86.400000
738.023201	80.400000
740.305797	87.800000
742.583837	79.200000
744.863292	82.400000
747.142170	85.000000
749.420474	97.400000
751.694228	91.000000
753.969395	69.800000
756.243989	95.400000
758.516024	76.400000
760.789472	50.400000
763.060362	49.200000
765.328696	78.000000
767.598443	84.200000
769.865636	63.000000
772.132258	71.200000
774.398310	78.200000
776.661811	82.000000
778.926725	113.400000
781.191069	87.200000
783.450884	93.600000
785.712111	77.800000
787.972771	97.200000
790.230885	74.600000
792.486454	97.400000
794.745414	120.600000
796.997874	87.400000
799.255702	103.200000
801.509011	76.400000
803.759780	79.400000
806.011961	73.400000
808.261603	100.800000
810.512658	91.600000
812.759201	93.600000
815.007156	79.000000
817.252577	93.600000
819.499409	64.800000
821.745680	73.000000
823.987446	64.600000
826.232596	94.000000
828.471273	96.800000
830.713332	70.400000
832.950893	114.200000
835.189866	77.400000
837.426312	84.200000
839.664169	76.800000
841.899501	101.800000
844.132310	68.800000
846.366530	89.000000
848.598227	90.800000
850.829370	104.400000
853.059958	88.600000
855.289992	82.000000
857.519472	67.000000
859.744470	74.800000
861.972843	90.000000
864.196736	99.600000
866.422041	72.600000
868.642870	80.600000
870.867071	65.000000
873.086799	84.400000
875.307937	75.000000
877.528525	78.000000
879.746604	76.000000
881.966092	75.200000
884.181114	58.800000
886.395588	88.000000
888.609515	71.200000
890.822895	67.000000
893.035727	80.800000
895.248013	66.800000
897.457796	63.200000
899.667034	84.200000
901.875727	65.800000
904.081920	81.800000
906.289524	59.600000
908.494629	91.600000
910.699191	77.000000
912.901258	69.600000
915.104734	73.200000
917.305716	101.200000
919.506156	83.200000
921.708005	74.800000
923.903463	71.000000
926.102280	60.400000
928.296658	73.400000
930.494394	54.000000
932.687694	97.400000
934.882403	83.800000
937.074626	89.800000
939.266310	47.200000
941.457457	71.000000
943.646121	63.000000
945.834249	93.600000
948.019896	66.800000
950.208895	86.800000
952.393471	83.200000
954.577512	75.600000
956.764903	95.600000
958.943990	84.600000
961.126428	79.400000
963.308332	83.400000
965.487761	79.600000
967.664718	97.400000
969.843083	99.800000
972.022855	82.000000
974.196278	109.800000
976.373047	90.400000
978.545409	117.600000
980.719179	86.000000
982.888545	108.600000
985.061255	103.200000
987.231500	94.000000
989.401215	99.400000
991.570403	86.200000
993.735193	100.200000
995.903324	108.000000
998.067060	71.200000
1000.232204	100.200000
1002.394888	83.400000
1004.557047	104.600000
1006.716749	105.200000
1008.875926	84.800000
1011.036510	101.600000
1013.194639	106.400000
1015.352245	108.600000
1017.509327	111.400000
1019.665885	107.800000
1021.818064	122.200000
1023.971650	94.800000
1026.124714	101.400000
1028.275329	116.400000
1030.427351	113.200000
1032.574999	100.600000
1034.725979	128.200000
1036.872588	107.400000
1039.018678	136.000000
1041.164250	105.200000
1043.311227	125.600000
1045.451915	106.800000
1047.595933	93.400000
1049.737510	116.000000
1051.878571	112.000000
1054.021036	123.600000
1056.157221	125.200000
1058.296733	104.400000
1060.431890	105.000000
1062.570371	123.200000
1064.704498	143.600000
1066.838112	120.800000
1068.973130	128.200000
1071.103800	113.600000
1073.235874	108.200000
1075.365519	124.400000
1077.494652	132.200000
1079.623273	90.600000
1081.751383	130.400000
1083.877067	95.200000
1086.002241	102.000000
1088.128819	122.000000
1090.251059	84.800000
1092.374704	98.600000
1094.494014	98.800000
1096.618553	79.000000
1098.736848	107.000000
1100.856547	98.800000
1102.973827	104.200000
1105.090600	98.200000
1107.206868	105.600000
1109.320719	61.800000
1111.435975	74.200000
1113.546907	95.600000
1115.661152	82.000000
1117.771076	97.400000
1119.882404	114.400000
1121.993227	72.400000
1124.099734	95.200000
1126.209550	66.600000
1128.315053	117.000000
1130.421958	104.000000
1132.522648	90.800000
1134.628550	70.600000
1136.730143	57.400000
1138.833139	62.400000
1140.935634	91.000000
1143.031922	66.800000
1145.133417	84.600000
1147.230610	73.000000
1149.327305	75.000000
1151.423501	78.200000
1153.519199	88.600000
1155.614400	91.000000
1157.707204	69.800000
1159.801410	70.600000
1161.889425	100.800000
1163.982639	83.400000
1166.069664	77.800000
1168.159988	104.600000
1170.246024	94.400000
1172.335359	69.600000
1174.418512	92.800000
1176.503067	61.000000
1178.589024	73.200000
1180.670699	71.000000
1182.753775	71.600000
1184.834466	80.600000
1186.914666	91.000000
1188.994374	75.200000
1191.073591	83.600000
1193.150426	101.000000
1195.224879	91.600000
1197.302625	82.200000
1199.376101	73.800000
1201.450977	74.600000
1203.521586	67.400000
1205.593596	69.800000
1207.663231	67.200000
1209.734265	98.200000
1211.804813	91.400000
1213.871099	62.800000
1215.938786	72.000000
1218.004101	64.000000
1220.070816	74.400000
1222.133275	69.200000
1224.199019	65.800000
1226.260509	74.800000
1228.323400	92.000000
1230.383923	79.600000
1232.443962	84.200000
1234.503518	83.400000
1236.560710	78.800000
1238.617420	62.600000
1240.671766	58.200000
1242.729394	79.200000
1244.784659	81.000000
1246.835683	69.200000
1248.888107	97.800000
1250.940051	74.600000
1252.989637	85.600000
1255.038744	81.400000
1257.087372	95.000000
1259.135522	91.000000
1261.183194	63.600000
1263.226635	80.000000
1265.273352	72.600000
1267.317715	67.000000
1269.361602	71.200000
1271.403137	69.800000
1273.442323	86.600000
1275.484782	30.000000
1277.523018	60.000000
1279.562653	70.000000
1281.601813	77.800000
1283.636754	79.800000
1285.673094	88.200000
1287.707090	87.800000
1289.742483	65.400000
1291.773664	68.400000
1293.806242	58.800000
1295.838349	63.000000
1297.868115	77.800000
1299.899278	77.400000
1301.926235	81.400000
1303.954589	76.000000
1305.978738	73.600000
1308.006153	62.000000
1310.029365	79.000000
1312.053975	68.800000
1314.076251	88.600000
1316.099924	72.600000
1318.121263	93.000000
1320.142136	59.000000
1322.162541	80.800000
1324.178753	65.600000
1326.196362	82.800000
1328.211643	45.600000
1330.230183	71.600000
1332.244534	80.600000
1334.256558	90.600000
1336.271841	56.800000
1338.282938	78.000000
1340.295432	41.800000
1342.303743	76.400000
1344.315309	69.600000
1346.320837	52.600000
1348.329620	84.000000
1350.334225	72.400000
1352.342084	54.000000
1354.349481	45.600000
1356.350847	79.400000
1358.353609	87.600000
1360.355912	68.200000
1362.357755	81.200000
1364.359138	76.200000
1366.358208	74.800000
1368.356819	86.000000
1370.354971	89.600000
1372.352666	60.600000
1374.346198	92.200000
1376.341125	64.400000
1378.335596	65.200000
1380.329610	85.800000
1382.321317	62.400000
1384.312568	87.400000
1386.301514	84.600000
1388.291856	93.800000
1390.281742	70.200000
1392.269324	43.400000
1394.256453	79.400000
1396.241280	87.600000
1398.227502	71.400000
1400.211423	57.200000
1402.194892	91.800000
1404.177909	72.400000
1406.158628	76.400000
1408.140741	86.000000
1410.120558	74.800000
1412.099923	58.600000
1414.075150	84.800000
1416.053615	71.600000
1418.029787	68.000000
1420.005509	91.400000
1421.980783	72.000000
1423.953765	75.000000
1425.926299	89.800000
1427.898385	67.600000
1429.870024	75.800000
1431.837534	66.000000
1433.810118	76.200000
1435.774896	82.600000
1437.744747	77.800000
1439.710474	67.200000
1441.677593	85.000000
1443.642429	60.400000
1445.603145	74.000000
1447.568929	89.600000
1449.528758	60.200000
1451.489981	71.200000
1453.452595	72.600000
1455.411095	80.400000
1457.369153	93.000000
1459.326769	53.400000
1461.283942	81.600000
1463.238840	78.800000
1465.195131	87.400000
1467.149147	69.200000
1469.102722	94.600000
1471.054025	62.200000
1473.006721	54.600000
1474.957144	45.200000
1476.907129	68.400000
1478.856675	89.400000
1480.803952	82.400000
1482.748961	96.000000
1484.695363	94.200000
1486.641327	74.000000
1488.586854	109.800000
1490.530115	69.600000
1492.472941	94.000000
1494.413502	103.400000
1496.355456	71.600000
1498.295147	66.400000
1500.234403	70.800000
1502.173225	58.200000
1504.109787	107.000000
1506.047740	75.200000
1507.983434	70.600000
1509.918695	84.600000
1511.851699	96.000000
1513.784272	66.600000
1515.716412	76.800000
1517.648120	80.800000
1519.577574	94.000000
1521.508419	100.600000
1523.438832	71.800000
1525.365173	94.200000
1527.292904	75.800000
1529.218386	76.600000
1531.143438	70.400000
1533.068061	84.400000
1534.992254	89.400000
1536.914201	115.000000
1538.837538	105.000000
1540.758628	103.400000
1542.677474	106.000000
1544.597710	90.000000
1546.515703	117.600000
1548.433269	91.400000
1550.348593	106.600000
1552.265307	121.400000
1554.177966	127.000000
1556.093829	134.200000
1558.007452	150.400000
1559.918837	131.400000
1561.831612	160.800000
1563.740337	173.200000
1565.650451	189.600000
1567.560142	234.000000
1569.469410	288.600000
1571.376444	324.600000
1573.281245	387.200000
1575.187435	474.800000
1577.091393	530.200000
1578.994930	610.000000
1580.898047	629.200000
1582.798934	556.200000
1584.701210	540.000000
1586.601258	428.800000
1588.502693	356.000000
1590.400095	325.200000
1592.297078	252.800000
1594.193643	202.000000
1596.091595	175.400000
1597.983713	169.800000
1599.879025	146.400000
1601.773919	147.000000
1603.666591	124.000000
1605.558846	109.800000
1607.448882	100.800000
1609.338502	117.000000
1611.227707	127.200000
1613.116497	103.200000
1615.003069	95.800000
1616.891029	78.800000
1618.774972	116.200000
1620.660302	85.400000
1622.545219	126.600000
1624.427922	73.000000
1626.312012	115.800000
1628.192090	104.600000
1630.073556	88.000000
1631.952811	74.600000
1633.833452	97.800000
1635.708289	51.800000
1637.588107	98.400000
1639.463921	82.800000
1641.339324	99.000000
1643.216113	83.800000
1645.087106	96.800000
1646.961280	81.200000
1648.831455	79.200000
1650.704811	75.200000
1652.575964	79.600000
1654.444916	55.400000
1656.315252	85.800000
1658.181596	81.000000
1660.049325	56.400000
1661.914855	85.800000
1663.781771	79.200000
1665.644698	83.800000
1667.509010	86.200000
1669.371126	73.400000
1671.232837	71.200000
1673.095934	63.000000
1674.956835	73.400000
1676.815544	79.200000
1678.673849	86.400000
1680.533538	73.600000
1682.387461	36.200000
1684.244557	83.200000
1686.101249	81.800000
1687.953966	87.200000
1689.809854	63.600000
1691.661768	95.000000
1693.513281	70.600000
1695.364393	76.400000
1697.215105	70.800000
1699.065415	76.000000
1700.913542	64.800000
1702.763053	107.800000
1704.606814	90.000000
1706.455526	76.400000
1708.298491	102.200000
1710.144623	80.800000
1711.986792	49.600000
1713.832127	78.200000
1715.671721	81.400000
1717.512699	70.600000
1719.355060	90.000000
1721.193465	71.200000
1723.033253	64.000000
1724.870865	68.600000
1726.708083	95.600000
1728.543127	52.400000
1730.379554	63.400000
1732.213809	85.400000
1734.047669	76.000000
1735.881135	83.400000
1737.710656	96.000000
1739.543335	64.400000
1741.372070	75.400000
1743.203962	74.000000
1745.031912	65.400000
1746.859471	75.800000
1748.686637	89.000000
1750.513412	55.400000
1752.339795	72.600000
1754.162242	82.600000
1755.987844	78.800000
1757.809511	51.200000
1759.632560	62.000000
1761.453447	81.200000
1763.273946	62.800000
1765.095825	60.400000
1766.912006	81.400000
1768.731338	56.600000
1770.546742	64.600000
1772.365298	71.600000
1774.179928	82.600000
1775.994171	58.600000
1777.808028	68.000000
1779.621498	70.200000
1781.432815	51.800000
1783.245512	65.800000
1785.057824	82.400000
1786.866217	74.600000
1788.675992	59.200000
1790.481852	80.600000
1792.290857	71.000000
1794.095949	95.000000
1795.902422	88.800000
1797.708511	55.200000
1799.510689	75.600000
1801.316012	68.600000
1803.117426	57.400000
1804.920220	81.000000
1806.719108	83.600000
1808.519377	86.000000
1810.319264	77.200000
1812.117009	69.600000
1813.914374	71.400000
1815.711359	58.600000
1817.507963	74.200000
1819.302428	84.200000
1821.098272	89.400000
1822.888461	74.400000
1824.683547	67.600000
1826.472981	77.000000
1828.265551	77.200000
1830.055986	85.600000
1831.844287	93.400000
1833.635723	68.000000
1835.421513	52.800000
1837.208683	78.000000
1838.993721	43.600000
1840.781893	54.800000
1842.566179	78.800000
1844.348335	77.600000
1846.131871	80.400000
1847.913278	68.800000
1849.696064	69.200000
1851.474969	71.800000
1853.255253	88.000000
1855.033412	63.200000
1856.812949	64.800000
1858.590360	67.800000
1860.365649	91.400000
1862.142315	89.200000
1863.916859	66.400000
1865.692781	65.000000
1867.463082	56.600000
1869.236511	67.800000
1871.007820	78.600000
1872.778758	63.800000
1874.551074	84.600000
1876.317776	84.000000
1878.087603	75.000000
1879.853567	72.200000
1881.622655	52.600000
1883.387881	75.800000
1885.152739	67.800000
1886.918974	71.800000
1888.681350	99.400000
1890.443358	76.800000
1892.205000	79.400000
1893.966275	82.600000
1895.727182	78.800000
1897.487723	62.800000
1899.246154	86.800000
1901.004219	65.400000
1902.760177	80.400000
1904.517511	80.200000
1906.274480	86.400000
1908.029342	89.200000
1909.782100	73.800000
1911.534493	73.000000
1913.288263	50.200000
1915.039929	45.600000
1916.789493	81.800000
1918.540432	101.000000
1920.291009	57.600000
1922.037746	85.000000
1923.785860	78.200000
1925.531874	81.400000
1927.279263	77.800000
1929.024555	55.600000
1930.767749	58.200000
1932.512318	65.400000
1934.254791	50.600000
1935.996905	66.400000
1937.738658	61.600000
1939.480051	97.200000
1941.219351	56.600000
1942.958292	64.800000
1944.696874	70.400000
1946.433365	70.200000
1948.169498	68.100000
1949.907005	66.000000
1951.640690	78.000000
1953.375750	61.200000
1955.108721	65.800000
1956.841336	62.600000
1958.573595	65.800000
1960.305497	61.000000
1962.035313	75.000000
1963.763044	78.400000
1965.492150	66.600000
1967.220900	38.000000
1968.947568	69.000000
1970.673881	56.200000
1972.401567	82.400000
1974.123717	83.200000
1975.848968	69.200000
1977.570412	71.600000
1979.294957	64.000000
1981.017421	67.400000
1982.736083	73.800000
1984.457843	51.800000
1986.175801	55.200000
1987.895132	87.000000
1989.610664	71.200000
1991.331016	63.600000
1993.047570	92.000000
1994.760327	98.800000
1996.476180	80.000000
1998.189961	87.800000
1999.903392	33.400000
2001.614752	81.600000
2003.327484	45.000000
2005.036426	49.200000
2006.748460	60.400000
2008.454985	50.600000
2010.164603	61.800000
2011.872154	90.400000
2013.579356	88.400000
2015.284493	88.200000
2016.989284	72.600000
2018.695446	45.200000
2020.397826	54.400000
2022.101577	53.600000
2023.803266	58.000000
2025.504609	72.200000
2027.205608	64.400000
2028.904545	72.600000
2030.604854	72.000000
2032.301387	53.000000
2033.999292	76.200000
2035.695139	74.400000
2037.394071	62.800000
2039.087517	70.200000
2040.782334	56.200000
2042.476809	65.600000
2044.167515	61.800000
2045.861305	67.000000
2047.551328	78.000000
2049.242722	90.200000
2050.932063	62.400000
2052.622774	73.800000
2054.309722	74.400000
2055.996331	68.600000
2057.684309	68.000000
2059.368528	89.600000
2061.054118	90.600000
2062.739368	51.200000
2064.422569	97.000000
2066.107141	76.000000
2067.786249	86.400000
2069.470144	58.000000
2071.148577	55.800000
2072.830088	85.800000
2074.507847	103.200000
2076.185270	62.600000
2077.864062	50.800000
2079.540812	51.800000
2081.215519	71.000000
2082.891597	50.600000
2084.565633	79.800000
2086.239335	67.800000
2087.912701	53.600000
2089.584028	59.200000
2091.255021	68.400000
2092.925680	75.200000
2094.596005	92.400000
2096.265996	47.000000
2097.933951	61.400000
2099.601573	49.800000
2101.267160	86.400000
2102.934116	58.800000
2104.599039	59.800000
2106.263630	65.200000
2107.926189	63.600000
2109.590116	71.600000
2111.252012	86.200000
2112.913578	71.400000
2114.574812	77.200000
2116.234018	53.200000
2117.892893	90.600000
2119.551439	55.600000
2121.209654	77.400000
2122.864147	86.600000
2124.521704	83.600000
2126.178931	74.000000
2127.832438	73.600000
2129.487312	63.000000
2131.138467	85.800000
2132.792685	67.600000
2134.443185	68.800000
2136.095053	62.400000
2137.741512	85.200000
2139.392726	66.800000
2141.040226	82.200000
2142.689093	60.200000
2144.335941	68.200000
2145.982464	70.000000
2147.628661	51.200000
2149.271150	68.000000
2150.916697	62.600000
2152.558537	64.000000
2154.203434	65.400000
2155.844625	39.800000
2157.485494	94.000000
2159.126038	55.400000
2160.764570	93.400000
2162.404468	81.600000
2164.040666	45.200000
2165.678230	80.400000
2167.315472	86.800000
2168.950704	66.200000
2170.585614	90.000000
2172.220203	66.400000
2173.854471	64.200000
2175.485045	65.000000
2177.118671	68.400000
2178.748605	94.800000
2180.379904	59.200000
2182.009198	66.400000
2183.638173	71.200000
2185.266828	68.400000
2186.895164	59.600000
2188.521498	54.200000
2190.147513	59.600000
2191.771526	54.600000
2193.396905	53.000000
2195.020283	57.800000
2196.645026	66.600000
2198.266088	61.800000
2199.886833	88.400000
2201.508942	83.600000
2203.129054	59.800000
2204.747170	69.200000
2206.364970	66.600000
2207.982455	83.000000
2209.599624	77.400000
2211.216478	89.200000
2212.833016	74.600000
2214.447562	46.800000
2216.060115	74.400000
2217.674032	71.400000
2219.285958	69.800000
2220.899247	61.800000
2222.510546	68.200000
2224.119855	70.400000
2225.730528	79.000000
2227.339212	66.000000
2228.947583	52.600000
2230.553968	74.800000
2232.161715	78.600000
2233.767477	65.800000
2235.372927	60.000000
2236.976392	90.400000
2238.581220	69.800000
2240.184064	75.400000
2241.784925	77.600000
2243.387149	58.200000
2244.987391	56.400000
2246.588995	78.800000
2248.186946	80.600000
2249.786260	58.400000
2251.383594	79.400000
2252.980620	63.800000
2254.579008	64.000000
2256.173747	58.800000
2257.766509	57.000000
2259.360634	66.000000
2260.956120	68.200000
2262.547961	41.200000
2264.139496	66.800000
2265.732393	73.600000
2267.319980	63.200000
2268.912263	90.600000
2270.499240	62.600000
2272.089244	67.200000
2273.673944	93.400000
2275.263338	62.800000
2276.847430	65.800000
2278.432882	80.200000
2280.016366	58.000000
2281.602875	48.600000
2283.185751	65.800000
2284.768324	55.000000
2286.350593	77.200000
2287.929232	51.000000
2289.510896	90.600000
2291.088931	56.400000
2292.669989	55.400000
2294.247420	66.100000
2295.822888	76.800000
2297.401378	46.400000
2298.976244	89.400000
2300.550809	59.600000
2302.125073	56.200000
2303.699038	26.400000
2305.272701	69.200000
2306.846065	63.000000
2308.415810	59.800000
2309.985256	69.600000
2311.557720	85.600000
2313.124910	24.200000
2314.695118	78.600000
2316.261711	77.000000
2317.829664	62.200000
2319.395661	53.600000
2320.961361	69.600000
2322.526763	85.000000
2324.090212	63.800000
2325.655020	72.200000
2327.216220	77.400000
2328.780434	105.000000
2330.339386	93.800000
2331.901352	55.600000
2333.461368	93.800000
2335.021089	67.000000
2336.578860	58.400000
2338.136336	70.800000
2339.693518	85.400000
2341.248752	63.800000
2342.803693	54.400000
2344.358339	41.800000
2345.912692	84.000000
2347.466751	92.200000
2349.020517	44.000000
2350.572338	88.800000
2352.122217	70.600000
2353.675103	92.800000
2355.222746	74.800000
2356.773398	39.800000
2358.320458	81.200000
2359.868876	57.600000
2361.417003	83.000000
2362.961541	79.400000
2364.507437	74.600000
2366.051395	40.800000
2367.596709	91.800000
2369.138440	54.600000
2370.681527	97.400000
2372.222678	65.600000
2373.763540	51.800000
2375.304113	56.000000
2376.844397	68.200000
2378.384392	43.400000
2379.920809	61.600000
2381.460227	59.600000
2382.996067	59.600000
2384.533265	71.400000
2386.066887	66.200000
2387.603509	71.400000
2389.138201	61.800000
2390.670963	64.600000
2392.203438	72.200000
2393.733985	72.600000
2395.267530	62.200000
2396.795864	80.400000
2398.325554	77.200000
2399.854959	77.200000
2401.384079	65.000000
2402.912913	72.600000
2404.436543	56.000000
2405.964808	54.400000
2407.487871	57.800000
2409.015567	62.000000
2410.536424	56.000000
2412.061913	57.400000
2413.583843	92.200000
2415.107127	65.600000
2416.628491	86.000000
2418.147935	73.200000
2419.668734	63.200000
2421.187614	59.600000
2422.706213	75.800000
2424.222894	58.200000
2425.740929	64.600000
2427.258683	53.800000
2428.772885	87.000000
2430.286808	70.000000
2431.800450	82.800000
2433.315447	57.600000
2434.826895	61.600000
2436.339697	72.400000
2437.850587	90.600000
2439.361198	68.400000
2440.869897	89.000000
2442.381582	77.800000
2443.889724	75.800000
2445.397588	90.200000
2446.905174	100.400000
2448.409219	84.200000
2449.916249	77.600000
2451.421371	79.600000
2452.926216	96.600000
2454.429154	66.200000
2455.931816	72.000000
2457.434201	76.400000
2458.934681	78.800000
2460.436514	30.200000
2461.936442	70.600000
2463.436095	85.600000
2464.935473	64.400000
2466.432948	78.000000
2467.928521	67.400000
2469.427074	64.200000
2470.922099	90.800000
2472.418476	53.800000
2473.911327	65.200000
2475.405531	77.000000
2476.899461	63.200000
2478.389867	62.600000
2479.883251	59.200000
2481.374737	81.000000
2482.864326	47.600000
2484.353643	71.000000
2485.841064	73.400000
2487.331461	80.000000
2488.818340	72.200000
2490.306570	56.400000
2491.791283	69.600000
2493.275727	68.400000
2494.761521	55.200000
2496.245424	59.000000
2497.730677	82.000000
2499.210797	91.600000
2500.693890	69.200000
2502.175092	56.000000
2503.656025	82.200000
2505.135069	67.000000
2506.613844	78.800000
2508.092351	56.800000
2509.570590	97.200000
2511.048560	70.800000
2512.523025	65.600000
2514.000460	56.400000
2515.474391	76.400000
2516.949672	82.400000
2518.424686	85.000000
2519.896199	65.000000
2521.369063	72.200000
2522.840044	80.400000
2524.312375	87.000000
2525.779592	68.000000
2527.249776	76.200000
2528.718079	64.800000
2530.186117	69.000000
2531.653890	74.600000
2533.121398	71.200000
2534.588641	63.400000
2536.052392	67.200000
2537.517493	52.400000
2538.980717	55.800000
2540.445290	61.600000
2541.906375	46.800000
2543.368809	67.400000
2544.830980	48.600000
2546.289665	61.800000
2547.752921	75.000000
2549.211082	45.400000
2550.670591	65.200000
2552.125006	65.200000
2553.583992	67.200000
2555.041106	73.200000
2556.496348	57.400000
2557.951330	78.400000
2559.404443	79.600000
2560.858903	70.800000
2562.311495	82.400000
2563.763827	73.800000
2565.214292	40.200000
2566.667712	52.200000
2568.116050	79.200000
2569.567343	51.800000
2571.016771	101.800000
2572.462726	80.600000
2573.911636	63.800000
2575.357076	61.800000
2576.803863	84.000000
2578.248787	95.200000
2579.693454	68.600000
2581.139468	90.600000
2582.582016	74.400000
2584.025911	90.400000
2585.466340	65.200000
2586.908118	91.400000
2588.348036	86.000000
2589.789301	61.400000
2591.227104	48.200000
2592.667857	58.000000
2594.103548	107.400000
2595.542188	61.600000
2596.978970	48.000000
2598.413897	49.600000
2599.851771	84.800000
2601.284588	61.400000
2602.718752	63.400000
2604.151062	65.600000
2605.584718	87.400000
2607.016521	54.200000
2608.448070	73.600000
2609.879367	43.600000
2611.308811	75.400000
2612.738003	66.400000
2614.165345	70.600000
2615.594032	72.000000
2617.022468	68.000000
2618.447456	75.200000
2619.873791	57.000000
2621.298277	66.400000
2622.724109	57.800000
2624.146497	65.000000
2625.570231	93.800000
2626.992118	85.600000
2628.413756	101.000000
2629.833548	86.800000
2631.254686	89.800000
2632.675574	84.800000
2634.093023	89.600000
2635.513413	85.000000
2636.930365	75.400000
2638.347068	91.400000
2639.763523	93.800000
2641.179730	82.400000
2642.595689	89.400000
2644.009807	95.400000
2645.423677	88.000000
2646.835709	103.200000
2648.249084	93.400000
2649.659030	87.600000
2651.071912	113.200000
2652.481365	82.200000
2653.890572	97.200000
2655.297943	93.400000
2656.708248	63.600000
2658.116718	93.600000
2659.523352	104.600000
2660.929741	93.600000
2662.334296	94.400000
2663.740195	105.200000
2665.144261	131.000000
2666.548082	111.400000
2667.951659	116.400000
2669.353405	113.200000
2670.756494	135.400000
2672.156165	125.600000
2673.557180	159.800000
2674.954779	135.000000
2676.355307	153.400000
2677.752421	151.200000
2679.150878	145.400000
2680.547508	149.800000
2681.943895	156.600000
2683.340040	139.000000
2684.734359	125.400000
2686.130021	157.200000
2687.522274	130.000000
2688.915869	142.200000
2690.307640	139.800000
2691.700754	181.000000
2693.092044	158.600000
2694.481511	152.400000
2695.870738	176.000000
2697.259726	117.600000
2698.650055	141.000000
2700.035401	164.000000
2701.423670	168.600000
2702.810119	163.400000
2704.196329	169.200000
2705.582300	172.200000
2706.964873	177.600000
2708.348788	189.600000
2709.732465	209.000000
2711.115903	187.800000
2712.495946	208.000000
2713.877331	184.600000
2715.256901	182.200000
2716.637811	183.600000
2718.016907	196.400000
2719.394189	181.800000
2720.772812	214.000000
2722.149621	193.600000
2723.526195	206.600000
2724.902533	187.600000
2726.277060	170.800000
2727.652927	175.200000
2729.025407	170.400000
2730.400803	166.600000
2731.771239	157.600000
2733.143016	137.000000
2734.514558	138.200000
2735.884292	159.000000
2737.255367	133.200000
2738.624633	112.200000
2739.993666	129.400000
2741.360893	135.200000
2742.727886	111.000000
2744.094647	112.200000
2745.461176	102.600000
2746.825899	87.000000
2748.190390	101.600000
2749.554650	108.200000
2750.918677	105.400000
2752.282473	89.400000
2753.642895	84.600000
2755.006227	85.800000
2756.364617	74.600000
2757.725917	64.400000
2759.083847	86.600000
2760.444685	48.400000
2761.803724	64.600000
2763.159394	70.400000
2764.517972	51.400000
2765.873183	48.800000
2767.228165	84.400000
2768.581350	81.400000
2769.937442	109.400000
2771.290170	80.200000
2772.642670	74.200000
2773.994941	57.800000
2775.348550	46.800000
2776.698799	74.600000
2778.047253	76.800000
2779.398612	52.200000
2780.746613	76.600000
2782.095951	52.400000
2783.443497	69.800000
2784.790817	85.800000
2786.137910	59.000000
2787.483211	62.400000
2788.828287	54.600000
2790.173137	62.000000
2791.517761	52.800000
2792.859033	68.000000
2794.201643	64.400000
2795.544027	94.400000
2796.886186	41.800000
2798.224996	47.800000
2799.566706	58.400000
2800.905067	61.600000
2802.244766	59.400000
2803.582680	65.400000
2804.918809	54.400000
2806.254714	62.600000
2807.591957	81.200000
2808.927416	56.400000
2810.262652	46.600000
2811.596105	44.600000
2812.930895	65.400000
2814.262345	45.800000
2815.596690	58.000000
2816.926137	59.200000
2818.256920	46.200000
2819.587483	59.600000
2820.916266	71.000000
2822.246385	66.800000
2823.574726	57.800000
2824.902846	53.800000
2826.229188	56.400000
2827.556867	76.400000
2828.881212	66.600000
2830.206894	59.200000
2831.530800	69.400000
2832.854486	58.800000
2834.179509	49.000000
2835.501201	71.800000
2836.822675	68.000000
2838.143930	57.000000
2839.464966	61.000000
2840.784229	41.200000
2842.104828	71.600000
2843.423656	64.200000
2844.742265	70.000000
2846.059103	56.800000
2847.375724	71.400000
2848.692128	58.200000
2850.006762	46.000000
2851.322732	24.800000
2852.635381	73.200000
2853.949365	48.200000
2855.263133	42.600000
2856.576684	37.200000
2857.888469	41.000000
2859.198487	27.400000
2860.509840	29.600000
2861.817878	56.800000
2863.127250	62.000000
2864.436408	62.200000
2865.745350	73.400000
2867.052528	61.400000
2868.357944	40.200000
2869.664693	45.800000
2870.969681	60.000000
2872.274454	34.200000
2873.577467	60.200000
2874.883360	29.400000
2876.184399	65.800000
2877.486772	73.200000
2878.787385	38.600000
2880.089332	64.400000
2881.391065	58.000000
2882.689495	52.400000
2883.989258	54.400000
2885.287264	47.000000
2886.585058	68.200000
2887.881096	67.800000
2889.178467	57.000000
2890.474082	31.600000
2891.769486	66.000000
2893.064679	63.200000
2894.356575	41.600000
2895.651347	57.200000
2896.942822	41.400000
2898.235630	15.000000
2899.528228	57.200000
2900.817532	55.000000
2902.108168	35.800000
2903.397053	44.400000
2904.687270	41.400000
2905.974196	54.000000
2907.262454	52.600000
2908.548963	48.800000
2909.835263	43.400000
2911.121356	26.400000
2912.405700	43.800000
2913.692915	54.800000
2914.975304	62.400000
2916.259025	59.200000
2917.541000	65.000000
2918.822767	30.000000
2920.102789	83.600000
2921.385682	28.000000
2922.666829	52.600000
2923.944694	38.600000
2925.225428	76.000000
2926.502881	35.600000
2927.780128	40.600000
2929.055633	27.000000
2930.334006	68.200000
2931.607565	38.200000
2932.883991	71.800000
2934.158676	54.000000
2935.431620	51.600000
2936.705896	36.400000
2937.978432	55.600000
2939.250763	44.800000
2940.519822	46.400000
2941.791746	50.400000
2943.061932	57.000000
2944.331914	42.400000
2945.601693	47.200000
2946.869736	40.200000
2948.136042	72.600000
2949.402147	30.400000
2950.669581	59.200000
2951.935280	38.000000
2953.200778	45.800000
2954.466073	56.800000
2955.728103	28.200000
2956.991463	28.400000
2958.254622	32.800000
2959.516049	50.200000
2960.778805	38.600000
2962.039829	39.200000
2963.299123	61.200000
2964.558217	33.200000
2965.817110	35.400000
2967.075803	37.000000
2968.334296	62.200000
2969.591060	52.200000
2970.847624	56.000000
2972.102460	52.200000
2973.358626	43.800000
2974.611537	57.400000
2975.865777	72.400000
2977.119817	32.600000
2978.372132	84.800000
2979.624249	36.000000
2980.874641	50.800000
2982.127888	30.200000
2983.376358	45.600000
2984.627683	37.600000
2985.875758	44.200000
2987.123636	41.000000
2988.371318	18.000000
2989.618802	51.800000
2990.864565	60.400000
2992.110132	38.400000
2993.357026	53.600000
2994.600676	37.600000
2995.845654	46.400000
2997.087388	43.800000
2998.331974	64.800000
2999.574841	42.200000
3000.814467	52.200000
3002.056943	40.800000
3003.296179	26.400000
3004.536743	32.200000
3005.775590	71.600000
3007.014243	34.200000
3008.251180	58.400000
3009.489445	52.400000
3010.725994	60.600000
3011.962350	35.400000
3013.198512	42.600000
3014.432960	47.200000
3015.667216	43.000000
3016.901278	43.400000
3018.133627	53.200000
3019.364266	59.000000
3020.597750	68.000000
3021.829522	25.800000
3023.059584	42.600000
3024.289453	43.200000
3025.517613	33.400000
3026.747100	41.200000
3027.974877	55.000000
3029.202463	41.800000
3030.431375	49.600000
3031.655546	35.400000
3032.882559	40.200000
3034.106348	49.600000
3035.331464	59.200000
3036.554873	46.600000
3037.778092	40.200000
3038.999606	30.800000
3040.223961	44.400000
3041.443581	40.400000
3042.664527	33.800000
3043.885284	58.600000
3045.104337	61.800000
3046.324715	32.600000
3047.541877	58.400000
3048.760365	43.200000
3049.977150	47.400000
3051.193748	33.400000
3052.410157	76.600000
3053.623353	54.000000
3054.839388	57.600000
3056.052210	48.200000
3057.267869	64.600000
3058.478805	47.400000
3059.691066	41.400000
3060.903140	51.800000
3062.115028	35.600000
3063.325219	42.600000
3064.535223	62.800000
3065.745041	60.600000
3066.953163	24.400000
3068.161100	38.800000
3069.367341	50.000000
3070.574907	20.800000
3071.780778	47.300000
3072.986465	73.800000
3074.191966	40.000000
3075.395774	52.400000
3076.600906	65.800000
3077.804345	46.000000
3079.006093	48.400000
3080.207656	46.400000
3081.409036	56.000000
3082.610232	47.800000
3083.809738	57.600000
3085.009061	28.800000
3086.209707	49.800000
3087.408663	41.800000
3088.604425	56.800000
3089.803016	42.200000
3090.998413	38.800000
3092.195133	44.800000
3093.388661	38.800000
3094.585017	52.200000
3095.779686	35.200000
3096.971165	26.600000
3098.166976	67.400000
3099.358092	31.600000
3100.550532	73.800000
3101.739784	45.400000
3102.931861	43.000000
3104.122255	37.800000
3105.309463	30.200000
3106.497993	38.800000
3107.687846	57.000000
3108.874515	37.600000
3110.061003	52.600000
3111.247313	38.200000
3112.434944	51.400000
3113.619393	56.000000
3114.802163	25.400000
3115.987755	66.200000
3117.171668	24.400000
3118.353902	40.600000
3119.535957	25.200000
3120.717834	45.600000
3121.899533	45.800000
3123.079555	26.000000
3124.257900	46.200000
3125.439065	46.600000
3126.617055	21.400000
3127.794868	41.800000
3128.972504	46.400000
3130.148466	52.200000
3131.324250	51.800000
3132.501356	23.200000
3133.676787	37.800000
3134.850545	57.200000
3136.022630	49.200000
3137.196037	65.000000
3138.369267	44.400000
3139.540826	49.200000
3140.713705	47.800000
3141.883417	35.400000
3143.054450	57.400000
3144.223813	41.000000
3145.391505	59.600000
3146.562013	40.600000
3147.727863	34.600000
3148.898021	26.200000
3150.063523	25.600000
3151.228850	56.200000
3152.394004	27.200000
3153.558985	47.800000
3154.725285	36.800000
3155.886933	26.600000
3157.049900	79.400000
3158.212695	25.800000
3159.375317	36.600000
3160.536273	47.200000
3161.697058	60.600000
3162.857670	47.000000
3164.016618	51.800000
3165.175395	56.200000
3166.333999	47.400000
3167.492432	33.200000
3168.650694	47.600000
3169.807293	37.800000
3170.962231	49.200000
3172.118488	46.200000
3173.273084	39.800000
3174.427510	52.800000
3175.580276	53.200000
3176.732871	21.400000
3177.885297	36.400000
3179.037553	27.200000
3180.189638	44.000000
3181.338577	44.800000
3182.490324	32.600000
3183.640412	52.800000
3184.788844	53.000000
3185.937106	34.400000
3187.085200	26.600000
3188.233125	37.400000
3189.379394	34.400000
3190.525495	49.800000
3191.669942	65.800000
3192.814221	32.000000
3193.958332	41.600000
3195.103760	63.400000
3196.246050	51.000000
3197.388173	32.000000
3198.530128	38.200000
3199.671916	32.600000
3200.813537	55.200000
3201.952023	49.800000
3203.091826	36.600000
3204.232946	55.000000
3205.370933	52.400000
3206.507270	35.000000
3207.643441	58.800000
3208.780929	37.000000
3209.916769	16.400000
3211.053926	36.000000
3212.186470	35.600000
3213.323296	35.000000
3214.455510	50.600000
3215.589041	45.800000
3216.722408	21.000000
3217.852647	46.200000
3218.985684	62.000000
3220.115595	35.800000
3221.246822	56.400000
3222.374925	45.000000
3223.505824	52.200000
3224.635079	52.200000
3225.762691	50.600000
3226.887180	33.800000
3228.015945	38.600000
3229.141588	31.200000
3230.267069	33.200000
3231.390907	45.400000
3232.517541	42.800000
3233.639577	40.400000
3234.762929	58.000000
3235.886119	53.800000
3237.009146	44.800000
3238.130535	41.200000
3239.251761	62.000000
3240.371350	59.600000
3241.490777	67.000000
3242.608566	40.600000
3243.729147	67.200000
3244.846615	67.000000
3245.963922	53.600000
3247.081069	46.800000
3248.196579	55.800000
3249.313405	41.200000
3250.427121	70.200000
3251.543626	34.200000
3252.658497	30.600000
3253.770258	57.600000
3254.881861	46.800000
3255.994779	49.000000
3257.107537	33.400000
3258.217189	46.200000
3259.328156	39.200000
3260.438964	36.000000
3261.548140	33.800000
3262.655685	25.800000
3263.764545	45.200000
3264.873247	15.000000
3265.978846	40.800000
3267.085759	54.400000
3268.191043	50.200000
3269.297641	26.200000
3270.401139	41.600000
3271.505952	30.600000
3272.610606	21.800000
3273.712163	25.800000
3274.813563	50.000000
3275.916277	7.400000
3277.018835	52.000000
3278.118296	33.200000
3279.220541	46.800000
3280.319690	56.200000
3281.417215	53.600000
3282.514584	28.000000
3283.614735	44.000000
3284.711794	43.200000
3285.808697	36.200000
3286.905445	20.000000
3287.997634	61.000000
3289.094073	23.400000
3290.188889	40.400000
3291.283551	26.600000
3292.376591	27.800000
3293.469476	19.200000
3294.560741	57.000000
3295.653319	37.000000
3296.744277	57.800000
3297.833615	33.200000
3298.922800	47.200000
3300.013298	14.600000
3301.100711	24.000000
3302.187971	17.400000
3303.276544	41.600000
3304.364964	47.200000
3305.448838	26.200000
3306.536953	45.400000
3307.621986	42.400000
3308.705404	63.400000
3309.790134	74.800000
3310.873248	55.400000
3311.957675	44.800000
3313.039023	34.600000
3314.121683	49.800000
3315.202729	63.000000
3316.283624	60.600000
3317.362905	27.400000
3318.442036	9.000000
3319.522479	53.000000
3320.599847	60.000000
3321.678527	34.800000
3322.755595	45.600000
3323.832514	48.200000
3324.907821	43.800000
3325.982979	34.800000
3327.059448	43.200000
3328.132847	24.200000
3329.206096	31.800000
3330.280657	42.800000
3331.353609	43.400000
3332.424952	29.800000
3333.497606	25.600000
3334.567194	49.200000
3335.638092	49.200000
3336.707383	20.000000
3337.777985	68.600000
3338.846980	53.200000
3339.914369	39.800000
3340.980153	53.400000
3342.050163	43.400000
3343.117110	49.400000
3344.180995	15.200000
3345.247647	54.400000
3346.312696	39.600000
3347.376141	59.200000
3348.439440	37.600000
3349.502592	39.400000
3350.565598	35.200000
3351.628458	27.000000
3352.689716	18.000000
3353.747917	31.400000
3354.810338	27.800000
3355.869704	26.200000
3356.928924	41.800000
3357.989453	48.000000
3359.045474	26.000000
3360.104258	41.000000
3361.158535	34.000000
3362.215576	25.000000
3363.271018	36.400000
3364.327770	41.000000
3365.382923	47.600000
3366.436479	40.600000
3367.488439	45.200000
3368.543160	42.800000
3369.594832	41.200000
3370.646361	22.600000
3371.699198	31.000000
3372.748988	17.600000
3373.800087	49.400000
3374.848140	42.000000
3375.898952	44.800000
3376.946720	44.000000
3377.994344	40.600000
3379.041827	37.600000
3380.087717	25.800000
3381.134915	26.000000
3382.179071	39.600000
3383.225985	23.800000
3384.271307	43.000000
3385.313588	48.000000
3386.355728	30.000000
3387.399177	52.000000
3388.442484	32.800000
3389.484201	28.000000
3390.525778	34.000000
3391.567213	20.200000
3392.607060	38.000000
3393.645318	22.000000
3394.684884	35.600000
3395.724310	35.400000
3396.762148	41.400000
3397.798399	48.800000
3398.834511	20.200000
3399.871930	8.000000
3400.906316	45.200000
3401.942009	27.800000
3402.977563	38.800000
3404.010086	49.200000
3405.045362	36.200000
3406.077607	43.000000
3407.109714	23.200000
3408.140237	24.600000
3409.172067	32.800000
3410.203759	47.600000
3411.232423	32.200000
3412.260950	55.800000
3413.290783	39.400000
3414.320479	37.600000
3415.347149	46.600000
3416.375125	28.600000
3417.400078	28.800000
3418.427780	18.400000
3419.452459	43.600000
3420.478444	5.000000
3421.502849	47.000000
3422.527118	44.400000
3423.549808	21.000000
3424.572362	31.800000
3425.596222	20.600000
3426.617062	21.400000
3427.637766	39.800000
3428.659777	42.400000
3429.678769	18.600000
3430.697625	71.000000
3431.717788	32.800000
3432.734934	23.000000
