-116.521679	-6.400000
-113.852079	-0.800000
-111.185414	-8.000000
-108.519501	-16.000000
-105.856521	14.400000
-103.192110	-3.200000
-100.530630	10.600000
-97.867721	-7.600000
-95.209918	13.200000
-92.550686	-20.800000
-89.892202	19.400000
-87.236643	26.800000
-84.579654	-19.400000
-81.927764	-4.400000
-79.274444	11.200000
-76.624043	4.400000
-73.972214	-4.200000
-71.325474	-28.600000
-68.677306	-6.200000
-66.029880	6.200000
-63.385369	2.200000
-60.739428	3.800000
-58.098569	-11.200000
-55.456281	21.200000
-52.816902	-1.400000
-50.176093	11.800000
-47.536025	-6.600000
-44.901030	7.800000
-42.264605	15.600000
-39.631083	0.200000
-36.996133	12.600000
-34.366248	0.800000
-31.732771	-12.400000
-29.104356	12.200000
-26.476675	11.200000
-23.847565	-2.800000
-21.223512	46.200000
-18.595870	35.600000
-15.973281	15.600000
-13.351424	56.000000
-10.730297	90.800000
-8.109901	190.600000
-5.492392	625.400000
-2.873455	1909.800000
-0.257403	5343.600000
2.357920	8990.800000
4.972515	6279.000000
7.584229	655.600000
10.197371	108.800000
12.805479	34.200000
15.417169	19.200000
18.023828	18.600000
20.631915	-7.800000
23.239278	1.000000
25.841616	48.400000
28.447532	10.200000
31.048426	25.800000
33.650748	15.800000
36.248053	-2.200000
38.848933	-9.000000
41.444798	-1.000000
44.042092	23.200000
46.638666	18.600000
49.230231	11.200000
51.823224	1.600000
54.413356	36.000000
57.004915	-3.200000
59.593616	1.600000
62.183743	16.600000
64.768871	-3.000000
67.355427	-3.000000
69.941269	-12.200000
72.524257	-9.800000
75.108671	8.400000
77.685957	17.800000
80.266809	-11.600000
82.844812	7.600000
85.422105	5.000000
88.000824	-8.200000
90.574561	-10.000000
93.149726	27.400000
95.722047	-7.000000
98.293660	21.800000
100.862433	-0.400000
103.432633	-21.000000
105.999994	5.200000
108.568782	-9.000000
111.134733	23.200000
113.697849	8.600000
116.264521	15.400000
118.821972	-3.600000
121.385108	-13.600000
123.943284	16.800000
126.505015	16.600000
129.061789	7.400000
131.619989	14.800000
134.173237	33.800000
136.725787	72.800000
139.281887	74.600000
141.833039	111.800000
144.383494	127.200000
146.933251	110.600000
149.480189	149.000000
152.026432	129.800000
154.574100	139.200000
157.121072	141.600000
159.663109	150.600000
162.204452	133.600000
164.745102	142.000000
167.287178	122.800000
169.826442	138.000000
172.362898	141.800000
174.898662	142.200000
177.435852	162.000000
179.972351	122.800000
182.506044	127.600000
185.036933	118.000000
187.567134	128.600000
190.098761	139.000000
192.627586	140.000000
195.153612	134.800000
197.678952	123.800000
200.205717	117.400000
202.729686	128.200000
205.252970	143.000000
207.775569	117.600000
210.295375	134.800000
212.814497	150.800000
215.332938	129.400000
217.852802	135.000000
220.365665	126.600000
222.882059	127.200000
225.397771	117.800000
227.908593	145.600000
230.420840	124.400000
232.930305	122.200000
235.439090	131.200000
237.947198	110.800000
240.456730	147.000000
242.961381	178.000000
245.465356	126.000000
247.970755	122.600000
250.471279	137.200000
252.975326	123.400000
255.472403	131.200000
257.973003	125.600000
260.470831	148.200000
262.967986	146.400000
265.464468	120.400000
267.956087	151.200000
270.451226	106.000000
272.943598	138.000000
275.435300	126.000000
277.924239	140.400000
280.414601	169.400000
282.902202	140.400000
285.387043	158.600000
287.875399	130.200000
290.356815	137.000000
292.841745	147.400000
295.321830	149.400000
297.805427	157.800000
300.284181	161.000000
302.764358	167.000000
305.241784	153.400000
307.718546	164.000000
310.194644	152.800000
312.667995	185.800000
315.140683	206.600000
317.612710	177.800000
320.084076	196.200000
322.552697	218.000000
325.020660	188.600000
327.490044	175.400000
329.954606	182.200000
332.422672	167.400000
334.885918	171.600000
337.348506	149.800000
339.810438	156.400000
342.271713	179.800000
344.730254	146.000000
347.190217	172.200000
349.647447	166.600000
352.104023	128.200000
354.559945	155.800000
357.013137	169.800000
359.467752	173.400000
361.917565	169.200000
364.370874	158.800000
366.819384	172.600000
369.267244	148.800000
371.716526	171.200000
374.161014	154.200000
376.606924	158.800000
379.052184	197.000000
381.494726	145.400000
383.936620	162.000000
386.377867	157.400000
388.816398	167.200000
391.256350	143.800000
393.693590	159.200000
396.128117	165.600000
398.566132	159.200000
400.999370	164.400000
403.434029	172.600000
405.863916	188.000000
408.297288	181.400000
410.725890	141.400000
413.153850	190.200000
415.583232	171.200000
418.007848	178.400000
420.433886	155.400000
422.859283	166.200000
425.284040	188.200000
427.704039	159.800000
430.125458	189.800000
432.544182	210.400000
434.964326	173.400000
437.381775	180.200000
439.800644	161.000000
442.216820	147.600000
444.628248	181.200000
447.043153	160.000000
449.455369	164.600000
451.866950	163.200000
454.277897	157.400000
456.686158	184.400000
459.093786	157.400000
461.500782	172.800000
463.907147	167.000000
466.310829	154.800000
468.713881	144.400000
471.116303	165.600000
473.518095	174.600000
475.917209	129.200000
478.317743	160.400000
480.717648	154.600000
483.112831	157.400000
485.511480	178.000000
487.905408	159.800000
490.298711	165.400000
492.691389	144.800000
495.083441	158.800000
497.476911	159.200000
499.865669	156.800000
502.251761	156.400000
504.639273	132.200000
507.026162	121.200000
509.410387	123.600000
511.796030	108.400000
514.179012	119.600000
516.559333	109.200000
518.941073	98.800000
521.320154	116.200000
523.700654	103.600000
526.078496	116.400000
528.453682	81.000000
530.828252	107.400000
533.204239	75.000000
535.577574	93.200000
537.952326	59.000000
540.322393	108.600000
542.691844	98.200000
545.062713	84.200000
547.428901	96.800000
549.796508	84.400000
552.161470	94.600000
554.525818	95.800000
556.889553	84.800000
559.254706	113.400000
561.615187	78.600000
563.977086	96.000000
566.336344	97.800000
568.692964	90.600000
571.053030	93.800000
573.406404	77.600000
575.763223	88.200000
578.117407	97.800000
580.470982	87.400000
582.823950	65.200000
585.174285	87.600000
587.526038	90.000000
589.871114	71.800000
592.221653	68.200000
594.565520	107.200000
596.914848	84.600000
599.259527	125.600000
601.601582	109.600000
603.945054	98.600000
606.285903	82.800000
608.626149	67.400000
610.963776	119.400000
613.304837	88.600000
615.641260	77.800000
617.979100	85.400000
620.314323	54.200000
622.646930	80.800000
624.980953	86.400000
627.312362	80.600000
629.643173	87.400000
631.973387	92.000000
634.303002	69.200000
636.627994	56.000000
638.958428	79.600000
641.284241	68.800000
643.607446	75.600000
645.932068	69.400000
648.254084	74.200000
650.575506	81.200000
652.894326	71.000000
655.214561	71.400000
657.534203	57.400000
659.851244	69.600000
662.167693	88.200000
664.481544	88.800000
666.796811	79.000000
669.109481	64.600000
671.423566	82.200000
673.733051	78.000000
676.043952	85.200000
678.352260	82.600000
680.659980	75.200000
682.969114	69.800000
685.273656	35.600000
687.577612	77.200000
689.880982	73.800000
692.185766	79.800000
694.485963	80.600000
696.787576	88.400000
699.088603	56.800000
701.385049	69.000000
703.682910	56.600000
705.980187	79.000000
708.276881	74.800000
710.568999	64.000000
712.864528	82.200000
715.155483	62.000000
717.447853	92.400000
719.737648	59.000000
722.026862	76.400000
724.315497	70.000000
726.601559	72.400000
728.889036	78.200000
731.173941	71.800000
733.458269	53.600000
735.740028	71.200000
738.023201	61.000000
740.305797	70.600000
742.583837	78.800000
744.863292	70.800000
747.142170	94.800000
749.420474	58.800000
751.694228	61.000000
753.969395	73.600000
756.243989	96.000000
758.516024	78.400000
760.789472	72.400000
763.060362	63.000000
765.328696	53.400000
767.598443	74.200000
769.865636	87.400000
772.132258	77.000000
774.398310	83.400000
776.661811	95.200000
778.926725	103.200000
781.191069	86.400000
783.450884	81.400000
785.712111	85.600000
787.972771	89.000000
790.230885	99.600000
792.486454	65.400000
794.745414	95.200000
796.997874	69.600000
799.255702	74.200000
801.509011	76.800000
803.759780	88.200000
806.011961	95.000000
808.261603	76.400000
810.512658	93.800000
812.759201	68.000000
815.007156	95.600000
817.252577	59.200000
819.499409	48.600000
821.745680	58.200000
823.987446	79.800000
826.232596	75.200000
828.471273	60.000000
830.713332	60.800000
832.950893	86.400000
835.189866	54.200000
837.426312	59.600000
839.664169	72.800000
841.899501	59.600000
844.132310	74.800000
846.366530	75.000000
848.598227	78.200000
850.829370	56.200000
853.059958	88.400000
855.289992	60.600000
857.519472	61.000000
859.744470	86.600000
861.972843	77.200000
864.196736	68.200000
866.422041	58.000000
868.642870	74.000000
870.867071	82.400000
873.086799	72.000000
875.307937	59.600000
877.528525	84.400000
879.746604	90.400000
881.966092	67.000000
884.181114	69.600000
886.395588	67.400000
888.609515	55.400000
890.822895	42.800000
893.035727	73.000000
895.248013	85.200000
897.457796	69.200000
899.667034	64.800000
901.875727	95.600000
904.081920	77.000000
906.289524	58.200000
908.494629	84.400000
910.699191	80.000000
912.901258	85.800000
915.104734	62.400000
917.305716	82.600000
919.506156	70.800000
921.708005	73.000000
923.903463	50.600000
926.102280	55.800000
928.296658	65.400000
930.494394	67.200000
932.687694	60.600000
934.882403	78.400000
937.074626	55.000000
939.266310	79.000000
941.457457	65.000000
943.646121	96.800000
945.834249	57.800000
948.019896	46.800000
950.208895	66.600000
952.393471	67.600000
954.577512	97.600000
956.764903	89.000000
958.943990	62.400000
961.126428	81.800000
963.308332	71.400000
965.487761	74.000000
967.664718	86.000000
969.843083	78.400000
972.022855	63.400000
974.196278	62.000000
976.373047	73.400000
978.545409	86.400000
980.719179	98.200000
982.888545	87.200000
985.061255	95.600000
987.231500	73.400000
989.401215	94.400000
991.570403	66.800000
993.735193	86.600000
995.903324	112.000000
998.067060	64.800000
1000.232204	83.600000
1002.394888	115.800000
1004.557047	96.600000
1006.716749	97.000000
1008.875926	84.000000
1011.036510	88.200000
1013.194639	111.400000
1015.352245	88.800000
1017.509327	127.200000
1019.665885	108.000000
1021.818064	104.600000
1023.971650	91.600000
1026.124714	98.400000
1028.275329	110.400000
1030.427351	103.200000
1032.574999	86.200000
1034.725979	74.600000
1036.872588	126.600000
1039.018678	91.400000
1041.164250	116.200000
1043.311227	107.400000
1045.451915	86.600000
1047.595933	104.400000
1049.737510	106.400000
1051.878571	114.400000
1054.021036	115.200000
1056.157221	117.600000
1058.296733	103.800000
1060.431890	93.000000
1062.570371	117.000000
1064.704498	115.200000
1066.838112	115.200000
1068.973130	98.400000
1071.103800	111.400000
1073.235874	101.800000
1075.365519	89.200000
1077.494652	119.000000
1079.623273	102.400000
1081.751383	103.200000
1083.877067	84.800000
1086.002241	110.600000
1088.128819	99.800000
1090.251059	91.400000
1092.374704	76.200000
1094.494014	105.600000
1096.618553	134.800000
1098.736848	88.000000
1100.856547	75.000000
1102.973827	92.200000
1105.090600	87.600000
1107.206868	91.600000
1109.320719	68.000000
1111.435975	93.200000
1113.546907	90.400000
1115.661152	90.000000
1117.771076	66.000000
1119.882404	72.800000
1121.993227	103.000000
1124.099734	89.800000
1126.209550	66.000000
1128.315053	77.000000
1130.421958	68.800000
1132.522648	103.200000
1134.628550	96.800000
1136.730143	70.800000
1138.833139	76.600000
1140.935634	95.600000
1143.031922	68.800000
1145.133417	86.400000
1147.230610	77.600000
1149.327305	86.400000
1151.423501	60.600000
1153.519199	95.600000
1155.614400	91.600000
1157.707204	98.200000
1159.801410	77.400000
1161.889425	77.400000
1163.982639	103.800000
1166.069664	95.800000
1168.159988	86.400000
1170.246024	88.000000
1172.335359	61.800000
1174.418512	51.400000
1176.503067	86.400000
1178.589024	91.000000
1180.670699	62.800000
1182.753775	72.200000
1184.834466	90.800000
1186.914666	73.800000
1188.994374	85.800000
1191.073591	113.600000
1193.150426	78.600000
1195.224879	68.200000
1197.302625	89.200000
1199.376101	71.800000
1201.450977	80.200000
1203.521586	92.200000
1205.593596	72.000000
1207.663231	79.600000
1209.734265	66.200000
1211.804813	78.200000
1213.871099	61.200000
1215.938786	72.000000
1218.004101	82.200000
1220.070816	78.000000
1222.133275	117.400000
1224.199019	38.200000
1226.260509	80.400000
1228.323400	77.600000
1230.383923	98.000000
1232.443962	76.400000
1234.503518	84.200000
1236.560710	83.000000
1238.617420	62.600000
1240.671766	73.400000
1242.729394	79.800000
1244.784659	74.200000
1246.835683	75.000000
1248.888107	84.000000
1250.940051	78.400000
1252.989637	57.200000
1255.038744	75.400000
1257.087372	63.200000
1259.135522	60.600000
1261.183194	60.400000
1263.226635	64.200000
1265.273352	77.000000
1267.317715	62.000000
1269.361602	84.600000
1271.403137	45.000000
1273.442323	49.200000
1275.484782	68.000000
1277.523018	89.800000
1279.562653	62.800000
1281.601813	30.800000
1283.636754	94.400000
1285.673094	67.000000
1287.707090	80.200000
1289.742483	67.400000
1291.773664	83.000000
1293.806242	76.000000
1295.838349	59.600000
1297.868115	78.400000
1299.899278	56.000000
1301.926235	59.000000
1303.954589	70.800000
1305.978738	72.000000
1308.006153	75.600000
1310.029365	64.600000
1312.053975	78.600000
1314.076251	75.800000
1316.099924	47.400000
1318.121263	72.200000
1320.142136	72.400000
1322.162541	83.400000
1324.178753	77.800000
1326.196362	66.600000
1328.211643	70.800000
1330.230183	77.600000
1332.244534	88.000000
1334.256558	71.200000
1336.271841	79.800000
1338.282938	58.400000
1340.295432	82.000000
1342.303743	108.400000
1344.315309	78.600000
1346.320837	69.200000
1348.329620	104.200000
1350.334225	54.600000
1352.342084	76.000000
1354.349481	62.800000
1356.350847	90.800000
1358.353609	71.600000
1360.355912	75.000000
1362.357755	51.400000
1364.359138	88.400000
1366.358208	61.800000
1368.356819	57.800000
1370.354971	61.600000
1372.352666	28.000000
1374.346198	64.800000
1376.341125	66.400000
1378.335596	49.800000
1380.329610	71.600000
1382.321317	75.000000
1384.312568	35.400000
1386.301514	59.200000
1388.291856	62.000000
1390.281742	39.400000
1392.269324	56.800000
1394.256453	51.800000
1396.241280	51.800000
1398.227502	52.400000
1400.211423	80.800000
1402.194892	72.200000
1404.177909	60.400000
1406.158628	78.800000
1408.140741	65.800000
1410.120558	60.200000
1412.099923	57.400000
1414.075150	61.000000
1416.053615	54.000000
1418.029787	56.800000
1420.005509	63.800000
1421.980783	68.000000
1423.953765	68.600000
1425.926299	69.600000
1427.898385	73.800000
1429.870024	78.600000
1431.837534	62.400000
1433.810118	73.800000
1435.774896	53.000000
1437.744747	83.600000
1439.710474	79.800000
1441.677593	61.800000
1443.642429	86.000000
1445.603145	56.200000
1447.568929	75.000000
1449.528758	63.000000
1451.489981	78.600000
1453.452595	41.600000
1455.411095	90.800000
1457.369153	82.600000
1459.326769	69.600000
1461.283942	62.800000
1463.238840	65.800000
1465.195131	98.200000
1467.149147	68.800000
1469.102722	70.400000
1471.054025	62.800000
1473.006721	88.200000
1474.957144	33.400000
1476.907129	38.200000
1478.856675	71.000000
1480.803952	58.200000
1482.748961	50.200000
1484.695363	79.000000
1486.641327	67.800000
1488.586854	76.600000
1490.530115	83.000000
1492.472941	94.400000
1494.413502	99.800000
1496.355456	54.000000
1498.295147	70.400000
1500.234403	64.200000
1502.173225	60.200000
1504.109787	80.200000
1506.047740	79.800000
1507.983434	96.400000
1509.918695	83.800000
1511.851699	69.200000
1513.784272	77.600000
1515.716412	81.200000
1517.648120	57.200000
1519.577574	87.200000
1521.508419	82.600000
1523.438832	72.600000
1525.365173	81.800000
1527.292904	91.400000
1529.218386	77.800000
1531.143438	87.400000
1533.068061	86.600000
1534.992254	116.400000
1536.914201	57.400000
1538.837538	79.200000
1540.758628	92.200000
1542.677474	93.000000
1544.597710	84.400000
1546.515703	101.600000
1548.433269	94.600000
1550.348593	111.200000
1552.265307	107.000000
1554.177966	125.600000
1556.093829	77.800000
1558.007452	136.000000
1559.918837	171.800000
1561.831612	160.200000
1563.740337	178.800000
1565.650451	189.600000
1567.560142	210.000000
1569.469410	276.200000
1571.376444	323.800000
1573.281245	389.400000
1575.187435	424.600000
1577.091393	470.400000
1578.994930	549.800000
1580.898047	618.400000
1582.798934	598.400000
1584.701210	566.200000
1586.601258	463.800000
1588.502693	418.000000
1590.400095	336.200000
1592.297078	313.800000
1594.193643	228.000000
1596.091595	233.200000
1597.983713	212.800000
1599.879025	148.000000
1601.773919	164.400000
1603.666591	127.800000
1605.558846	93.000000
1607.448882	92.800000
1609.338502	122.400000
1611.227707	116.800000
1613.116497	84.800000
1615.003069	102.800000
1616.891029	85.000000
1618.774972	80.000000
1620.660302	124.200000
1622.545219	91.600000
1624.427922	80.600000
1626.312012	88.600000
1628.192090	64.000000
1630.073556	100.600000
1631.952811	82.600000
1633.833452	81.400000
1635.708289	86.200000
1637.588107	62.000000
1639.463921	57.200000
1641.339324	76.200000
1643.216113	94.200000
1645.087106	102.400000
1646.961280	63.200000
1648.831455	49.000000
1650.704811	63.600000
1652.575964	44.800000
1654.444916	67.400000
1656.315252	60.200000
1658.181596	43.200000
1660.049325	80.200000
1661.914855	72.400000
1663.781771	94.000000
1665.644698	79.200000
1667.509010	84.200000
1669.371126	53.000000
1671.232837	67.800000
1673.095934	74.600000
1674.956835	71.200000
1676.815544	51.000000
1678.673849	61.200000
1680.533538	52.400000
1682.387461	77.000000
1684.244557	74.800000
1686.101249	69.800000
1687.953966	70.000000
1689.809854	65.400000
1691.661768	81.000000
1693.513281	58.600000
1695.364393	85.800000
1697.215105	60.000000
1699.065415	79.000000
1700.913542	63.400000
1702.763053	58.000000
1704.606814	59.800000
1706.455526	57.200000
1708.298491	75.600000
1710.144623	42.400000
1711.986792	44.400000
1713.832127	81.800000
1715.671721	46.000000
1717.512699	93.000000
1719.355060	49.200000
1721.193465	73.800000
1723.033253	79.000000
1724.870865	57.800000
1726.708083	90.000000
1728.543127	63.200000
1730.379554	48.800000
1732.213809	75.800000
1734.047669	72.400000
1735.881135	71.400000
1737.710656	52.000000
1739.543335	65.800000
1741.372070	66.600000
1743.203962	63.800000
1745.031912	57.800000
1746.859471	50.400000
1748.686637	100.200000
1750.513412	61.200000
1752.339795	69.800000
1754.162242	59.600000
1755.987844	64.200000
1757.809511	65.600000
1759.632560	77.600000
1761.453447	51.600000
1763.273946	74.200000
1765.095825	78.400000
1766.912006	95.600000
1768.731338	64.800000
1770.546742	49.600000
1772.365298	59.200000
1774.179928	59.400000
1775.994171	70.000000
1777.808028	61.200000
1779.621498	65.200000
1781.432815	68.600000
1783.245512	66.800000
1785.057824	69.000000
1786.866217	73.200000
1788.675992	55.400000
1790.481852	62.000000
1792.290857	69.200000
1794.095949	59.600000
1795.902422	66.800000
1797.708511	54.800000
1799.510689	63.800000
1801.316012	74.400000
1803.117426	80.000000
1804.920220	55.400000
1806.719108	65.000000
1808.519377	74.000000
1810.319264	63.000000
1812.117009	88.200000
1813.914374	61.600000
1815.711359	83.400000
1817.507963	66.600000
1819.302428	52.000000
1821.098272	36.400000
1822.888461	76.200000
1824.683547	83.200000
1826.472981	64.000000
1828.265551	67.600000
1830.055986	64.400000
1831.844287	65.800000
1833.635723	74.000000
1835.421513	61.400000
1837.208683	53.000000
1838.993721	54.000000
1840.781893	69.800000
1842.566179	73.400000
1844.348335	48.600000
1846.131871	63.200000
1847.913278	68.600000
1849.696064	48.200000
1851.474969	77.400000
1853.255253	62.200000
1855.033412	59.800000
1856.812949	59.800000
1858.590360	83.000000
1860.365649	58.800000
1862.142315	65.400000
1863.916859	50.600000
1865.692781	79.400000
1867.463082	42.400000
1869.236511	59.400000
1871.007820	79.200000
1872.778758	47.800000
1874.551074	65.200000
1876.317776	80.200000
1878.087603	95.400000
1879.853567	44.200000
1881.622655	85.400000
1883.387881	74.800000
1885.152739	76.400000
1886.918974	79.800000
1888.681350	65.000000
1890.443358	76.400000
1892.205000	55.000000
1893.966275	59.000000
1895.727182	75.400000
1897.487723	53.800000
1899.246154	52.000000
1901.004219	63.000000
1902.760177	79.000000
1904.517511	61.200000
1906.274480	76.000000
1908.029342	68.200000
1909.782100	73.600000
1911.534493	55.600000
1913.288263	54.800000
1915.039929	68.400000
1916.789493	71.000000
1918.540432	47.200000
1920.291009	64.200000
1922.037746	49.600000
1923.785860	76.400000
1925.531874	65.800000
1927.279263	62.000000
1929.024555	53.000000
1930.767749	53.000000
1932.512318	62.200000
1934.254791	82.400000
1935.996905	72.600000
1937.738658	67.200000
1939.480051	62.200000
1941.219351	67.000000
1942.958292	52.200000
1944.696874	72.800000
1946.433365	62.200000
1948.169498	68.000000
1949.907005	73.800000
1951.640690	45.600000
1953.375750	53.800000
1955.108721	74.400000
1956.841336	71.800000
1958.573595	66.000000
1960.305497	67.600000
1962.035313	83.000000
1963.763044	59.400000
1965.492150	48.600000
1967.220900	52.800000
1968.947568	55.400000
1970.673881	79.600000
1972.401567	60.000000
1974.123717	60.200000
1975.848968	60.400000
1977.570412	70.800000
1979.294957	63.800000
1981.017421	65.200000
1982.736083	60.000000
1984.457843	67.000000
1986.175801	65.400000
1987.895132	65.600000
1989.610664	63.600000
1991.331016	63.800000
1993.047570	52.000000
1994.760327	56.000000
1996.476180	97.600000
1998.189961	62.200000
1999.903392	65.000000
2001.614752	73.600000
2003.327484	93.200000
2005.036426	66.000000
2006.748460	57.000000
2008.454985	64.800000
2010.164603	59.000000
2011.872154	64.200000
2013.579356	86.600000
2015.284493	68.600000
2016.989284	51.400000
2018.695446	54.600000
2020.397826	93.000000
2022.101577	85.400000
2023.803266	56.000000
2025.504609	60.600000
2027.205608	88.000000
2028.904545	62.600000
2030.604854	97.400000
2032.301387	68.200000
2033.999292	76.400000
2035.695139	70.800000
2037.394071	66.400000
2039.087517	75.000000
2040.782334	72.400000
2042.476809	68.800000
2044.167515	68.400000
2045.861305	100.600000
2047.551328	46.400000
2049.242722	88.600000
2050.932063	70.400000
2052.622774	58.600000
2054.309722	57.800000
2055.996331	59.000000
2057.684309	82.200000
2059.368528	52.600000
2061.054118	67.200000
2062.739368	74.600000
2064.422569	64.000000
2066.107141	100.800000
2067.786249	85.400000
2069.470144	49.600000
2071.148577	86.000000
2072.830088	49.200000
2074.507847	60.000000
2076.185270	40.800000
2077.864062	63.000000
2079.540812	62.600000
2081.215519	80.800000
2082.891597	60.000000
2084.565633	71.400000
2086.239335	79.200000
2087.912701	57.600000
2089.584028	80.000000
2091.255021	87.000000
2092.925680	48.400000
2094.596005	69.400000
2096.265996	67.400000
2097.933951	68.000000
2099.601573	63.800000
2101.267160	49.600000
2102.934116	62.200000
2104.599039	71.400000
2106.263630	88.600000
2107.926189	46.600000
2109.590116	64.000000
2111.252012	47.400000
2112.913578	82.600000
2114.574812	72.400000
2116.234018	44.000000
2117.892893	79.000000
2119.551439	59.200000
2121.209654	69.000000
2122.864147	57.800000
2124.521704	65.000000
2126.178931	53.200000
2127.832438	82.000000
2129.487312	67.000000
2131.138467	69.200000
2132.792685	68.200000
2134.443185	81.800000
2136.095053	63.000000
2137.741512	75.200000
2139.392726	59.600000
2141.040226	78.600000
2142.689093	77.200000
2144.335941	63.400000
2145.982464	62.400000
2147.628661	66.600000
2149.271150	65.400000
2150.916697	65.000000
2152.558537	71.200000
2154.203434	71.800000
2155.844625	60.200000
2157.485494	82.400000
2159.126038	88.600000
2160.764570	66.800000
2162.404468	77.200000
2164.040666	47.600000
2165.678230	47.800000
2167.315472	67.400000
2168.950704	76.000000
2170.585614	67.000000
2172.220203	75.600000
2173.854471	49.200000
2175.485045	72.800000
2177.118671	51.800000
2178.748605	89.800000
2180.379904	82.800000
2182.009198	57.200000
2183.638173	58.800000
2185.266828	62.200000
2186.895164	65.200000
2188.521498	72.000000
2190.147513	84.200000
2191.771526	73.000000
2193.396905	79.800000
2195.020283	67.400000
2196.645026	77.200000
2198.266088	80.600000
2199.886833	52.000000
2201.508942	43.200000
2203.129054	73.600000
2204.747170	62.200000
2206.364970	38.600000
2207.982455	48.400000
2209.599624	69.800000
2211.216478	51.200000
2212.833016	70.800000
2214.447562	65.200000
2216.060115	44.600000
2217.674032	91.200000
2219.285958	50.000000
2220.899247	100.400000
2222.510546	70.200000
2224.119855	64.600000
2225.730528	49.800000
2227.339212	78.400000
2228.947583	67.200000
2230.553968	58.600000
2232.161715	38.800000
2233.767477	61.800000
2235.372927	55.600000
2236.976392	63.000000
2238.581220	58.400000
2240.184064	67.200000
2241.784925	70.800000
2243.387149	66.200000
2244.987391	63.000000
2246.588995	36.000000
2248.186946	57.400000
2249.786260	47.600000
2251.383594	70.000000
2252.980620	64.600000
2254.579008	53.800000
2256.173747	73.600000
2257.766509	97.600000
2259.360634	51.600000
2260.956120	54.400000
2262.547961	65.600000
2264.139496	64.400000
2265.732393	39.800000
2267.319980	79.400000
2268.912263	59.600000
2270.499240	67.600000
2272.089244	42.400000
2273.673944	75.600000
2275.263338	34.600000
2276.847430	58.800000
2278.432882	55.200000
2280.016366	65.200000
2281.602875	55.800000
2283.185751	65.000000
2284.768324	54.000000
2286.350593	82.600000
2287.929232	67.000000
2289.510896	45.200000
2291.088931	55.000000
2292.669989	62.400000
2294.247420	57.900000
2295.822888	53.400000
2297.401378	52.600000
2298.976244	47.400000
2300.550809	43.200000
2302.125073	70.000000
2303.699038	53.400000
2305.272701	72.400000
2306.846065	45.600000
2308.415810	52.200000
2309.985256	49.600000
2311.557720	63.800000
2313.124910	40.200000
2314.695118	58.800000
2316.261711	73.200000
2317.829664	74.000000
2319.395661	57.000000
2320.961361	52.200000
2322.526763	72.200000
2324.090212	39.800000
2325.655020	87.800000
2327.216220	71.600000
2328.780434	49.800000
2330.339386	64.200000
2331.901352	79.200000
2333.461368	63.600000
2335.021089	54.400000
2336.578860	74.000000
2338.136336	72.600000
2339.693518	53.400000
2341.248752	68.200000
2342.803693	54.600000
2344.358339	51.400000
2345.912692	66.400000
2347.466751	59.000000
2349.020517	71.800000
2350.572338	37.200000
2352.122217	54.000000
2353.675103	52.800000
2355.222746	50.400000
2356.773398	55.600000
2358.320458	85.000000
2359.868876	67.000000
2361.417003	68.400000
2362.961541	68.600000
2364.507437	58.200000
2366.051395	45.400000
2367.596709	45.200000
2369.138440	58.000000
2370.681527	55.800000
2372.222678	73.200000
2373.763540	58.000000
2375.304113	72.000000
2376.844397	72.200000
2378.384392	51.400000
2379.920809	51.600000
2381.460227	58.200000
2382.996067	55.800000
2384.533265	54.600000
2386.066887	81.600000
2387.603509	60.800000
2389.138201	66.600000
2390.670963	68.200000
2392.203438	48.000000
2393.733985	54.400000
2395.267530	56.600000
2396.795864	62.600000
2398.325554	46.200000
2399.854959	55.200000
2401.384079	80.400000
2402.912913	64.400000
2404.436543	59.000000
2405.964808	93.000000
2407.487871	66.200000
2409.015567	74.800000
2410.536424	62.800000
2412.061913	47.600000
2413.583843	41.800000
2415.107127	81.000000
2416.628491	55.800000
2418.147935	72.800000
2419.668734	70.000000
2421.187614	61.200000
2422.706213	71.400000
2424.222894	72.000000
2425.740929	57.000000
2427.258683	50.400000
2428.772885	79.400000
2430.286808	76.400000
2431.800450	62.000000
2433.315447	58.400000
2434.826895	60.800000
2436.339697	67.200000
2437.850587	77.600000
2439.361198	46.000000
2440.869897	66.800000
2442.381582	89.200000
2443.889724	57.600000
2445.397588	71.600000
2446.905174	78.800000
2448.409219	62.800000
2449.916249	70.400000
2451.421371	64.000000
2452.926216	60.800000
2454.429154	50.400000
2455.931816	60.400000
2457.434201	55.000000
2458.934681	72.000000
2460.436514	88.400000
2461.936442	56.800000
2463.436095	72.800000
2464.935473	89.000000
2466.432948	84.400000
2467.928521	78.200000
2469.427074	89.000000
2470.922099	90.600000
2472.418476	65.000000
2473.911327	57.400000
2475.405531	84.200000
2476.899461	67.000000
2478.389867	74.200000
2479.883251	71.800000
2481.374737	63.400000
2482.864326	81.400000
2484.353643	75.400000
2485.841064	48.600000
2487.331461	55.400000
2488.818340	49.800000
2490.306570	48.000000
2491.791283	74.600000
2493.275727	71.000000
2494.761521	48.000000
2496.245424	50.200000
2497.730677	49.200000
2499.210797	68.600000
2500.693890	47.600000
2502.175092	75.000000
2503.656025	65.200000
2505.135069	53.800000
2506.613844	79.800000
2508.092351	59.400000
2509.570590	67.400000
2511.048560	56.600000
2512.523025	69.000000
2514.000460	61.800000
2515.474391	51.400000
2516.949672	51.800000
2518.424686	56.200000
2519.896199	64.600000
2521.369063	53.400000
2522.840044	57.600000
2524.312375	59.400000
2525.779592	67.800000
2527.249776	55.000000
2528.718079	53.000000
2530.186117	72.800000
2531.653890	55.600000
2533.121398	74.400000
2534.588641	63.200000
2536.052392	42.400000
2537.517493	65.200000
2538.980717	41.400000
2540.445290	62.000000
2541.906375	72.600000
2543.368809	59.400000
2544.830980	72.200000
2546.289665	70.600000
2547.752921	57.400000
2549.211082	72.600000
2550.670591	66.600000
2552.125006	56.200000
2553.583992	83.000000
2555.041106	94.400000
2556.496348	61.000000
2557.951330	73.000000
2559.404443	60.400000
2560.858903	57.000000
2562.311495	77.600000
2563.763827	46.800000
2565.214292	75.200000
2566.667712	59.400000
2568.116050	61.400000
2569.567343	62.200000
2571.016771	64.400000
2572.462726	62.200000
2573.911636	72.400000
2575.357076	45.000000
2576.803863	82.800000
2578.248787	96.200000
2579.693454	72.200000
2581.139468	41.400000
2582.582016	63.000000
2584.025911	67.000000
2585.466340	60.600000
2586.908118	66.400000
2588.348036	63.000000
2589.789301	59.800000
2591.227104	49.400000
2592.667857	65.800000
2594.103548	62.000000
2595.542188	77.000000
2596.978970	64.800000
2598.413897	80.000000
2599.851771	65.600000
2601.284588	79.200000
2602.718752	86.000000
2604.151062	54.600000
2605.584718	69.200000
2607.016521	52.000000
2608.448070	71.600000
2609.879367	74.400000
2611.308811	91.400000
2612.738003	52.400000
2614.165345	80.600000
2615.594032	63.400000
2617.022468	73.400000
2618.447456	52.000000
2619.873791	81.800000
2621.298277	51.000000
2622.724109	72.400000
2624.146497	96.600000
2625.570231	75.600000
2626.992118	67.400000
2628.413756	75.600000
2629.833548	49.000000
2631.254686	68.000000
2632.675574	59.400000
2634.093023	75.800000
2635.513413	64.000000
2636.930365	83.400000
2638.347068	96.200000
2639.763523	69.600000
2641.179730	54.600000
2642.595689	77.600000
2644.009807	85.400000
2645.423677	108.000000
2646.835709	101.000000
2648.249084	77.600000
2649.659030	78.400000
2651.071912	85.800000
2652.481365	94.200000
2653.890572	112.200000
2655.297943	97.000000
2656.708248	110.400000
2658.116718	132.000000
2659.523352	98.400000
2660.929741	108.000000
2662.334296	114.000000
2663.740195	101.200000
2665.144261	119.400000
2666.548082	88.200000
2667.951659	112.600000
2669.353405	140.200000
2670.756494	125.400000
2672.156165	126.200000
2673.557180	116.400000
2674.954779	153.200000
2676.355307	127.200000
2677.752421	126.800000
2679.150878	130.400000
2680.547508	162.600000
2681.943895	144.200000
2683.340040	135.600000
2684.734359	154.800000
2686.130021	162.200000
2687.522274	147.200000
2688.915869	154.000000
2690.307640	171.600000
2691.700754	158.200000
2693.092044	134.600000
2694.481511	159.400000
2695.870738	151.600000
2697.259726	156.800000
2698.650055	156.000000
2700.035401	125.800000
2701.423670	161.000000
2702.810119	182.200000
2704.196329	145.200000
2705.582300	195.200000
2706.964873	186.000000
2708.348788	185.800000
2709.732465	169.400000
2711.115903	171.200000
2712.495946	194.800000
2713.877331	185.800000
2715.256901	176.800000
2716.637811	179.000000
2718.016907	224.200000
2719.394189	190.200000
2720.772812	198.800000
2722.149621	216.400000
2723.526195	162.000000
2724.902533	187.200000
2726.277060	174.000000
2727.652927	170.000000
2729.025407	165.200000
2730.400803	170.800000
2731.771239	178.000000
2733.143016	162.800000
2734.514558	172.400000
2735.884292	143.600000
2737.255367	120.800000
2738.624633	135.200000
2739.993666	136.800000
2741.360893	123.400000
2742.727886	125.600000
2744.094647	137.800000
2745.461176	105.800000
2746.825899	127.600000
2748.190390	91.400000
2749.554650	92.800000
2750.918677	78.800000
2752.282473	78.400000
2753.642895	106.400000
2755.006227	91.000000
2756.364617	99.000000
2757.725917	73.400000
2759.083847	87.400000
2760.444685	94.600000
2761.803724	76.600000
2763.159394	65.400000
2764.517972	60.200000
2765.873183	54.200000
2767.228165	69.000000
2768.581350	73.400000
2769.937442	56.200000
2771.290170	62.400000
2772.642670	64.600000
2773.994941	70.000000
2775.348550	52.600000
2776.698799	59.400000
2778.047253	87.000000
2779.398612	55.200000
2780.746613	67.400000
2782.095951	57.200000
2783.443497	69.400000
2784.790817	56.400000
2786.137910	64.400000
2787.483211	44.400000
2788.828287	39.800000
2790.173137	62.200000
2791.517761	49.400000
2792.859033	43.000000
2794.201643	62.600000
2795.544027	73.000000
2796.886186	57.400000
2798.224996	75.000000
2799.566706	53.800000
2800.905067	67.600000
2802.244766	67.400000
2803.582680	65.200000
2804.918809	64.000000
2806.254714	61.000000
2807.591957	70.400000
2808.927416	44.800000
2810.262652	41.400000
2811.596105	78.800000
2812.930895	57.200000
2814.262345	95.200000
2815.596690	51.800000
2816.926137	53.200000
2818.256920	50.400000
2819.587483	62.400000
2820.916266	58.800000
2822.246385	50.200000
2823.574726	66.200000
2824.902846	50.200000
2826.229188	81.000000
2827.556867	61.800000
2828.881212	41.000000
2830.206894	59.600000
2831.530800	61.400000
2832.854486	59.600000
2834.179509	13.800000
2835.501201	63.400000
2836.822675	33.000000
2838.143930	59.400000
2839.464966	51.800000
2840.784229	61.000000
2842.104828	73.400000
2843.423656	87.600000
2844.742265	51.200000
2846.059103	57.000000
2847.375724	63.000000
2848.692128	54.400000
2850.006762	58.200000
2851.322732	57.600000
2852.635381	58.000000
2853.949365	58.000000
2855.263133	81.800000
2856.576684	65.400000
2857.888469	46.600000
2859.198487	57.200000
2860.509840	47.400000
2861.817878	37.200000
2863.127250	57.600000
2864.436408	49.400000
2865.745350	45.200000
2867.052528	41.800000
2868.357944	65.800000
2869.664693	53.400000
2870.969681	76.200000
2872.274454	21.200000
2873.577467	55.200000
2874.883360	74.200000
2876.184399	61.200000
2877.486772	84.600000
2878.787385	32.600000
2880.089332	61.600000
2881.391065	73.000000
2882.689495	40.400000
2883.989258	60.800000
2885.287264	49.200000
2886.585058	66.800000
2887.881096	70.400000
2889.178467	49.800000
2890.474082	42.800000
2891.769486	41.800000
2893.064679	59.000000
2894.356575	45.400000
2895.651347	58.800000
2896.942822	47.800000
2898.235630	59.600000
2899.528228	50.600000
2900.817532	72.000000
2902.108168	69.600000
2903.397053	45.400000
2904.687270	47.400000
2905.974196	36.400000
2907.262454	67.400000
2908.548963	42.200000
2909.835263	50.600000
2911.121356	52.000000
2912.405700	52.600000
2913.692915	51.200000
2914.975304	43.800000
2916.259025	39.000000
2917.541000	45.200000
2918.822767	48.200000
2920.102789	51.200000
2921.385682	44.600000
2922.666829	64.000000
2923.944694	43.200000
2925.225428	85.800000
2926.502881	38.800000
2927.780128	42.800000
2929.055633	60.000000
2930.334006	42.600000
2931.607565	51.400000
2932.883991	56.400000
2934.158676	59.800000
2935.431620	11.800000
2936.705896	47.400000
2937.978432	36.400000
2939.250763	24.000000
2940.519822	73.400000
2941.791746	57.600000
2943.061932	71.600000
2944.331914	46.200000
2945.601693	59.000000
2946.869736	33.800000
2948.136042	41.600000
2949.402147	52.000000
2950.669581	50.000000
2951.935280	45.000000
2953.200778	32.200000
2954.466073	46.600000
2955.728103	1.000000
2956.991463	55.200000
2958.254622	56.400000
2959.516049	57.200000
2960.778805	59.400000
2962.039829	37.400000
2963.299123	69.400000
2964.558217	54.400000
2965.817110	48.400000
2967.075803	51.600000
2968.334296	38.600000
2969.591060	73.000000
2970.847624	53.800000
2972.102460	35.400000
2973.358626	48.800000
2974.611537	45.200000
2975.865777	86.400000
2977.119817	53.600000
2978.372132	61.200000
2979.624249	42.400000
2980.874641	51.600000
2982.127888	34.400000
2983.376358	58.200000
2984.627683	50.000000
2985.875758	40.000000
2987.123636	44.000000
2988.371318	60.800000
2989.618802	46.000000
2990.864565	37.200000
2992.110132	41.600000
2993.357026	34.800000
2994.600676	44.000000
2995.845654	40.400000
2997.087388	40.800000
2998.331974	60.000000
2999.574841	37.400000
3000.814467	35.600000
3002.056943	20.800000
3003.296179	49.600000
3004.536743	49.000000
3005.775590	37.400000
3007.014243	61.400000
3008.251180	41.400000
3009.489445	32.600000
3010.725994	56.400000
3011.962350	62.600000
3013.198512	56.200000
3014.432960	33.600000
3015.667216	43.000000
3016.901278	35.000000
3018.133627	44.200000
3019.364266	70.600000
3020.597750	31.800000
3021.829522	50.200000
3023.059584	62.600000
3024.289453	63.800000
3025.517613	50.600000
3026.747100	49.600000
3027.974877	64.200000
3029.202463	47.800000
3030.431375	50.800000
3031.655546	39.600000
3032.882559	46.800000
3034.106348	43.600000
3035.331464	64.600000
3036.554873	35.800000
3037.778092	21.600000
3038.999606	54.600000
3040.223961	50.600000
3041.443581	32.600000
3042.664527	51.800000
3043.885284	43.800000
3045.104337	39.200000
3046.324715	26.200000
3047.541877	52.600000
3048.760365	37.000000
3049.977150	35.400000
3051.193748	38.600000
3052.410157	52.600000
3053.623353	37.600000
3054.839388	63.800000
3056.052210	42.600000
3057.267869	29.800000
3058.478805	43.200000
3059.691066	46.400000
3060.903140	45.800000
3062.115028	36.400000
3063.325219	36.400000
3064.535223	48.200000
3065.745041	33.400000
3066.953163	55.000000
3068.161100	41.200000
3069.367341	37.800000
3070.574907	54.200000
3071.780778	44.000000
3072.986465	33.800000
3074.191966	51.800000
3075.395774	48.400000
3076.600906	22.600000
3077.804345	26.600000
3079.006093	35.400000
3080.207656	63.600000
3081.409036	54.600000
3082.610232	54.200000
3083.809738	42.400000
3085.009061	48.000000
3086.209707	52.800000
3087.408663	50.600000
3088.604425	50.200000
3089.803016	51.800000
3090.998413	28.200000
3092.195133	38.400000
3093.388661	65.600000
3094.585017	30.800000
3095.779686	29.800000
3096.971165	31.000000
3098.166976	44.200000
3099.358092	19.800000
3100.550532	39.800000
3101.739784	59.000000
3102.931861	41.400000
3104.122255	53.800000
3105.309463	34.400000
3106.497993	42.000000
3107.687846	25.800000
3108.874515	28.600000
3110.061003	55.400000
3111.247313	32.400000
3112.434944	52.800000
3113.619393	12.800000
3114.802163	22.400000
3115.987755	23.200000
3117.171668	49.800000
3118.353902	37.200000
3119.535957	19.600000
3120.717834	48.800000
3121.899533	47.200000
3123.079555	63.600000
3124.257900	60.000000
3125.439065	42.600000
3126.617055	36.200000
3127.794868	34.200000
3128.972504	56.600000
3130.148466	44.200000
3131.324250	28.000000
3132.501356	38.800000
3133.676787	57.000000
3134.850545	58.000000
3136.022630	26.800000
3137.196037	57.600000
3138.369267	40.000000
3139.540826	41.600000
3140.713705	38.200000
3141.883417	42.600000
3143.054450	46.400000
3144.223813	47.400000
3145.391505	17.000000
3146.562013	29.600000
3147.727863	62.600000
3148.898021	41.800000
3150.063523	29.000000
3151.228850	24.400000
3152.394004	37.200000
3153.558985	40.000000
3154.725285	55.000000
3155.886933	43.400000
3157.049900	30.000000
3158.212695	45.600000
3159.375317	24.600000
3160.536273	74.600000
3161.697058	32.600000
3162.857670	38.400000
3164.016618	15.800000
3165.175395	39.400000
3166.333999	46.000000
3167.492432	33.600000
3168.650694	36.600000
3169.807293	49.400000
3170.962231	57.400000
3172.118488	51.800000
3173.273084	35.400000
3174.427510	55.400000
3175.580276	8.000000
3176.732871	47.600000
3177.885297	22.400000
3179.037553	40.400000
3180.189638	29.600000
3181.338577	47.200000
3182.490324	28.600000
3183.640412	52.000000
3184.788844	45.400000
3185.937106	51.600000
3187.085200	46.400000
3188.233125	36.400000
3189.379394	37.000000
3190.525495	30.600000
3191.669942	37.400000
3192.814221	44.400000
3193.958332	20.600000
3195.103760	64.400000
3196.246050	46.000000
3197.388173	38.600000
3198.530128	60.200000
3199.671916	32.200000
3200.813537	44.800000
3201.952023	31.600000
3203.091826	46.400000
3204.232946	48.600000
3205.370933	45.400000
3206.507270	34.600000
3207.643441	22.800000
3208.780929	35.800000
3209.916769	24.800000
3211.053926	42.800000
3212.186470	42.200000
3213.323296	34.000000
3214.455510	31.200000
3215.589041	56.400000
3216.722408	50.400000
3217.852647	31.600000
3218.985684	33.400000
3220.115595	50.400000
3221.246822	36.600000
3222.374925	45.000000
3223.505824	40.400000
3224.635079	46.800000
3225.762691	15.600000
3226.887180	34.400000
3228.015945	34.800000
3229.141588	53.600000
3230.267069	34.000000
3231.390907	35.600000
3232.517541	41.600000
3233.639577	42.600000
3234.762929	30.000000
3235.886119	53.000000
3237.009146	50.200000
3238.130535	51.800000
3239.251761	51.000000
3240.371350	45.200000
3241.490777	40.600000
3242.608566	40.200000
3243.729147	50.000000
3244.846615	48.200000
3245.963922	46.800000
3247.081069	71.400000
3248.196579	71.800000
3249.313405	33.600000
3250.427121	70.800000
3251.543626	38.600000
3252.658497	51.800000
3253.770258	24.200000
3254.881861	51.000000
3255.994779	41.400000
3257.107537	80.200000
3258.217189	29.200000
3259.328156	45.800000
3260.438964	22.800000
3261.548140	51.800000
3262.655685	34.400000
3263.764545	51.400000
3264.873247	61.200000
3265.978846	35.000000
3267.085759	27.400000
3268.191043	33.800000
3269.297641	39.800000
3270.401139	36.800000
3271.505952	20.000000
3272.610606	52.200000
3273.712163	39.800000
3274.813563	45.600000
3275.916277	29.800000
3277.018835	45.600000
3278.118296	78.800000
3279.220541	30.200000
3280.319690	23.400000
3281.417215	15.400000
3282.514584	30.800000
3283.614735	45.400000
3284.711794	33.200000
3285.808697	53.600000
3286.905445	1.200000
3287.997634	23.600000
3289.094073	52.400000
3290.188889	55.200000
3291.283551	45.000000
3292.376591	30.400000
3293.469476	19.400000
3294.560741	26.000000
3295.653319	6.400000
3296.744277	33.000000
3297.833615	32.000000
3298.922800	18.200000
3300.013298	31.800000
3301.100711	45.200000
3302.187971	35.400000
3303.276544	47.400000
3304.364964	21.200000
3305.448838	30.000000
3306.536953	37.600000
3307.621986	51.400000
3308.705404	52.000000
3309.790134	46.600000
3310.873248	41.600000
3311.957675	32.600000
3313.039023	51.000000
3314.121683	16.600000
3315.202729	22.000000
3316.283624	47.400000
3317.362905	58.400000
3318.442036	27.200000
3319.522479	26.600000
3320.599847	47.000000
3321.678527	27.400000
3322.755595	37.600000
3323.832514	43.000000
3324.907821	71.800000
3325.982979	24.600000
3327.059448	28.200000
3328.132847	41.000000
3329.206096	35.600000
3330.280657	32.000000
3331.353609	41.200000
3332.424952	23.000000
3333.497606	54.000000
3334.567194	54.000000
3335.638092	57.600000
3336.707383	35.400000
3337.777985	45.600000
3338.846980	38.800000
3339.914369	61.800000
3340.980153	16.800000
3342.050163	49.400000
3343.117110	38.600000
3344.180995	29.600000
3345.247647	30.000000
3346.312696	17.600000
3347.376141	27.400000
3348.439440	54.200000
3349.502592	33.600000
3350.565598	28.200000
3351.628458	41.000000
3352.689716	16.400000
3353.747917	21.200000
3354.810338	46.800000
3355.869704	41.200000
3356.928924	45.800000
3357.989453	20.600000
3359.045474	34.400000
3360.104258	34.800000
3361.158535	41.800000
3362.215576	28.600000
3363.271018	21.400000
3364.327770	46.200000
3365.382923	37.200000
3366.436479	26.200000
3367.488439	29.000000
3368.543160	20.400000
3369.594832	61.200000
3370.646361	34.000000
3371.699198	42.000000
3372.748988	45.000000
3373.800087	32.200000
3374.848140	22.600000
3375.898952	37.800000
3376.946720	17.600000
3377.994344	20.800000
3379.041827	48.200000
3380.087717	38.400000
3381.134915	61.600000
3382.179071	22.200000
3383.225985	4.400000
3384.271307	38.600000
3385.313588	49.200000
3386.355728	46.400000
3387.399177	27.000000
3388.442484	41.200000
3389.484201	46.200000
3390.525778	26.600000
3391.567213	20.600000
3392.607060	26.000000
3393.645318	41.200000
3394.684884	42.200000
3395.724310	43.600000
3396.762148	26.400000
3397.798399	34.000000
3398.834511	29.800000
3399.871930	16.800000
3400.906316	27.600000
3401.942009	18.600000
3402.977563	57.800000
3404.010086	25.400000
3405.045362	57.400000
3406.077607	33.800000
3407.109714	28.400000
3408.140237	22.000000
3409.172067	26.200000
3410.203759	24.600000
3411.232423	46.600000
3412.260950	43.200000
3413.290783	17.400000
3414.320479	29.200000
3415.347149	28.800000
3416.375125	27.200000
3417.400078	25.000000
3418.427780	39.800000
3419.452459	39.000000
3420.478444	33.600000
3421.502849	28.400000
3422.527118	51.000000
3423.549808	8.200000
3424.572362	44.200000
3425.596222	26.400000
3426.617062	18.800000
3427.637766	26.200000
3428.659777	47.800000
3429.678769	23.200000
3430.697625	39.200000
3431.717788	35.400000
3432.734934	27.200000
