-118.301883	-20.400000
-115.632283	16.700000
-112.965618	12.100000
-110.299705	3.100000
-107.636724	-18.000000
-104.972314	14.300000
-102.310834	1.200000
-99.647924	2.900000
-96.990122	-4.900000
-94.330889	3.500000
-91.672405	-4.300000
-89.016846	5.000000
-86.359858	-14.900000
-83.707967	6.300000
-81.054647	18.500000
-78.404247	-2.400000
-75.752417	-1.300000
-73.105678	-2.800000
-70.457509	8.500000
-67.810084	11.000000
-65.165572	-5.600000
-62.519632	9.500000
-59.878773	-22.300000
-57.236484	-6.500000
-54.597105	0.300000
-51.956297	-8.300000
-49.316229	-8.600000
-46.681233	-4.800000
-44.044808	8.200000
-41.411287	0.500000
-38.776337	18.500000
-36.146452	11.700000
-33.512975	2.500000
-30.884560	16.100000
-28.256878	7.700000
-25.627769	17.400000
-23.003716	2.800000
-20.376074	10.700000
-17.753485	8.900000
-15.131627	27.700000
-12.510501	17.400000
-9.890104	88.300000
-7.272595	252.500000
-4.653658	759.400000
-2.037607	2020.600000
0.577716	3293.300000
3.192312	2237.100000
5.804026	444.200000
8.417167	37.800000
11.025275	13.500000
13.636965	27.400000
16.243624	11.900000
18.851711	-7.200000
21.459074	-7.900000
24.061412	13.900000
26.667328	17.400000
29.268222	-12.500000
31.870545	15.300000
34.467849	-10.600000
37.068729	29.000000
39.664595	-3.600000
42.261888	15.500000
44.858462	-5.800000
47.450027	14.600000
50.043020	-0.100000
52.633152	3.600000
55.224712	-8.800000
57.813412	10.400000
60.403539	8.200000
62.988668	6.600000
65.575224	8.000000
68.161065	5.200000
70.744053	2.900000
73.328468	-18.300000
75.905753	-13.400000
78.486605	-17.100000
81.064608	9.500000
83.641901	7.200000
86.220620	-0.500000
88.794358	7.600000
91.369522	7.900000
93.941843	16.100000
96.513457	10.200000
99.082230	1.100000
101.652430	15.900000
104.219791	7.000000
106.788579	-7.700000
109.354529	-1.000000
111.917645	-7.900000
114.484317	8.300000
117.041768	15.100000
119.604904	-14.000000
122.163081	13.100000
124.724811	15.600000
127.281586	17.600000
129.839786	32.700000
132.393034	31.500000
134.945583	49.400000
137.501683	70.100000
140.052836	65.400000
142.603290	94.700000
145.153048	110.500000
147.699986	109.600000
150.246228	123.200000
152.793897	107.100000
155.340869	123.400000
157.882905	112.100000
160.424248	131.200000
162.964899	117.700000
165.506974	126.700000
168.046239	121.800000
170.582694	115.400000
173.118459	117.600000
175.655649	116.500000
178.192147	125.100000
180.725840	127.100000
183.256730	127.900000
185.786931	124.000000
188.318557	123.600000
190.847382	128.000000
193.373408	116.300000
195.898749	134.700000
198.425514	109.000000
200.949483	118.200000
203.472766	116.900000
205.995365	116.700000
208.515171	117.100000
211.034294	124.600000
213.552734	117.000000
216.072598	116.100000
218.585461	120.200000
221.101855	115.200000
223.617567	148.300000
226.128390	129.900000
228.640637	120.400000
231.150101	117.700000
233.658887	122.800000
236.166995	128.500000
238.676526	132.100000
241.181178	132.500000
243.685153	130.400000
246.190552	118.700000
248.691076	140.400000
251.195123	115.300000
253.692200	119.300000
256.192799	124.100000
258.690627	118.300000
261.187782	111.300000
263.684264	118.000000
266.175884	120.100000
268.671022	144.400000
271.163395	153.400000
273.655097	105.700000
276.144036	144.400000
278.634398	137.500000
281.121999	123.100000
283.606840	137.100000
286.095195	137.200000
288.576611	123.000000
291.061541	120.900000
293.541626	138.900000
296.025223	132.300000
298.503977	143.800000
300.984155	153.600000
303.461581	120.800000
305.938342	138.500000
308.414441	146.500000
310.887791	149.300000
313.360479	139.500000
315.832506	149.000000
318.303872	156.200000
320.772494	158.800000
323.240456	163.200000
325.709841	176.000000
328.174403	159.700000
330.642468	143.600000
333.105714	156.600000
335.568303	132.000000
338.030234	144.400000
340.491509	157.500000
342.950050	141.400000
345.410013	149.000000
347.867244	136.400000
350.323819	147.300000
352.779741	139.000000
355.232934	116.300000
357.687548	139.000000
360.137362	145.500000
362.590671	131.600000
365.039181	160.300000
367.487041	139.500000
369.936322	132.100000
372.380810	141.600000
374.826720	143.300000
377.271981	158.500000
379.714523	147.000000
382.156417	130.800000
384.597663	129.400000
387.036194	146.700000
389.476147	126.900000
391.913386	143.100000
394.347913	148.100000
396.785928	128.900000
399.219166	139.600000
401.653826	156.200000
404.083712	151.900000
406.517084	134.100000
408.945686	154.700000
411.373647	138.400000
413.803028	154.100000
416.227644	149.800000
418.653682	160.900000
421.079079	125.300000
423.503837	136.900000
425.923835	139.800000
428.345255	152.000000
430.763978	157.500000
433.184122	139.600000
435.601571	134.600000
438.020440	155.300000
440.436616	144.200000
442.848045	146.900000
445.262950	141.200000
447.675165	152.800000
450.086746	158.500000
452.497693	126.700000
454.905954	130.200000
457.313582	156.400000
459.720579	144.400000
462.126943	145.900000
464.530625	130.600000
466.933677	148.200000
469.336099	134.400000
471.737892	141.100000
474.137006	152.300000
476.537540	140.900000
478.937445	135.800000
481.332627	148.100000
483.731276	158.500000
486.125205	141.400000
488.518508	147.100000
490.911185	155.800000
493.303237	132.100000
495.696708	126.700000
498.085466	127.000000
500.471558	133.200000
502.859070	123.700000
505.245958	140.700000
507.630183	125.900000
510.015827	125.900000
512.398808	121.600000
514.779129	118.500000
517.160869	114.900000
519.539950	109.600000
521.920450	110.600000
524.298292	127.100000
526.673479	105.400000
529.048048	97.100000
531.424036	112.400000
533.797370	122.200000
536.172123	116.300000
538.542189	97.600000
540.911640	96.100000
543.282510	117.500000
545.648698	96.400000
548.016305	116.000000
550.381266	94.500000
552.745614	113.700000
555.109350	90.900000
557.474503	100.500000
559.834983	112.200000
562.196882	102.400000
564.556141	103.400000
566.912761	88.600000
569.272826	111.900000
571.626201	111.200000
573.983020	95.800000
576.337203	112.000000
578.690779	97.100000
581.043746	97.700000
583.394082	99.200000
585.745834	100.600000
588.090910	114.300000
590.441450	106.000000
592.785317	117.400000
595.134644	110.800000
597.479324	119.500000
599.821379	114.900000
602.164850	95.700000
604.505699	111.900000
606.845946	110.200000
609.183572	111.800000
611.524633	112.000000
613.861057	106.300000
616.198897	109.200000
618.534119	93.600000
620.866726	111.800000
623.200750	87.600000
625.532159	99.300000
627.862970	106.500000
630.193183	93.200000
632.522798	95.300000
634.847791	111.900000
637.178225	108.900000
639.504037	125.100000
641.827243	100.200000
644.151864	81.700000
646.473881	94.300000
648.795303	102.000000
651.114122	116.500000
653.434357	105.400000
655.753999	103.800000
658.071040	116.000000
660.387490	95.700000
662.701341	99.600000
665.016607	102.100000
667.329277	105.100000
669.643362	94.200000
671.952847	103.400000
674.263748	86.600000
676.572056	101.000000
678.879776	119.900000
681.188911	97.700000
683.493453	90.800000
685.797409	101.300000
688.100778	89.100000
690.405562	94.700000
692.705760	105.700000
695.007373	86.100000
697.308400	68.400000
699.604845	103.100000
701.902706	98.400000
704.199983	101.800000
706.496677	92.400000
708.788795	83.800000
711.084324	104.500000
713.375280	94.700000
715.667650	91.300000
717.957444	117.500000
720.246659	92.600000
722.535293	98.400000
724.821356	96.900000
727.108832	104.500000
729.393738	105.100000
731.678065	102.400000
733.959824	85.600000
736.242998	97.500000
738.525593	93.200000
740.803634	107.600000
743.083088	109.200000
745.361967	108.900000
747.640270	92.700000
749.914024	129.900000
752.189192	93.500000
754.463786	101.300000
756.735821	84.300000
759.009268	99.100000
761.280158	102.500000
763.548492	98.600000
765.818239	117.900000
768.085432	104.100000
770.352054	95.300000
772.618107	101.600000
774.881608	103.400000
777.146521	116.400000
779.410865	108.100000
781.670680	104.000000
783.931908	116.100000
786.192568	110.900000
788.450681	106.400000
790.706250	132.900000
792.965210	105.500000
795.217671	103.600000
797.475499	108.500000
799.728807	125.600000
801.979576	106.400000
804.231757	108.300000
806.481400	90.600000
808.732454	107.500000
810.978997	118.400000
813.226953	100.200000
815.472373	110.000000
817.719205	101.300000
819.965476	115.900000
822.207243	116.400000
824.452392	112.100000
826.691069	116.000000
828.933129	85.900000
831.170690	106.300000
833.409662	113.100000
835.646108	103.300000
837.883966	89.600000
840.119298	117.300000
842.352106	106.000000
844.586326	110.100000
846.818024	90.800000
849.049167	108.400000
851.279755	111.600000
853.509789	99.700000
855.739268	97.400000
857.964266	100.200000
860.192639	98.500000
862.416533	87.900000
864.641837	97.500000
866.862666	106.800000
869.086867	105.300000
871.306595	103.100000
873.527734	115.800000
875.748322	114.200000
877.966400	125.300000
880.185889	88.300000
882.400911	101.700000
884.615385	95.300000
886.829312	99.700000
889.042691	102.100000
891.255524	108.900000
893.467809	100.200000
895.677593	107.500000
897.886831	87.900000
900.095523	103.700000
902.301717	101.600000
904.509320	106.800000
906.714426	119.900000
908.918988	105.600000
911.121054	110.600000
913.324530	107.500000
915.525512	114.200000
917.725953	92.000000
919.927802	113.500000
922.123259	121.200000
924.322076	99.600000
926.516455	111.800000
928.714190	98.200000
930.907490	125.500000
933.102199	104.900000
935.294422	98.000000
937.486107	107.500000
939.677254	106.400000
941.865918	104.400000
944.054045	101.600000
946.239692	101.700000
948.428691	114.300000
950.613267	108.200000
952.797308	99.100000
954.984699	104.700000
957.163787	103.800000
959.346224	127.100000
961.528128	134.600000
963.707558	124.700000
965.884515	113.200000
968.062880	107.100000
970.242651	117.200000
972.416074	139.900000
974.592843	124.300000
976.765206	116.900000
978.938975	121.500000
981.108341	110.000000
983.281052	98.800000
985.451296	114.300000
987.621012	114.700000
989.790199	121.500000
991.954989	114.100000
994.123120	126.800000
996.286857	116.100000
998.452000	108.100000
1000.614685	117.400000
1002.776843	124.100000
1004.936545	113.200000
1007.095723	132.900000
1009.256307	136.100000
1011.414436	128.200000
1013.572041	118.900000
1015.729123	123.600000
1017.885682	116.300000
1020.037861	132.400000
1022.191446	130.800000
1024.344510	136.000000
1026.495126	133.800000
1028.647147	140.200000
1030.794795	131.700000
1032.945775	141.300000
1035.092384	122.700000
1037.238475	118.800000
1039.384046	138.800000
1041.531023	142.400000
1043.671712	124.600000
1045.815729	138.100000
1047.957306	118.400000
1050.098367	132.300000
1052.240832	130.500000
1054.377018	136.800000
1056.516530	128.200000
1058.651686	138.900000
1060.790167	147.600000
1062.924295	123.800000
1065.057908	138.300000
1067.192927	136.200000
1069.323596	126.000000
1071.455670	133.800000
1073.585315	132.200000
1075.714448	134.500000
1077.843069	140.700000
1079.971179	121.400000
1082.096863	131.700000
1084.222037	128.600000
1086.348615	120.900000
1088.470856	136.000000
1090.594500	126.600000
1092.713811	116.000000
1094.838350	128.600000
1096.956644	140.800000
1099.076343	129.800000
1101.193623	126.100000
1103.310397	136.700000
1105.426664	103.700000
1107.540516	129.000000
1109.655771	112.900000
1111.766704	128.000000
1113.880948	130.700000
1115.990872	124.200000
1118.102200	111.800000
1120.213024	98.000000
1122.319531	121.000000
1124.429347	126.300000
1126.534849	118.300000
1128.641754	125.200000
1130.742444	119.000000
1132.848346	123.300000
1134.949939	118.400000
1137.052935	118.200000
1139.155430	124.000000
1141.251719	126.200000
1143.353214	112.300000
1145.450407	113.800000
1147.547101	114.800000
1149.643298	125.700000
1151.738996	107.400000
1153.834197	121.100000
1155.927001	131.700000
1158.021207	125.700000
1160.109222	106.600000
1162.202435	135.700000
1164.289460	114.300000
1166.379785	122.900000
1168.465821	120.100000
1170.555155	115.700000
1172.638308	99.600000
1174.722864	96.200000
1176.808820	112.600000
1178.890495	119.800000
1180.973572	123.100000
1183.054263	113.000000
1185.134462	125.400000
1187.214170	128.000000
1189.293387	112.000000
1191.370222	113.000000
1193.444676	115.100000
1195.522422	99.200000
1197.595897	103.100000
1199.670773	102.100000
1201.741382	120.300000
1203.813393	108.900000
1205.883027	124.000000
1207.954062	123.600000
1210.024609	115.100000
1212.090895	120.100000
1214.158582	127.900000
1216.223897	100.200000
1218.290612	120.600000
1220.353071	129.100000
1222.418815	119.200000
1224.480306	131.600000
1226.543196	111.800000
1228.603719	108.600000
1230.663759	105.900000
1232.723315	126.300000
1234.780506	106.900000
1236.837216	104.800000
1238.891563	108.800000
1240.949190	118.000000
1243.004455	133.200000
1245.055479	110.000000
1247.107903	116.400000
1249.159848	110.800000
1251.209433	107.600000
1253.258540	96.900000
1255.307169	109.500000
1257.355319	114.900000
1259.402991	99.200000
1261.446432	130.500000
1263.493148	121.800000
1265.537512	114.400000
1267.581398	119.700000
1269.622934	86.400000
1271.662120	102.200000
1273.704578	113.800000
1275.742814	123.600000
1277.782449	106.900000
1279.821609	124.200000
1281.856551	103.700000
1283.892891	120.000000
1285.926886	110.300000
1287.962280	106.100000
1289.993460	126.000000
1292.026039	112.100000
1294.058145	117.000000
1296.087911	121.100000
1298.119075	112.700000
1300.146031	114.000000
1302.174385	144.500000
1304.198535	115.200000
1306.225949	128.600000
1308.249162	119.200000
1310.273771	132.600000
1312.296047	128.500000
1314.319720	120.400000
1316.341060	117.900000
1318.361932	117.300000
1320.382338	127.100000
1322.398549	136.300000
1324.416159	126.300000
1326.431440	139.700000
1328.449980	131.800000
1330.464330	134.100000
1332.476355	144.100000
1334.491637	138.400000
1336.502735	148.100000
1338.515228	118.100000
1340.523539	136.800000
1342.535106	133.000000
1344.540633	133.500000
1346.549416	136.000000
1348.554021	147.800000
1350.561880	144.800000
1352.569277	137.800000
1354.570643	136.200000
1356.573406	129.600000
1358.575708	114.000000
1360.577551	120.000000
1362.578935	117.400000
1364.578004	137.200000
1366.576615	141.800000
1368.574768	122.300000
1370.572463	118.400000
1372.565994	109.400000
1374.560922	129.000000
1376.555393	120.300000
1378.549407	137.200000
1380.541114	109.900000
1382.532365	140.800000
1384.521311	108.700000
1386.511652	129.900000
1388.501538	122.900000
1390.489121	115.200000
1392.476250	108.300000
1394.461077	101.100000
1396.447299	121.100000
1398.431220	113.400000
1400.414689	105.900000
1402.397706	124.800000
1404.378425	114.500000
1406.360538	140.000000
1408.340354	112.300000
1410.319720	114.400000
1412.294947	94.000000
1414.273412	122.200000
1416.249584	113.500000
1418.225306	121.700000
1420.200579	107.200000
1422.173561	120.200000
1424.146095	100.600000
1426.118182	124.500000
1428.089820	114.800000
1430.057331	120.200000
1432.029915	111.000000
1433.994693	93.500000
1435.964544	95.700000
1437.930270	110.000000
1439.897390	105.800000
1441.862225	117.700000
1443.822942	125.300000
1445.788726	133.300000
1447.748555	128.200000
1449.709777	125.300000
1451.672392	108.600000
1453.630892	122.100000
1455.588950	122.300000
1457.546565	110.900000
1459.503739	118.000000
1461.458637	103.300000
1463.414927	114.500000
1465.368943	112.900000
1467.322519	113.800000
1469.273822	119.900000
1471.226517	137.100000
1473.176941	117.200000
1475.126926	118.400000
1477.076471	130.500000
1479.023748	119.400000
1480.968758	131.200000
1482.915159	118.400000
1484.861124	113.600000
1486.806650	126.000000
1488.749912	126.100000
1490.692737	118.800000
1492.633299	127.800000
1494.575252	132.800000
1496.514944	137.900000
1498.454200	125.300000
1500.393022	121.700000
1502.329583	116.800000
1504.267536	116.600000
1506.203231	127.300000
1508.138492	129.700000
1510.071496	131.200000
1512.004068	117.600000
1513.936208	116.700000
1515.867916	125.600000
1517.797370	120.600000
1519.728215	135.800000
1521.658629	147.100000
1523.584970	133.600000
1525.512701	134.200000
1527.438182	147.400000
1529.363234	129.900000
1531.287857	138.500000
1533.212051	148.100000
1535.133998	135.400000
1537.057334	143.800000
1538.978425	155.700000
1540.897271	159.800000
1542.817507	171.700000
1544.735499	191.200000
1546.653065	186.500000
1548.568389	214.100000
1550.485103	220.500000
1552.397762	243.100000
1554.313625	301.300000
1556.227248	323.300000
1558.138634	355.600000
1560.051408	437.300000
1561.960133	486.700000
1563.870248	513.000000
1565.779939	572.600000
1567.689206	595.500000
1569.596240	591.900000
1571.501041	546.000000
1573.407231	504.100000
1575.311189	458.200000
1577.214727	396.500000
1579.117843	347.600000
1581.018731	319.600000
1582.921006	263.100000
1584.821054	234.900000
1586.722490	215.800000
1588.619891	189.500000
1590.516874	173.900000
1592.413439	178.300000
1594.311392	172.700000
1596.203510	171.600000
1598.098821	167.300000
1599.993715	176.100000
1601.886387	166.500000
1603.778643	162.600000
1605.668679	137.700000
1607.558299	148.100000
1609.447504	144.900000
1611.336293	141.900000
1613.222866	143.300000
1615.110825	138.000000
1616.994768	127.400000
1618.880099	140.700000
1620.765015	129.400000
1622.647719	130.800000
1624.531808	117.300000
1626.411887	133.500000
1628.293352	134.500000
1630.172607	111.600000
1632.053248	118.300000
1633.928085	121.700000
1635.807904	106.100000
1637.683717	115.700000
1639.559121	97.500000
1641.435910	129.000000
1643.306902	106.800000
1645.181076	117.100000
1647.051252	119.700000
1648.924608	138.800000
1650.795761	126.200000
1652.664712	111.000000
1654.535049	106.900000
1656.401392	129.900000
1658.269121	130.400000
1660.134652	119.000000
1662.001567	114.700000
1663.864494	108.200000
1665.728806	93.500000
1667.590922	116.100000
1669.452634	113.400000
1671.315730	123.500000
1673.176632	126.900000
1675.035340	111.000000
1676.893645	126.400000
1678.753335	121.200000
1680.607258	106.100000
1682.464353	113.100000
1684.321046	121.200000
1686.173763	113.000000
1688.029651	121.800000
1689.881564	112.200000
1691.733077	109.400000
1693.584190	128.300000
1695.434901	103.600000
1697.285212	109.100000
1699.133339	107.700000
1700.982849	120.500000
1702.826611	91.300000
1704.675323	112.400000
1706.518288	91.200000
1708.364419	123.400000
1710.206589	117.700000
1712.051923	124.400000
1713.891517	125.100000
1715.732495	122.400000
1717.574856	110.400000
1719.413261	118.700000
1721.253049	126.600000
1723.090662	129.900000
1724.927879	116.900000
1726.762923	110.100000
1728.599350	116.800000
1730.433605	125.600000
1732.267465	105.300000
1734.100932	129.500000
1735.930452	100.100000
1737.763131	92.300000
1739.591866	117.500000
1741.423759	111.100000
1743.251709	135.500000
1745.079267	115.700000
1746.906433	145.600000
1748.733208	107.100000
1750.559592	105.000000
1752.382039	115.000000
1754.207640	105.600000
1756.029307	119.100000
1757.852356	127.300000
1759.673244	121.200000
1761.493742	108.700000
1763.315622	115.900000
1765.131802	108.300000
1766.951134	114.900000
1768.766539	107.600000
1770.585094	119.100000
1772.399725	110.700000
1774.213968	92.700000
1776.027824	111.200000
1777.841294	112.800000
1779.652611	93.100000
1781.465309	112.600000
1783.277620	118.100000
1785.086014	106.000000
1786.895789	112.200000
1788.701648	120.800000
1790.510654	107.200000
1792.315746	89.000000
1794.122218	95.400000
1795.928307	100.100000
1797.730486	103.400000
1799.535808	121.000000
1801.337222	120.900000
1803.140016	87.200000
1804.938904	96.600000
1806.739173	125.200000
1808.539060	105.200000
1810.336806	101.800000
1812.134171	110.700000
1813.931155	116.700000
1815.727759	123.200000
1817.522224	99.500000
1819.318068	101.500000
1821.108258	107.000000
1822.903344	87.400000
1824.692777	114.700000
1826.485347	92.700000
1828.275782	104.500000
1830.064083	90.300000
1831.855519	115.000000
1833.641309	108.300000
1835.428479	111.500000
1837.213517	84.900000
1839.001689	92.600000
1840.785975	110.300000
1842.568132	106.000000
1844.351667	109.500000
1846.133074	126.700000
1847.915860	117.700000
1849.694766	98.200000
1851.475050	104.000000
1853.253208	110.100000
1855.032745	113.100000
1856.810157	108.400000
1858.585445	106.900000
1860.362112	123.000000
1862.136656	101.200000
1863.912577	120.800000
1865.682879	112.400000
1867.456308	109.900000
1869.227617	100.900000
1870.998555	124.100000
1872.770870	109.300000
1874.537573	101.000000
1876.307400	114.200000
1878.073364	102.900000
1879.842452	103.700000
1881.607678	111.900000
1883.372536	103.400000
1885.138770	110.400000
1886.901146	96.200000
1888.663155	107.900000
1890.424797	97.800000
1892.186071	108.200000
1893.946978	102.400000
1895.707519	101.800000
1897.465950	99.900000
1899.224016	92.100000
1900.979973	118.900000
1902.737308	93.900000
1904.494276	126.300000
1906.249139	96.700000
1908.001896	124.800000
1909.754290	109.300000
1911.508059	110.300000
1913.259725	109.900000
1915.009289	101.600000
1916.760229	101.200000
1918.510805	96.000000
1920.257543	105.300000
1922.005656	93.800000
1923.751670	104.100000
1925.499060	116.000000
1927.244351	97.100000
1928.987545	97.500000
1930.732115	99.000000
1932.474588	107.000000
1934.216701	111.800000
1935.958454	103.400000
1937.699848	114.500000
1939.439148	112.800000
1941.178089	95.600000
1942.916671	80.700000
1944.653161	101.800000
1946.389294	106.300000
1948.126801	110.800000
1949.860487	122.100000
1951.595546	95.700000
1953.328518	114.400000
1955.061133	122.500000
1956.793391	102.400000
1958.525293	109.300000
1960.255109	110.700000
1961.982841	115.100000
1963.711946	116.200000
1965.440697	102.900000
1967.167364	110.100000
1968.893677	124.200000
1970.621363	98.800000
1972.343513	96.500000
1974.068764	105.900000
1975.790209	100.300000
1977.514753	109.900000
1979.237218	100.400000
1980.955879	105.700000
1982.677639	110.200000
1984.395597	108.900000
1986.114929	110.700000
1987.830460	101.000000
1989.550813	118.100000
1991.267366	103.100000
1992.980124	92.400000
1994.695977	93.400000
1996.409757	115.700000
1998.123188	96.500000
1999.834548	100.300000
2001.547281	99.800000
2003.256222	108.200000
2004.968257	101.300000
2006.674782	103.400000
2008.384400	114.400000
2010.091950	110.000000
2011.799153	123.000000
2013.504290	119.700000
2015.209080	117.100000
2016.915242	100.300000
2018.617622	99.900000
2020.321374	99.100000
2022.023062	114.400000
2023.724406	114.000000
2025.425404	87.900000
2027.124342	119.800000
2028.824650	85.900000
2030.521184	106.800000
2032.219089	103.200000
2033.914936	106.400000
2035.613867	92.600000
2037.307313	102.700000
2039.002131	103.600000
2040.696605	108.700000
2042.387311	99.900000
2044.081101	109.800000
2045.771124	118.300000
2047.462518	118.300000
2049.151859	103.100000
2050.842570	101.300000
2052.529519	109.000000
2054.216127	113.500000
2055.904106	108.500000
2057.588325	110.400000
2059.273914	90.200000
2060.959164	89.700000
2062.642366	99.100000
2064.326937	118.000000
2066.006046	84.800000
2067.689940	105.500000
2069.368374	93.900000
2071.049884	108.500000
2072.727644	102.100000
2074.405066	108.100000
2076.083859	94.100000
2077.760608	109.100000
2079.435316	127.700000
2081.111393	100.400000
2082.785430	128.500000
2084.459131	109.200000
2086.132497	110.000000
2087.803825	100.400000
2089.474818	111.600000
2091.145477	103.800000
2092.815801	102.300000
2094.485792	109.200000
2096.153747	105.400000
2097.821369	105.000000
2099.486957	114.600000
2101.153913	104.800000
2102.818836	90.000000
2104.483426	100.200000
2106.145985	94.800000
2107.809912	95.100000
2109.471809	88.900000
2111.133374	97.000000
2112.794609	120.300000
2114.453814	111.600000
2116.112690	109.300000
2117.771235	115.900000
2119.429451	97.700000
2121.083943	118.500000
2122.741500	104.100000
2124.398728	98.300000
2126.052235	104.900000
2127.707109	111.600000
2129.358264	101.200000
2131.012481	115.400000
2132.662982	104.100000
2134.314849	91.700000
2135.961308	90.900000
2137.612522	95.400000
2139.260022	86.300000
2140.908889	118.400000
2142.555738	106.300000
2144.202260	99.300000
2145.848457	103.800000
2147.490946	95.600000
2149.136493	107.500000
2150.778333	106.700000
2152.423230	110.600000
2154.064422	97.200000
2155.705290	80.000000
2157.345835	110.000000
2158.984367	116.100000
2160.624265	91.000000
2162.260463	102.700000
2163.898027	101.900000
2165.535268	104.000000
2167.170500	102.500000
2168.805411	99.800000
2170.440000	101.900000
2172.074267	100.600000
2173.704842	118.300000
2175.338467	97.300000
2176.968401	105.100000
2178.599700	107.600000
2180.228995	96.400000
2181.857969	101.500000
2183.486625	101.300000
2185.114961	93.500000
2186.741294	116.500000
2188.367309	118.100000
2189.991323	96.500000
2191.616701	116.000000
2193.240080	94.800000
2194.864822	97.000000
2196.485884	108.800000
2198.106629	83.000000
2199.728739	95.400000
2201.348851	103.500000
2202.966967	96.800000
2204.584767	99.800000
2206.202251	112.300000
2207.819420	80.600000
2209.436274	124.500000
2211.052813	108.500000
2212.667358	98.500000
2214.279911	98.800000
2215.893828	108.900000
2217.505754	88.900000
2219.119043	88.100000
2220.730342	92.200000
2222.339651	89.800000
2223.950324	88.700000
2225.559008	97.600000
2227.167380	68.000000
2228.773764	113.700000
2230.381512	87.200000
2231.987273	103.600000
2233.592723	94.900000
2235.196189	90.600000
2236.801017	97.000000
2238.403861	100.400000
2240.004722	109.500000
2241.606946	100.200000
2243.207187	86.300000
2244.808791	101.100000
2246.406743	101.500000
2248.006057	103.300000
2249.603391	105.200000
2251.200417	114.800000
2252.798804	94.300000
2254.393543	112.100000
2255.986306	111.600000
2257.580430	96.500000
2259.175916	99.100000
2260.767758	101.000000
2262.359293	104.500000
2263.952189	88.000000
2265.539776	100.500000
2267.132060	107.000000
2268.719036	112.900000
2270.309041	95.400000
2271.893741	106.700000
2273.483135	94.900000
2275.067226	93.400000
2276.652679	97.400000
2278.236162	80.800000
2279.822672	114.600000
2281.405548	91.600000
2282.988120	72.000000
2284.570389	92.200000
2286.149029	96.700000
2287.730692	95.100000
2289.308727	80.500000
2290.889786	100.700000
2292.467217	98.800000
2294.042685	96.900000
2295.621174	91.800000
2297.196040	98.100000
2298.770605	86.100000
2300.344870	91.600000
2301.918834	89.700000
2303.492498	91.400000
2305.065861	102.300000
2306.635606	73.200000
2308.205052	106.000000
2309.777517	86.700000
2311.344706	94.100000
2312.914914	100.000000
2314.481507	118.000000
2316.049460	95.300000
2317.615458	98.800000
2319.181157	101.100000
2320.746560	96.300000
2322.310009	100.800000
2323.874816	97.100000
2325.436016	110.300000
2327.000230	87.900000
2328.559183	91.300000
2330.121149	95.900000
2331.681165	87.600000
2333.240885	108.000000
2334.798656	101.500000
2336.356133	127.800000
2337.913314	106.800000
2339.468549	102.500000
2341.023489	74.600000
2342.578136	96.400000
2344.132489	99.500000
2345.686548	71.500000
2347.240314	89.900000
2348.792135	115.700000
2350.342013	113.100000
2351.894899	117.800000
2353.442543	85.200000
2354.993194	107.200000
2356.540255	93.100000
2358.088673	99.400000
2359.636799	92.900000
2361.181338	94.900000
2362.727234	116.300000
2364.271191	88.200000
2365.816506	86.600000
2367.358236	100.300000
2368.901323	112.700000
2370.442475	110.800000
2371.983337	86.900000
2373.523910	113.200000
2375.064194	80.900000
2376.604189	95.800000
2378.140605	114.500000
2379.680023	98.900000
2381.215864	90.800000
2382.753061	95.800000
2384.286684	87.900000
2385.823306	108.500000
2387.357997	102.400000
2388.890759	108.700000
2390.423235	82.600000
2391.953782	103.200000
2393.487327	99.000000
2395.015661	111.400000
2396.545351	94.200000
2398.074756	90.300000
2399.603875	101.400000
2401.132710	100.400000
2402.656340	108.600000
2404.184605	95.800000
2405.707667	115.500000
2407.235363	77.900000
2408.756220	99.400000
2410.281710	110.700000
2411.803639	110.800000
2413.326924	80.000000
2414.848288	101.300000
2416.367732	114.700000
2417.888531	98.900000
2419.407411	105.900000
2420.926009	93.700000
2422.442690	114.400000
2423.960725	100.200000
2425.478479	108.800000
2426.992682	105.600000
2428.506604	100.400000
2430.020247	90.100000
2431.535243	100.500000
2433.046691	108.900000
2434.559494	115.600000
2436.070384	93.200000
2437.580994	101.400000
2439.089693	100.200000
2440.601379	109.900000
2442.109521	84.300000
2443.617384	107.600000
2445.124970	101.800000
2446.629015	105.600000
2448.136046	100.300000
2449.641168	84.100000
2451.146013	93.600000
2452.648951	107.200000
2454.151612	92.900000
2455.653997	102.100000
2457.154477	82.800000
2458.656310	98.300000
2460.156239	98.500000
2461.655892	122.400000
2463.155270	105.600000
2464.652744	106.300000
2466.148318	107.600000
2467.646871	107.700000
2469.141895	97.600000
2470.638273	95.900000
2472.131124	90.100000
2473.625327	100.500000
2475.119257	87.200000
2476.609664	102.400000
2478.103047	97.200000
2479.594533	92.500000
2481.084122	87.400000
2482.573439	74.900000
2484.060861	82.300000
2485.551258	90.100000
2487.038136	80.700000
2488.526366	103.900000
2490.011080	91.900000
2491.495523	94.200000
2492.981318	91.300000
2494.465220	98.800000
2495.950474	94.600000
2497.430594	97.200000
2498.913686	97.300000
2500.394888	98.100000
2501.875821	86.400000
2503.354865	100.500000
2504.833641	79.100000
2506.312147	108.100000
2507.790386	92.400000
2509.268356	91.900000
2510.742822	103.400000
2512.220256	95.700000
2513.694187	84.700000
2515.169469	105.100000
2516.644483	79.100000
2518.115996	89.300000
2519.588860	91.500000
2521.059840	106.000000
2522.532171	86.700000
2523.999389	97.300000
2525.469572	96.900000
2526.937875	110.700000
2528.405913	107.300000
2529.873686	99.900000
2531.341194	89.200000
2532.808437	100.500000
2534.272188	93.500000
2535.737290	94.400000
2537.200513	92.900000
2538.665087	93.500000
2540.126171	100.200000
2541.588605	88.800000
2543.050776	96.400000
2544.509461	85.100000
2545.972718	75.500000
2547.430878	93.500000
2548.890387	85.100000
2550.344803	92.800000
2551.803788	103.900000
2553.260902	91.100000
2554.716145	110.700000
2556.171127	104.000000
2557.624239	102.000000
2559.078700	99.800000
2560.531292	101.300000
2561.983624	92.800000
2563.434088	92.600000
2564.887508	100.200000
2566.335846	95.300000
2567.787140	105.400000
2569.236567	90.300000
2570.682523	89.000000
2572.131433	106.100000
2573.576872	94.700000
2575.023660	101.600000
2576.468584	82.900000
2577.913251	85.400000
2579.359265	103.700000
2580.801812	96.500000
2582.245707	125.300000
2583.686137	105.500000
2585.127915	91.000000
2586.567832	97.400000
2588.009097	94.500000
2589.446901	96.400000
2590.887654	100.500000
2592.323344	98.400000
2593.761984	107.600000
2595.198767	92.100000
2596.633693	124.900000
2598.071568	90.200000
2599.504385	108.000000
2600.938548	104.200000
2602.370858	105.100000
2603.804514	99.000000
2605.236317	116.400000
2606.667867	105.100000
2608.099163	105.400000
2609.528608	104.800000
2610.957800	116.300000
2612.385141	118.100000
2613.813829	120.900000
2615.242264	111.300000
2616.667252	97.100000
2618.093587	101.200000
2619.518073	120.200000
2620.943905	106.900000
2622.366293	107.100000
2623.790027	95.800000
2625.211915	112.400000
2626.633552	110.100000
2628.053344	114.500000
2629.474482	144.900000
2630.895370	125.700000
2632.312820	118.800000
2633.733209	128.300000
2635.150161	113.300000
2636.566865	129.400000
2637.983320	134.100000
2639.399527	137.800000
2640.815485	132.500000
2642.229603	150.800000
2643.643474	128.400000
2645.055505	136.700000
2646.468881	135.300000
2647.878827	145.600000
2649.291708	129.200000
2650.701162	143.700000
2652.110369	149.500000
2653.517740	171.500000
2654.928045	141.300000
2656.336514	163.300000
2657.743148	150.900000
2659.149537	169.700000
2660.554092	144.400000
2661.959991	152.400000
2663.364057	159.600000
2664.767879	182.600000
2666.171456	160.300000
2667.573201	169.200000
2668.976290	162.900000
2670.375962	184.100000
2671.776976	179.400000
2673.174575	183.700000
2674.575104	201.100000
2675.972218	192.400000
2677.370675	187.000000
2678.767304	191.800000
2680.163691	186.800000
2681.559837	194.800000
2682.954156	168.000000
2684.349818	188.900000
2685.742070	175.300000
2687.135666	179.000000
2688.527437	194.900000
2689.920550	175.200000
2691.311840	170.800000
2692.701307	194.700000
2694.090535	178.800000
2695.479522	197.400000
2696.869852	207.400000
2698.255197	171.600000
2699.643466	175.200000
2701.029915	184.800000
2702.416125	179.900000
2703.802097	172.400000
2705.184670	148.100000
2706.568584	165.000000
2707.952261	161.400000
2709.335700	165.900000
2710.715743	143.700000
2712.097128	164.400000
2713.476697	150.300000
2714.857608	156.700000
2716.236704	144.200000
2717.613985	147.400000
2718.992608	146.100000
2720.369418	142.900000
2721.745992	138.500000
2723.122330	140.400000
2724.496856	140.100000
2725.872723	128.000000
2727.245203	121.200000
2728.620600	124.200000
2729.991035	119.700000
2731.362812	118.200000
2732.734355	125.400000
2734.104089	120.400000
2735.475163	104.800000
2736.844430	124.700000
2738.213463	122.500000
2739.580689	91.800000
2740.947683	84.600000
2742.314444	94.800000
2743.680972	116.900000
2745.045695	89.800000
2746.410187	120.100000
2747.774446	113.300000
2749.138474	96.300000
2750.502269	106.500000
2751.862691	104.000000
2753.226024	95.700000
2754.584414	106.100000
2755.945714	76.500000
2757.303643	98.900000
2758.664482	86.300000
2760.023520	70.200000
2761.379190	80.600000
2762.737768	95.900000
2764.092980	73.100000
2765.447962	92.300000
2766.801147	97.300000
2768.157239	104.400000
2769.509967	84.000000
2770.862466	91.600000
2772.214737	99.100000
2773.568347	88.600000
2774.918595	92.800000
2776.267050	76.600000
2777.618409	95.200000
2778.966409	83.400000
2780.315748	88.600000
2781.663294	72.200000
2783.010613	78.600000
2784.357706	81.700000
2785.703008	81.300000
2787.048084	78.300000
2788.392934	77.400000
2789.737557	82.200000
2791.078829	82.900000
2792.421439	70.900000
2793.763824	100.100000
2795.105983	76.600000
2796.444793	68.800000
2797.786502	79.600000
2799.124864	100.700000
2800.464563	95.200000
2801.802476	84.100000
2803.138605	86.700000
2804.474511	82.800000
2805.811753	91.200000
2807.147212	85.600000
2808.482448	94.100000
2809.815902	66.000000
2811.150692	91.900000
2812.482141	72.000000
2813.816486	90.200000
2815.145933	68.300000
2816.476717	74.000000
2817.807279	72.100000
2819.136062	84.400000
2820.466182	67.000000
2821.794522	76.200000
2823.122642	93.300000
2824.448985	101.200000
2825.776663	74.700000
2827.101009	80.800000
2828.426690	77.300000
2829.750596	82.500000
2831.074283	78.900000
2832.399305	87.300000
2833.720998	87.600000
2835.042471	77.200000
2836.363726	72.100000
2837.684762	73.800000
2839.004026	83.600000
2840.324625	73.200000
2841.643452	72.900000
2842.962061	75.900000
2844.278900	74.200000
2845.595521	68.900000
2846.911924	74.100000
2848.226559	59.000000
2849.542528	78.800000
2850.855177	74.800000
2852.169162	66.100000
2853.482930	75.700000
2854.796481	72.700000
2856.108265	73.600000
2857.418284	79.700000
2858.729636	58.700000
2860.037674	70.300000
2861.347047	89.100000
2862.656204	87.700000
2863.965146	69.600000
2865.272325	71.800000
2866.577740	76.700000
2867.884490	67.600000
2869.189477	53.600000
2870.494251	82.100000
2871.797263	81.200000
2873.103157	87.200000
2874.404195	87.500000
2875.706568	73.600000
2877.007181	74.500000
2878.309128	70.100000
2879.610862	69.800000
2880.909292	78.100000
2882.209055	76.400000
2883.507060	68.300000
2884.804854	74.400000
2886.100892	69.800000
2887.398263	51.300000
2888.693878	70.700000
2889.989282	89.900000
2891.284476	84.200000
2892.576371	69.800000
2893.871143	69.100000
2895.162618	71.500000
2896.455427	69.600000
2897.748024	66.700000
2899.037328	82.600000
2900.327964	57.900000
2901.616849	78.800000
2902.907067	72.900000
2904.193993	74.600000
2905.482251	79.200000
2906.768759	63.800000
2908.055060	73.300000
2909.341152	60.800000
2910.625496	71.000000
2911.912712	91.500000
2913.195101	60.600000
2914.478821	64.800000
2915.760796	50.100000
2917.042564	70.700000
2918.322586	69.000000
2919.605478	60.500000
2920.886625	75.000000
2922.164490	64.400000
2923.445224	63.800000
2924.722677	72.000000
2925.999925	74.300000
2927.275430	64.700000
2928.553803	59.200000
2929.827361	60.300000
2931.103787	54.400000
2932.378472	65.100000
2933.651417	63.300000
2934.925692	51.700000
2936.198228	72.200000
2937.470560	65.800000
2938.739619	74.300000
2940.011542	62.600000
2941.281728	64.500000
2942.551711	56.000000
2943.821490	57.900000
2945.089532	73.700000
2946.355839	53.900000
2947.621943	73.600000
2948.889377	51.200000
2950.155077	65.000000
2951.420574	64.800000
2952.685869	78.800000
2953.947899	61.000000
2955.211260	75.500000
2956.474419	60.100000
2957.735845	83.000000
2958.998601	79.400000
2960.259626	61.100000
2961.518920	62.500000
2962.778013	81.300000
2964.036906	66.200000
2965.295599	77.100000
2966.554092	76.900000
2967.810856	77.800000
2969.067420	68.000000
2970.322257	68.500000
2971.578423	54.400000
2972.831333	49.000000
2974.085573	65.800000
2975.339614	71.100000
2976.591929	66.200000
2977.844046	46.300000
2979.094438	59.100000
2980.347685	74.200000
2981.596155	68.300000
2982.847479	69.500000
2984.095555	58.800000
2985.343433	72.400000
2986.591114	62.800000
2987.838599	63.000000
2989.084362	32.800000
2990.329928	76.500000
2991.576823	84.400000
2992.820472	60.000000
2994.065450	60.300000
2995.307185	62.000000
2996.551771	79.400000
2997.794637	66.400000
2999.034263	61.500000
3000.276740	58.400000
3001.515976	70.000000
3002.756540	56.100000
3003.995387	64.700000
3005.234040	69.900000
3006.470977	51.100000
3007.709241	66.400000
3008.945791	53.100000
3010.182146	54.000000
3011.418308	64.500000
3012.652757	56.700000
3013.887012	64.200000
3015.121074	57.800000
3016.353424	53.100000
3017.584062	75.100000
3018.817546	64.500000
3020.049318	59.200000
3021.279380	76.500000
3022.509250	71.200000
3023.737410	58.500000
3024.966896	61.100000
3026.194674	53.600000
3027.422260	70.400000
3028.651172	76.700000
3029.875342	79.400000
3031.102355	69.600000
3032.326145	56.700000
3033.551260	60.300000
3034.774669	69.700000
3035.997889	85.100000
3037.219403	62.300000
3038.443758	44.800000
3039.663378	76.000000
3040.884323	79.300000
3042.105080	71.300000
3043.324133	58.500000
3044.544512	65.300000
3045.761674	59.000000
3046.980161	59.500000
3048.196947	71.500000
3049.413544	64.700000
3050.629954	59.600000
3051.843150	65.800000
3053.059184	72.900000
3054.272006	56.900000
3055.487665	52.500000
3056.698601	64.000000
3057.910862	53.900000
3059.122937	50.400000
3060.334825	65.200000
3061.545015	66.100000
3062.755020	58.900000
3063.964838	55.200000
3065.172960	57.600000
3066.380896	61.100000
3067.587138	61.900000
3068.794703	57.100000
3070.000575	60.950000
3071.206261	64.800000
3072.411762	64.800000
3073.615571	70.800000
3074.820703	48.900000
3076.024142	65.900000
3077.225889	40.800000
3078.427453	70.700000
3079.628833	49.100000
3080.830029	71.700000
3082.029535	72.000000
3083.228857	50.500000
3084.429503	52.100000
3085.628460	54.900000
3086.824221	71.900000
3088.022812	70.400000
3089.218209	60.600000
3090.414929	46.400000
3091.608457	69.800000
3092.804814	61.200000
3093.999483	59.000000
3095.190962	60.500000
3096.386772	71.000000
3097.577889	68.500000
3098.770328	56.200000
3099.959580	72.000000
3101.151658	70.400000
3102.342051	56.900000
3103.529259	58.500000
3104.717790	80.400000
3105.907643	67.500000
3107.094311	64.100000
3108.280800	66.800000
3109.467109	47.600000
3110.654740	61.100000
3111.839190	67.100000
3113.021959	62.500000
3114.207552	48.300000
3115.391464	67.800000
3116.573698	47.100000
3117.755754	35.300000
3118.937631	37.400000
3120.119330	52.300000
3121.299351	58.700000
3122.477696	67.900000
3123.658862	57.100000
3124.836852	45.600000
3126.014665	65.200000
3127.192301	39.800000
3128.368262	50.300000
3129.544047	69.600000
3130.721152	67.800000
3131.896583	65.500000
3133.070341	52.800000
3134.242427	78.500000
3135.415833	59.700000
3136.589064	57.300000
3137.760622	61.900000
3138.933502	46.000000
3140.103214	63.000000
3141.274247	52.200000
3142.443609	37.000000
3143.611302	71.900000
3144.781810	51.800000
3145.947659	50.500000
3147.117818	55.400000
3148.283319	60.800000
3149.448647	40.400000
3150.613801	68.400000
3151.778781	57.300000
3152.945082	50.400000
3154.106729	63.100000
3155.269697	57.100000
3156.432491	64.800000
3157.595113	51.700000
3158.756070	62.800000
3159.916854	51.600000
3161.077466	55.600000
3162.236415	55.200000
3163.395191	61.200000
3164.553796	54.400000
3165.712229	39.900000
3166.870490	46.800000
3168.027089	69.000000
3169.182027	55.000000
3170.338284	48.000000
3171.492881	66.800000
3172.647306	69.900000
3173.800072	62.300000
3174.952668	50.500000
3176.105093	62.500000
3177.257349	57.100000
3178.409435	57.100000
3179.558374	43.500000
3180.710120	66.700000
3181.860209	64.400000
3183.008640	44.900000
3184.156903	34.100000
3185.304997	66.500000
3186.452921	61.300000
3187.599191	58.700000
3188.745292	62.000000
3189.889738	43.300000
3191.034017	49.700000
3192.178128	76.100000
3193.323557	54.000000
3194.465847	50.000000
3195.607969	37.400000
3196.749925	54.700000
3197.891713	66.300000
3199.033334	69.200000
3200.171819	66.100000
3201.311622	67.300000
3202.452743	58.000000
3203.590729	57.100000
3204.727066	49.200000
3205.863237	63.500000
3207.000726	64.900000
3208.136566	63.300000
3209.273722	50.200000
3210.406266	53.000000
3211.543092	78.800000
3212.675306	47.900000
3213.808838	55.500000
3214.942204	62.700000
3216.072443	53.800000
3217.205480	67.200000
3218.335391	53.900000
3219.466619	64.600000
3220.594721	66.500000
3221.725620	68.400000
3222.854876	63.100000
3223.982487	63.100000
3225.106977	49.400000
3226.235742	59.900000
3227.361385	52.000000
3228.486865	54.700000
3229.610704	51.100000
3230.737337	46.000000
3231.859373	59.600000
3232.982725	46.000000
3234.105915	63.100000
3235.228943	64.400000
3236.350331	53.300000
3237.471558	39.600000
3238.591146	32.700000
3239.710573	49.600000
3240.828362	48.300000
3241.948944	40.600000
3243.066411	52.800000
3244.183719	47.100000
3245.300865	38.100000
3246.416376	52.600000
3247.533202	52.500000
3248.646917	44.700000
3249.763423	53.400000
3250.878293	48.900000
3251.990055	44.900000
3253.101658	49.400000
3254.214575	58.200000
3255.327334	56.300000
3256.436986	41.300000
3257.547953	67.600000
3258.658761	49.500000
3259.767937	41.100000
3260.875482	53.900000
3261.984342	46.600000
3263.093043	44.700000
3264.198642	43.200000
3265.305556	55.500000
3266.410840	32.800000
3267.517438	60.000000
3268.620936	57.100000
3269.725748	45.100000
3270.830403	61.300000
3271.931959	49.600000
3273.033360	45.700000
3274.136074	60.400000
3275.238631	51.100000
3276.338093	57.400000
3277.440337	48.100000
3278.539487	48.900000
3279.637011	31.900000
3280.734380	48.300000
3281.834532	42.100000
3282.931590	44.400000
3284.028493	44.500000
3285.125242	47.300000
3286.217431	44.400000
3287.313870	70.200000
3288.408686	36.800000
3289.503347	42.700000
3290.596387	52.200000
3291.689273	71.800000
3292.780538	49.300000
3293.873116	40.100000
3294.964073	47.800000
3296.053412	51.500000
3297.142597	40.900000
3298.233094	50.300000
3299.320507	41.400000
3300.407768	47.700000
3301.496341	69.400000
3302.584761	39.000000
3303.668634	48.000000
3304.756749	47.200000
3305.841783	46.700000
3306.925201	51.900000
3308.009930	38.900000
3309.093045	50.200000
3310.177471	55.100000
3311.258819	62.500000
3312.341479	64.800000
3313.422525	56.300000
3314.503420	61.500000
3315.582702	40.800000
3316.661833	28.700000
3317.742275	49.900000
3318.819644	46.500000
3319.898324	43.800000
3320.975392	62.300000
3322.052310	60.900000
3323.127617	62.800000
3324.202775	63.000000
3325.279245	46.200000
3326.352643	53.000000
3327.425893	60.200000
3328.500454	48.600000
3329.573405	44.200000
3330.644749	39.700000
3331.717403	50.800000
3332.786990	50.700000
3333.857888	60.300000
3334.927179	58.400000
3335.997781	49.500000
3337.066776	42.400000
3338.134165	53.300000
3339.199949	55.600000
3340.269959	45.300000
3341.336906	35.600000
3342.400791	48.200000
3343.467444	61.900000
3344.532492	55.100000
3345.595938	61.800000
3346.659236	54.500000
3347.722389	46.900000
3348.785395	27.400000
3349.848254	58.600000
3350.909512	47.100000
3351.967713	50.200000
3353.030135	45.700000
3354.089500	50.100000
3355.148720	43.500000
3356.209250	47.700000
3357.265270	58.100000
3358.324055	59.000000
3359.378332	44.100000
3360.435372	39.900000
3361.490815	41.200000
3362.547566	47.500000
3363.602720	56.400000
3364.656276	60.100000
3365.708235	53.700000
3366.762956	51.000000
3367.814628	58.800000
3368.866157	60.200000
3369.918995	58.100000
3370.968785	59.600000
3372.019883	52.300000
3373.067936	42.500000
3374.118749	44.700000
3375.166516	37.200000
3376.214141	42.800000
3377.261624	47.200000
3378.307513	61.800000
3379.354711	42.000000
3380.398867	41.500000
3381.445781	41.100000
3382.491103	44.300000
3383.533385	45.600000
3384.575525	33.500000
3385.618974	45.400000
3386.662281	29.800000
3387.703998	49.700000
3388.745574	29.500000
3389.787010	46.800000
3390.826856	32.000000
3391.865115	61.900000
3392.904681	46.000000
3393.944106	65.400000
3394.981945	36.000000
3396.018196	46.600000
3397.054307	52.000000
3398.091726	55.500000
3399.126112	38.200000
3400.161805	33.500000
3401.197359	45.900000
3402.229882	35.200000
3403.265158	44.400000
3404.297403	57.300000
3405.329510	46.200000
3406.360033	41.500000
3407.391864	48.500000
3408.423555	47.100000
3409.452220	54.300000
3410.480746	34.400000
3411.510580	54.400000
3412.540275	34.600000
3413.566945	40.800000
3414.594922	54.200000
3415.619874	46.100000
3416.647576	43.600000
3417.672255	57.800000
3418.698240	47.800000
3419.722645	36.900000
3420.746914	41.300000
3421.769604	50.700000
3422.792158	46.100000
3423.816018	45.100000
3424.836858	43.000000
3425.857563	37.200000
3426.879573	63.600000
3427.898565	52.300000
3428.917422	49.100000
3429.937584	48.100000
3430.954730	26.900000
