-118.301883	16.500000
-115.632283	-9.100000
-112.965618	-9.800000
-110.299705	16.800000
-107.636724	3.400000
-104.972314	7.800000
-102.310834	7.000000
-99.647924	6.500000
-96.990122	14.500000
-94.330889	10.100000
-91.672405	8.700000
-89.016846	7.700000
-86.359858	19.200000
-83.707967	2.900000
-81.054647	4.100000
-78.404247	5.800000
-75.752417	-0.600000
-73.105678	21.800000
-70.457509	-3.000000
-67.810084	-1.100000
-65.165572	16.700000
-62.519632	11.800000
-59.878773	11.900000
-57.236484	5.500000
-54.597105	1.000000
-51.956297	-0.800000
-49.316229	7.500000
-46.681233	28.500000
-44.044808	-8.800000
-41.411287	-23.600000
-38.776337	-15.700000
-36.146452	1.800000
-33.512975	-2.400000
-30.884560	20.300000
-28.256878	6.100000
-25.627769	10.700000
-23.003716	6.800000
-20.376074	18.500000
-17.753485	25.100000
-15.131627	33.600000
-12.510501	70.600000
-9.890104	164.800000
-7.272595	550.300000
-4.653658	1794.300000
-2.037607	5115.400000
0.577716	6822.700000
3.192312	3847.200000
5.804026	550.400000
8.417167	68.000000
11.025275	34.400000
13.636965	24.400000
16.243624	17.200000
18.851711	19.400000
21.459074	13.700000
24.061412	26.400000
26.667328	8.500000
29.268222	6.700000
31.870545	2.600000
34.467849	8.100000
37.068729	-7.100000
39.664595	13.200000
42.261888	13.900000
44.858462	11.900000
47.450027	-17.000000
50.043020	2.700000
52.633152	26.400000
55.224712	10.800000
57.813412	20.100000
60.403539	7.500000
62.988668	1.700000
65.575224	-9.100000
68.161065	-3.900000
70.744053	20.600000
73.328468	7.500000
75.905753	5.600000
78.486605	5.000000
81.064608	10.200000
83.641901	6.800000
86.220620	-5.000000
88.794358	6.100000
91.369522	-15.400000
93.941843	3.100000
96.513457	-0.600000
99.082230	-4.500000
101.652430	7.600000
104.219791	0.500000
106.788579	-3.000000
109.354529	-20.200000
111.917645	2.200000
114.484317	6.300000
117.041768	15.100000
119.604904	0.200000
122.163081	22.400000
124.724811	15.900000
127.281586	31.500000
129.839786	44.100000
132.393034	45.100000
134.945583	62.500000
137.501683	111.700000
140.052836	146.500000
142.603290	176.200000
145.153048	197.600000
147.699986	216.000000
150.246228	217.400000
152.793897	211.500000
155.340869	220.200000
157.882905	227.900000
160.424248	216.200000
162.964899	228.500000
165.506974	225.100000
168.046239	215.500000
170.582694	217.600000
173.118459	210.300000
175.655649	201.100000
178.192147	215.300000
180.725840	218.500000
183.256730	221.700000
185.786931	231.000000
188.318557	210.400000
190.847382	206.300000
193.373408	210.600000
195.898749	231.700000
198.425514	230.700000
200.949483	212.400000
203.472766	222.100000
205.995365	224.900000
208.515171	205.300000
211.034294	221.500000
213.552734	227.300000
216.072598	231.800000
218.585461	227.700000
221.101855	228.500000
223.617567	243.700000
226.128390	233.000000
228.640637	220.600000
231.150101	234.900000
233.658887	228.500000
236.166995	238.100000
238.676526	236.600000
241.181178	223.800000
243.685153	251.100000
246.190552	229.900000
248.691076	232.000000
251.195123	232.200000
253.692200	225.600000
256.192799	248.500000
258.690627	246.400000
261.187782	241.700000
263.684264	234.100000
266.175884	218.500000
268.671022	245.000000
271.163395	242.200000
273.655097	235.600000
276.144036	244.100000
278.634398	248.300000
281.121999	245.400000
283.606840	256.500000
286.095195	244.300000
288.576611	243.500000
291.061541	253.800000
293.541626	243.700000
296.025223	239.400000
298.503977	233.400000
300.984155	251.600000
303.461581	260.000000
305.938342	240.800000
308.414441	244.300000
310.887791	278.200000
313.360479	276.200000
315.832506	284.200000
318.303872	321.200000
320.772494	342.800000
323.240456	331.500000
325.709841	301.800000
328.174403	290.100000
330.642468	295.200000
333.105714	279.700000
335.568303	258.100000
338.030234	271.200000
340.491509	264.700000
342.950050	260.900000
345.410013	283.200000
347.867244	281.800000
350.323819	270.200000
352.779741	268.800000
355.232934	258.000000
357.687548	268.600000
360.137362	270.500000
362.590671	252.100000
365.039181	284.300000
367.487041	262.000000
369.936322	287.800000
372.380810	274.200000
374.826720	261.300000
377.271981	269.100000
379.714523	275.900000
382.156417	268.100000
384.597663	274.800000
387.036194	273.100000
389.476147	269.700000
391.913386	257.200000
394.347913	265.900000
396.785928	261.200000
399.219166	246.300000
401.653826	265.900000
404.083712	256.000000
406.517084	262.800000
408.945686	267.300000
411.373647	265.000000
413.803028	267.800000
416.227644	278.900000
418.653682	287.800000
421.079079	263.900000
423.503837	280.400000
425.923835	298.100000
428.345255	278.000000
430.763978	283.700000
433.184122	267.400000
435.601571	272.400000
438.020440	282.000000
440.436616	266.000000
442.848045	282.100000
445.262950	288.600000
447.675165	275.500000
450.086746	276.100000
452.497693	287.400000
454.905954	270.000000
457.313582	279.100000
459.720579	284.900000
462.126943	265.300000
464.530625	253.600000
466.933677	270.300000
469.336099	256.200000
471.737892	251.700000
474.137006	258.700000
476.537540	252.000000
478.937445	258.100000
481.332627	245.000000
483.731276	262.500000
486.125205	256.800000
488.518508	267.800000
490.911185	260.600000
493.303237	245.800000
495.696708	237.800000
498.085466	243.800000
500.471558	242.800000
502.859070	221.600000
505.245958	227.300000
507.630183	232.700000
510.015827	212.700000
512.398808	215.900000
514.779129	198.400000
517.160869	190.300000
519.539950	194.900000
521.920450	207.300000
524.298292	221.000000
526.673479	205.200000
529.048048	193.500000
531.424036	196.800000
533.797370	192.000000
536.172123	194.900000
538.542189	187.400000
540.911640	202.800000
543.282510	205.200000
545.648698	195.800000
548.016305	201.700000
550.381266	206.800000
552.745614	201.500000
555.109350	211.600000
557.474503	213.200000
559.834983	182.300000
562.196882	200.200000
564.556141	217.800000
566.912761	188.400000
569.272826	196.600000
571.626201	213.700000
573.983020	192.500000
576.337203	200.000000
578.690779	181.900000
581.043746	185.100000
583.394082	194.600000
585.745834	189.300000
588.090910	196.000000
590.441450	202.700000
592.785317	189.200000
595.134644	189.400000
597.479324	190.000000
599.821379	182.000000
602.164850	172.400000
604.505699	206.000000
606.845946	184.500000
609.183572	183.500000
611.524633	186.200000
613.861057	194.900000
616.198897	200.200000
618.534119	173.600000
620.866726	185.200000
623.200750	159.200000
625.532159	185.500000
627.862970	186.100000
630.193183	183.400000
632.522798	177.100000
634.847791	166.400000
637.178225	187.300000
639.504037	183.100000
641.827243	182.200000
644.151864	193.300000
646.473881	181.100000
648.795303	179.700000
651.114122	174.300000
653.434357	179.800000
655.753999	176.500000
658.071040	192.500000
660.387490	198.400000
662.701341	205.200000
665.016607	172.900000
667.329277	195.900000
669.643362	184.500000
671.952847	199.100000
674.263748	185.900000
676.572056	175.300000
678.879776	181.400000
681.188911	185.400000
683.493453	177.900000
685.797409	177.500000
688.100778	180.600000
690.405562	177.800000
692.705760	168.700000
695.007373	189.800000
697.308400	162.700000
699.604845	180.700000
701.902706	174.900000
704.199983	198.100000
706.496677	163.900000
708.788795	182.800000
711.084324	175.500000
713.375280	169.700000
715.667650	181.900000
717.957444	143.900000
720.246659	171.600000
722.535293	191.600000
724.821356	197.700000
727.108832	161.600000
729.393738	168.000000
731.678065	185.100000
733.959824	173.900000
736.242998	176.500000
738.525593	176.100000
740.803634	180.900000
743.083088	154.100000
745.361967	191.400000
747.640270	180.600000
749.914024	175.200000
752.189192	187.200000
754.463786	189.800000
756.735821	190.900000
759.009268	176.100000
761.280158	174.900000
763.548492	198.200000
765.818239	201.600000
768.085432	169.000000
770.352054	184.600000
772.618107	184.300000
774.881608	187.100000
777.146521	196.400000
779.410865	194.500000
781.670680	183.600000
783.931908	204.000000
786.192568	186.900000
788.450681	218.300000
790.706250	205.400000
792.965210	188.900000
795.217671	196.300000
797.475499	192.800000
799.728807	182.700000
801.979576	210.500000
804.231757	157.600000
806.481400	209.200000
808.732454	196.100000
810.978997	180.200000
813.226953	188.900000
815.472373	198.400000
817.719205	187.300000
819.965476	177.900000
822.207243	173.100000
824.452392	201.000000
826.691069	182.400000
828.933129	167.700000
831.170690	184.100000
833.409662	172.100000
835.646108	194.000000
837.883966	179.000000
840.119298	186.200000
842.352106	189.300000
844.586326	184.400000
846.818024	183.300000
849.049167	171.600000
851.279755	180.900000
853.509789	176.200000
855.739268	176.600000
857.964266	181.800000
860.192639	176.900000
862.416533	176.500000
864.641837	169.800000
866.862666	186.500000
869.086867	167.500000
871.306595	197.700000
873.527734	182.200000
875.748322	191.700000
877.966400	186.500000
880.185889	191.300000
882.400911	182.400000
884.615385	179.500000
886.829312	178.600000
889.042691	174.900000
891.255524	201.400000
893.467809	176.800000
895.677593	180.400000
897.886831	195.700000
900.095523	194.400000
902.301717	193.100000
904.509320	180.500000
906.714426	168.900000
908.918988	174.400000
911.121054	184.300000
913.324530	178.700000
915.525512	197.800000
917.725953	184.900000
919.927802	195.100000
922.123259	193.600000
924.322076	185.600000
926.516455	195.900000
928.714190	187.100000
930.907490	201.200000
933.102199	174.600000
935.294422	177.200000
937.486107	187.700000
939.677254	201.600000
941.865918	194.000000
944.054045	191.800000
946.239692	207.900000
948.428691	194.300000
950.613267	183.100000
952.797308	189.700000
954.984699	195.900000
957.163787	193.800000
959.346224	205.600000
961.528128	200.100000
963.707558	186.600000
965.884515	194.900000
968.062880	210.000000
970.242651	205.100000
972.416074	189.500000
974.592843	211.300000
976.765206	231.900000
978.938975	222.300000
981.108341	200.100000
983.281052	211.400000
985.451296	206.900000
987.621012	229.500000
989.790199	241.200000
991.954989	206.000000
994.123120	204.100000
996.286857	216.400000
998.452000	205.500000
1000.614685	220.100000
1002.776843	231.600000
1004.936545	237.600000
1007.095723	219.300000
1009.256307	213.300000
1011.414436	207.600000
1013.572041	215.400000
1015.729123	211.700000
1017.885682	218.800000
1020.037861	221.000000
1022.191446	237.800000
1024.344510	237.200000
1026.495126	237.900000
1028.647147	224.400000
1030.794795	224.400000
1032.945775	223.400000
1035.092384	226.500000
1037.238475	237.400000
1039.384046	211.400000
1041.531023	242.000000
1043.671712	242.500000
1045.815729	214.900000
1047.957306	237.900000
1050.098367	238.400000
1052.240832	244.000000
1054.377018	230.800000
1056.516530	245.000000
1058.651686	240.800000
1060.790167	241.600000
1062.924295	231.200000
1065.057908	241.900000
1067.192927	245.800000
1069.323596	239.200000
1071.455670	237.200000
1073.585315	229.200000
1075.714448	245.000000
1077.843069	228.500000
1079.971179	263.300000
1082.096863	234.400000
1084.222037	238.000000
1086.348615	243.100000
1088.470856	217.900000
1090.594500	236.400000
1092.713811	225.100000
1094.838350	213.200000
1096.956644	238.900000
1099.076343	229.400000
1101.193623	243.500000
1103.310397	201.700000
1105.426664	244.200000
1107.540516	231.300000
1109.655771	218.200000
1111.766704	218.200000
1113.880948	212.600000
1115.990872	200.500000
1118.102200	208.700000
1120.213024	218.500000
1122.319531	202.400000
1124.429347	222.000000
1126.534849	225.300000
1128.641754	222.100000
1130.742444	209.300000
1132.848346	227.100000
1134.949939	227.300000
1137.052935	233.100000
1139.155430	219.000000
1141.251719	222.000000
1143.353214	212.300000
1145.450407	223.200000
1147.547101	231.900000
1149.643298	232.300000
1151.738996	213.600000
1153.834197	213.100000
1155.927001	195.700000
1158.021207	207.100000
1160.109222	218.100000
1162.202435	223.200000
1164.289460	181.700000
1166.379785	213.200000
1168.465821	206.900000
1170.555155	198.000000
1172.638308	217.800000
1174.722864	213.600000
1176.808820	219.700000
1178.890495	209.700000
1180.973572	204.800000
1183.054263	196.700000
1185.134462	196.900000
1187.214170	222.800000
1189.293387	201.200000
1191.370222	209.300000
1193.444676	193.700000
1195.522422	209.500000
1197.595897	197.200000
1199.670773	210.900000
1201.741382	215.600000
1203.813393	206.600000
1205.883027	195.600000
1207.954062	195.000000
1210.024609	218.400000
1212.090895	215.800000
1214.158582	198.500000
1216.223897	197.200000
1218.290612	203.600000
1220.353071	216.400000
1222.418815	207.900000
1224.480306	204.200000
1226.543196	202.400000
1228.603719	201.300000
1230.663759	202.000000
1232.723315	198.100000
1234.780506	185.500000
1236.837216	212.300000
1238.891563	209.100000
1240.949190	202.000000
1243.004455	211.300000
1245.055479	223.700000
1247.107903	214.500000
1249.159848	219.100000
1251.209433	211.300000
1253.258540	220.500000
1255.307169	207.800000
1257.355319	195.300000
1259.402991	192.900000
1261.446432	200.500000
1263.493148	193.000000
1265.537512	206.800000
1267.581398	225.900000
1269.622934	194.500000
1271.662120	181.400000
1273.704578	198.500000
1275.742814	193.200000
1277.782449	211.800000
1279.821609	196.400000
1281.856551	223.000000
1283.892891	192.400000
1285.926886	212.600000
1287.962280	199.800000
1289.993460	213.500000
1292.026039	215.700000
1294.058145	237.700000
1296.087911	205.200000
1298.119075	194.300000
1300.146031	219.900000
1302.174385	226.900000
1304.198535	195.600000
1306.225949	219.200000
1308.249162	219.500000
1310.273771	242.600000
1312.296047	217.800000
1314.319720	236.600000
1316.341060	223.600000
1318.361932	210.300000
1320.382338	229.700000
1322.398549	226.100000
1324.416159	236.900000
1326.431440	229.300000
1328.449980	236.000000
1330.464330	230.300000
1332.476355	244.400000
1334.491637	248.000000
1336.502735	235.700000
1338.515228	242.000000
1340.523539	236.700000
1342.535106	255.300000
1344.540633	256.800000
1346.549416	242.200000
1348.554021	242.300000
1350.561880	248.000000
1352.569277	268.000000
1354.570643	238.700000
1356.573406	260.400000
1358.575708	230.600000
1360.577551	236.400000
1362.578935	225.400000
1364.578004	235.300000
1366.576615	225.000000
1368.574768	220.000000
1370.572463	220.500000
1372.565994	210.300000
1374.560922	188.100000
1376.555393	218.900000
1378.549407	212.100000
1380.541114	218.400000
1382.532365	228.700000
1384.521311	215.300000
1386.511652	210.900000
1388.501538	213.600000
1390.489121	212.000000
1392.476250	190.000000
1394.461077	216.500000
1396.447299	197.600000
1398.431220	191.300000
1400.414689	209.600000
1402.397706	221.900000
1404.378425	193.500000
1406.360538	205.700000
1408.340354	206.100000
1410.319720	190.100000
1412.294947	204.400000
1414.273412	202.500000
1416.249584	196.100000
1418.225306	191.000000
1420.200579	212.200000
1422.173561	207.700000
1424.146095	206.300000
1426.118182	193.900000
1428.089820	204.000000
1430.057331	222.600000
1432.029915	193.700000
1433.994693	198.200000
1435.964544	198.700000
1437.930270	208.200000
1439.897390	196.400000
1441.862225	205.400000
1443.822942	235.700000
1445.788726	204.600000
1447.748555	215.800000
1449.709777	218.200000
1451.672392	206.200000
1453.630892	217.500000
1455.588950	207.300000
1457.546565	197.100000
1459.503739	210.800000
1461.458637	222.100000
1463.414927	212.100000
1465.368943	215.500000
1467.322519	224.300000
1469.273822	203.400000
1471.226517	216.700000
1473.176941	227.400000
1475.126926	198.800000
1477.076471	221.900000
1479.023748	217.100000
1480.968758	218.400000
1482.915159	220.400000
1484.861124	221.200000
1486.806650	223.700000
1488.749912	220.300000
1490.692737	235.600000
1492.633299	230.600000
1494.575252	227.000000
1496.514944	217.000000
1498.454200	236.300000
1500.393022	219.000000
1502.329583	208.500000
1504.267536	221.100000
1506.203231	230.400000
1508.138492	226.600000
1510.071496	225.000000
1512.004068	233.800000
1513.936208	226.600000
1515.867916	218.600000
1517.797370	245.000000
1519.728215	233.300000
1521.658629	253.100000
1523.584970	238.700000
1525.512701	251.100000
1527.438182	238.400000
1529.363234	249.700000
1531.287857	252.000000
1533.212051	265.200000
1535.133998	283.200000
1537.057334	282.100000
1538.978425	286.900000
1540.897271	287.500000
1542.817507	331.300000
1544.735499	338.700000
1546.653065	364.100000
1548.568389	392.000000
1550.485103	455.000000
1552.397762	495.300000
1554.313625	535.900000
1556.227248	605.400000
1558.138634	710.500000
1560.051408	803.200000
1561.960133	916.000000
1563.870248	1029.300000
1565.779939	1096.200000
1567.689206	1145.400000
1569.596240	1169.200000
1571.501041	1085.200000
1573.407231	994.400000
1575.311189	887.600000
1577.214727	753.400000
1579.117843	670.300000
1581.018731	599.200000
1582.921006	494.500000
1584.821054	469.500000
1586.722490	421.600000
1588.619891	392.900000
1590.516874	362.300000
1592.413439	334.800000
1594.311392	323.000000
1596.203510	300.400000
1598.098821	285.800000
1599.993715	302.900000
1601.886387	291.500000
1603.778643	276.500000
1605.668679	272.800000
1607.558299	295.700000
1609.447504	303.200000
1611.336293	261.400000
1613.222866	259.600000
1615.110825	260.500000
1616.994768	252.600000
1618.880099	251.300000
1620.765015	238.900000
1622.647719	236.900000
1624.531808	235.700000
1626.411887	220.500000
1628.293352	224.200000
1630.172607	234.300000
1632.053248	236.800000
1633.928085	225.500000
1635.807904	229.900000
1637.683717	236.400000
1639.559121	221.400000
1641.435910	225.800000
1643.306902	219.300000
1645.181076	213.800000
1647.051252	225.700000
1648.924608	199.500000
1650.795761	210.900000
1652.664712	235.900000
1654.535049	195.300000
1656.401392	201.200000
1658.269121	209.000000
1660.134652	217.000000
1662.001567	215.600000
1663.864494	200.600000
1665.728806	200.200000
1667.590922	232.300000
1669.452634	182.500000
1671.315730	204.100000
1673.176632	209.100000
1675.035340	217.600000
1676.893645	214.800000
1678.753335	215.900000
1680.607258	210.700000
1682.464353	198.400000
1684.321046	202.900000
1686.173763	218.500000
1688.029651	192.900000
1689.881564	201.500000
1691.733077	230.700000
1693.584190	214.300000
1695.434901	206.200000
1697.285212	207.200000
1699.133339	189.300000
1700.982849	199.400000
1702.826611	201.600000
1704.675323	203.700000
1706.518288	190.000000
1708.364419	222.600000
1710.206589	206.700000
1712.051923	202.000000
1713.891517	217.000000
1715.732495	193.000000
1717.574856	211.300000
1719.413261	196.500000
1721.253049	210.500000
1723.090662	206.700000
1724.927879	204.600000
1726.762923	207.300000
1728.599350	197.100000
1730.433605	194.500000
1732.267465	186.600000
1734.100932	199.700000
1735.930452	200.500000
1737.763131	178.800000
1739.591866	200.000000
1741.423759	190.700000
1743.251709	201.400000
1745.079267	219.700000
1746.906433	191.800000
1748.733208	196.100000
1750.559592	190.800000
1752.382039	199.900000
1754.207640	196.800000
1756.029307	206.400000
1757.852356	197.900000
1759.673244	182.600000
1761.493742	191.700000
1763.315622	193.100000
1765.131802	185.500000
1766.951134	192.700000
1768.766539	184.000000
1770.585094	191.600000
1772.399725	177.100000
1774.213968	197.100000
1776.027824	187.800000
1777.841294	202.700000
1779.652611	192.500000
1781.465309	177.700000
1783.277620	191.400000
1785.086014	183.200000
1786.895789	197.100000
1788.701648	191.400000
1790.510654	191.700000
1792.315746	186.800000
1794.122218	189.700000
1795.928307	191.300000
1797.730486	184.000000
1799.535808	193.900000
1801.337222	181.300000
1803.140016	195.100000
1804.938904	185.500000
1806.739173	210.700000
1808.539060	186.900000
1810.336806	178.000000
1812.134171	188.400000
1813.931155	195.800000
1815.727759	182.400000
1817.522224	181.500000
1819.318068	194.600000
1821.108258	198.000000
1822.903344	198.900000
1824.692777	201.600000
1826.485347	214.600000
1828.275782	204.700000
1830.064083	201.700000
1831.855519	203.200000
1833.641309	199.700000
1835.428479	199.900000
1837.213517	196.200000
1839.001689	201.500000
1840.785975	196.200000
1842.568132	176.600000
1844.351667	189.600000
1846.133074	179.100000
1847.915860	184.200000
1849.694766	192.400000
1851.475050	201.900000
1853.253208	208.200000
1855.032745	174.000000
1856.810157	196.200000
1858.585445	201.200000
1860.362112	209.100000
1862.136656	182.600000
1863.912577	199.300000
1865.682879	185.800000
1867.456308	204.900000
1869.227617	213.700000
1870.998555	211.100000
1872.770870	201.400000
1874.537573	204.900000
1876.307400	177.000000
1878.073364	175.300000
1879.842452	176.300000
1881.607678	197.500000
1883.372536	206.700000
1885.138770	174.000000
1886.901146	196.200000
1888.663155	203.700000
1890.424797	200.200000
1892.186071	210.500000
1893.946978	186.800000
1895.707519	201.000000
1897.465950	180.000000
1899.224016	175.800000
1900.979973	189.000000
1902.737308	189.800000
1904.494276	192.700000
1906.249139	199.200000
1908.001896	201.200000
1909.754290	194.200000
1911.508059	178.500000
1913.259725	200.500000
1915.009289	190.900000
1916.760229	189.200000
1918.510805	182.200000
1920.257543	202.000000
1922.005656	171.200000
1923.751670	192.000000
1925.499060	192.700000
1927.244351	210.300000
1928.987545	188.800000
1930.732115	194.400000
1932.474588	185.100000
1934.216701	188.500000
1935.958454	187.700000
1937.699848	196.100000
1939.439148	174.600000
1941.178089	195.100000
1942.916671	185.500000
1944.653161	201.900000
1946.389294	196.950000
1948.126801	192.000000
1949.860487	191.900000
1951.595546	200.200000
1953.328518	175.700000
1955.061133	178.800000
1956.793391	172.500000
1958.525293	175.200000
1960.255109	201.400000
1961.982841	178.300000
1963.711946	207.900000
1965.440697	209.600000
1967.167364	207.200000
1968.893677	192.400000
1970.621363	184.000000
1972.343513	201.200000
1974.068764	180.300000
1975.790209	169.500000
1977.514753	173.100000
1979.237218	188.900000
1980.955879	206.400000
1982.677639	187.400000
1984.395597	185.900000
1986.114929	192.000000
1987.830460	194.400000
1989.550813	204.500000
1991.267366	197.500000
1992.980124	205.600000
1994.695977	186.500000
1996.409757	194.600000
1998.123188	200.400000
1999.834548	207.900000
2001.547281	192.300000
2003.256222	201.500000
2004.968257	212.500000
2006.674782	177.800000
2008.384400	199.400000
2010.091950	179.500000
2011.799153	190.700000
2013.504290	206.200000
2015.209080	187.100000
2016.915242	182.300000
2018.617622	186.300000
2020.321374	202.000000
2022.023062	181.200000
2023.724406	175.700000
2025.425404	171.400000
2027.124342	185.500000
2028.824650	189.100000
2030.521184	186.100000
2032.219089	220.000000
2033.914936	196.800000
2035.613867	201.400000
2037.307313	203.900000
2039.002131	189.900000
2040.696605	189.800000
2042.387311	180.400000
2044.081101	181.000000
2045.771124	188.300000
2047.462518	172.500000
2049.151859	184.900000
2050.842570	181.900000
2052.529519	173.000000
2054.216127	188.900000
2055.904106	182.100000
2057.588325	175.000000
2059.273914	183.100000
2060.959164	200.100000
2062.642366	178.400000
2064.326937	192.600000
2066.006046	184.000000
2067.689940	191.400000
2069.368374	170.700000
2071.049884	196.200000
2072.727644	178.300000
2074.405066	193.800000
2076.083859	197.300000
2077.760608	170.100000
2079.435316	171.900000
2081.111393	174.800000
2082.785430	172.100000
2084.459131	184.200000
2086.132497	182.300000
2087.803825	164.100000
2089.474818	177.300000
2091.145477	190.100000
2092.815801	184.600000
2094.485792	193.500000
2096.153747	184.800000
2097.821369	177.100000
2099.486957	172.600000
2101.153913	187.400000
2102.818836	165.700000
2104.483426	196.700000
2106.145985	183.500000
2107.809912	192.100000
2109.471809	182.900000
2111.133374	183.400000
2112.794609	191.300000
2114.453814	183.100000
2116.112690	184.300000
2117.771235	187.600000
2119.429451	201.600000
2121.083943	200.800000
2122.741500	176.300000
2124.398728	217.700000
2126.052235	189.100000
2127.707109	187.300000
2129.358264	172.700000
2131.012481	183.300000
2132.662982	181.300000
2134.314849	175.000000
2135.961308	171.900000
2137.612522	179.300000
2139.260022	196.600000
2140.908889	197.000000
2142.555738	197.700000
2144.202260	185.300000
2145.848457	186.000000
2147.490946	197.000000
2149.136493	183.400000
2150.778333	169.300000
2152.423230	173.500000
2154.064422	170.200000
2155.705290	163.900000
2157.345835	200.600000
2158.984367	187.100000
2160.624265	192.000000
2162.260463	189.300000
2163.898027	195.300000
2165.535268	176.000000
2167.170500	181.300000
2168.805411	188.200000
2170.440000	196.000000
2172.074267	205.200000
2173.704842	186.300000
2175.338467	174.000000
2176.968401	188.000000
2178.599700	191.000000
2180.228995	187.000000
2181.857969	175.600000
2183.486625	175.800000
2185.114961	189.500000
2186.741294	196.600000
2188.367309	184.700000
2189.991323	194.900000
2191.616701	198.000000
2193.240080	178.000000
2194.864822	185.700000
2196.485884	176.000000
2198.106629	175.500000
2199.728739	183.300000
2201.348851	190.800000
2202.966967	188.900000
2204.584767	175.100000
2206.202251	168.100000
2207.819420	175.700000
2209.436274	174.200000
2211.052813	182.200000
2212.667358	180.700000
2214.279911	187.700000
2215.893828	185.700000
2217.505754	164.800000
2219.119043	190.300000
2220.730342	194.700000
2222.339651	175.300000
2223.950324	189.100000
2225.559008	168.700000
2227.167380	186.600000
2228.773764	176.200000
2230.381512	174.600000
2231.987273	170.700000
2233.592723	165.900000
2235.196189	166.900000
2236.801017	184.200000
2238.403861	176.900000
2240.004722	185.600000
2241.606946	181.800000
2243.207187	185.600000
2244.808791	167.600000
2246.406743	169.900000
2248.006057	160.900000
2249.603391	164.700000
2251.200417	190.000000
2252.798804	182.100000
2254.393543	196.300000
2255.986306	187.200000
2257.580430	190.400000
2259.175916	181.000000
2260.767758	164.100000
2262.359293	174.500000
2263.952189	173.000000
2265.539776	168.700000
2267.132060	184.600000
2268.719036	192.500000
2270.309041	180.800000
2271.893741	176.500000
2273.483135	164.300000
2275.067226	182.500000
2276.652679	186.500000
2278.236162	160.500000
2279.822672	183.500000
2281.405548	170.300000
2282.988120	168.400000
2284.570389	173.100000
2286.149029	182.200000
2287.730692	171.800000
2289.308727	175.100000
2290.889786	178.000000
2292.467217	173.950000
2294.042685	169.900000
2295.621174	187.600000
2297.196040	173.500000
2298.770605	188.700000
2300.344870	174.800000
2301.918834	169.600000
2303.492498	178.300000
2305.065861	187.800000
2306.635606	179.100000
2308.205052	165.300000
2309.777517	170.700000
2311.344706	176.500000
2312.914914	159.800000
2314.481507	177.700000
2316.049460	165.400000
2317.615458	175.000000
2319.181157	179.600000
2320.746560	186.200000
2322.310009	182.600000
2323.874816	208.900000
2325.436016	203.400000
2327.000230	206.100000
2328.559183	193.600000
2330.121149	182.300000
2331.681165	158.700000
2333.240885	182.100000
2334.798656	177.200000
2336.356133	179.600000
2337.913314	175.400000
2339.468549	198.100000
2341.023489	178.900000
2342.578136	186.500000
2344.132489	185.100000
2345.686548	164.100000
2347.240314	191.900000
2348.792135	165.100000
2350.342013	170.100000
2351.894899	170.500000
2353.442543	169.300000
2354.993194	174.900000
2356.540255	176.200000
2358.088673	192.000000
2359.636799	158.400000
2361.181338	184.000000
2362.727234	154.500000
2364.271191	190.000000
2365.816506	176.000000
2367.358236	165.400000
2368.901323	157.100000
2370.442475	165.000000
2371.983337	157.700000
2373.523910	178.600000
2375.064194	175.900000
2376.604189	174.000000
2378.140605	173.600000
2379.680023	164.900000
2381.215864	173.200000
2382.753061	170.500000
2384.286684	150.000000
2385.823306	162.900000
2387.357997	173.600000
2388.890759	183.500000
2390.423235	193.100000
2391.953782	169.400000
2393.487327	164.700000
2395.015661	178.300000
2396.545351	160.700000
2398.074756	195.900000
2399.603875	166.800000
2401.132710	178.400000
2402.656340	191.500000
2404.184605	188.100000
2405.707667	174.900000
2407.235363	172.800000
2408.756220	173.700000
2410.281710	188.000000
2411.803639	180.600000
2413.326924	185.100000
2414.848288	203.000000
2416.367732	189.200000
2417.888531	172.500000
2419.407411	197.000000
2420.926009	188.100000
2422.442690	197.400000
2423.960725	196.200000
2425.478479	183.100000
2426.992682	197.000000
2428.506604	180.100000
2430.020247	185.700000
2431.535243	168.500000
2433.046691	199.700000
2434.559494	186.400000
2436.070384	209.800000
2437.580994	201.800000
2439.089693	192.500000
2440.601379	189.400000
2442.109521	194.600000
2443.617384	173.800000
2445.124970	175.200000
2446.629015	189.100000
2448.136046	187.800000
2449.641168	180.100000
2451.146013	183.400000
2452.648951	199.500000
2454.151612	178.900000
2455.653997	178.600000
2457.154477	179.000000
2458.656310	193.500000
2460.156239	175.600000
2461.655892	180.200000
2463.155270	179.600000
2464.652744	183.600000
2466.148318	163.000000
2467.646871	198.400000
2469.141895	172.700000
2470.638273	162.000000
2472.131124	171.500000
2473.625327	152.500000
2475.119257	175.400000
2476.609664	168.800000
2478.103047	173.000000
2479.594533	168.600000
2481.084122	180.400000
2482.573439	173.800000
2484.060861	163.500000
2485.551258	167.600000
2487.038136	162.400000
2488.526366	174.500000
2490.011080	166.900000
2491.495523	149.300000
2492.981318	185.400000
2494.465220	184.100000
2495.950474	173.700000
2497.430594	164.100000
2498.913686	173.000000
2500.394888	162.700000
2501.875821	180.300000
2503.354865	172.300000
2504.833641	172.700000
2506.312147	157.900000
2507.790386	174.800000
2509.268356	163.600000
2510.742822	164.100000
2512.220256	177.900000
2513.694187	160.000000
2515.169469	155.300000
2516.644483	167.100000
2518.115996	165.500000
2519.588860	166.800000
2521.059840	174.500000
2522.532171	160.700000
2523.999389	156.400000
2525.469572	183.900000
2526.937875	177.500000
2528.405913	158.000000
2529.873686	192.800000
2531.341194	175.300000
2532.808437	174.700000
2534.272188	163.200000
2535.737290	175.200000
2537.200513	180.000000
2538.665087	176.100000
2540.126171	189.500000
2541.588605	172.600000
2543.050776	165.000000
2544.509461	169.000000
2545.972718	174.200000
2547.430878	188.300000
2548.890387	166.800000
2550.344803	165.400000
2551.803788	185.100000
2553.260902	174.900000
2554.716145	180.400000
2556.171127	193.700000
2557.624239	167.000000
2559.078700	182.500000
2560.531292	155.000000
2561.983624	169.200000
2563.434088	170.000000
2564.887508	168.800000
2566.335846	168.800000
2567.787140	179.200000
2569.236567	158.300000
2570.682523	170.200000
2572.131433	186.300000
2573.576872	196.500000
2575.023660	158.300000
2576.468584	181.200000
2577.913251	171.200000
2579.359265	190.200000
2580.801812	180.400000
2582.245707	174.900000
2583.686137	158.800000
2585.127915	183.000000
2586.567832	189.400000
2588.009097	175.100000
2589.446901	183.300000
2590.887654	198.400000
2592.323344	181.500000
2593.761984	187.100000
2595.198767	180.100000
2596.633693	182.700000
2598.071568	186.200000
2599.504385	192.100000
2600.938548	185.700000
2602.370858	177.500000
2603.804514	189.900000
2605.236317	193.100000
2606.667867	201.900000
2608.099163	196.400000
2609.528608	200.700000
2610.957800	196.800000
2612.385141	210.800000
2613.813829	204.800000
2615.242264	206.200000
2616.667252	209.100000
2618.093587	207.100000
2619.518073	196.200000
2620.943905	207.300000
2622.366293	194.300000
2623.790027	209.200000
2625.211915	225.100000
2626.633552	227.700000
2628.053344	212.700000
2629.474482	222.100000
2630.895370	253.100000
2632.312820	243.400000
2633.733209	241.000000
2635.150161	240.200000
2636.566865	220.900000
2637.983320	259.000000
2639.399527	260.000000
2640.815485	260.400000
2642.229603	256.800000
2643.643474	246.000000
2645.055505	265.000000
2646.468881	276.800000
2647.878827	265.200000
2649.291708	270.300000
2650.701162	269.900000
2652.110369	285.200000
2653.517740	293.500000
2654.928045	290.600000
2656.336514	316.100000
2657.743148	284.000000
2659.149537	309.800000
2660.554092	304.200000
2661.959991	312.100000
2663.364057	344.700000
2664.767879	343.200000
2666.171456	332.100000
2667.573201	323.800000
2668.976290	345.000000
2670.375962	349.900000
2671.776976	345.300000
2673.174575	339.300000
2674.575104	339.200000
2675.972218	357.900000
2677.370675	353.000000
2678.767304	383.100000
2680.163691	375.100000
2681.559837	367.000000
2682.954156	343.000000
2684.349818	360.700000
2685.742070	344.700000
2687.135666	360.600000
2688.527437	349.700000
2689.920550	360.900000
2691.311840	361.900000
2692.701307	350.200000
2694.090535	351.300000
2695.479522	335.500000
2696.869852	351.000000
2698.255197	348.200000
2699.643466	358.400000
2701.029915	337.700000
2702.416125	342.300000
2703.802097	335.800000
2705.184670	345.100000
2706.568584	318.900000
2707.952261	304.700000
2709.335700	296.400000
2710.715743	292.200000
2712.097128	278.300000
2713.476697	279.900000
2714.857608	286.900000
2716.236704	275.300000
2717.613985	272.500000
2718.992608	253.000000
2720.369418	264.100000
2721.745992	251.300000
2723.122330	249.000000
2724.496856	239.800000
2725.872723	221.700000
2727.245203	225.600000
2728.620600	207.600000
2729.991035	227.100000
2731.362812	221.000000
2732.734355	212.900000
2734.104089	199.500000
2735.475163	204.000000
2736.844430	193.500000
2738.213463	211.500000
2739.580689	216.200000
2740.947683	189.100000
2742.314444	181.700000
2743.680972	167.500000
2745.045695	173.600000
2746.410187	178.200000
2747.774446	183.900000
2749.138474	186.300000
2750.502269	165.100000
2751.862691	158.400000
2753.226024	177.100000
2754.584414	172.500000
2755.945714	182.900000
2757.303643	173.400000
2758.664482	152.100000
2760.023520	152.400000
2761.379190	165.900000
2762.737768	164.300000
2764.092980	169.900000
2765.447962	154.200000
2766.801147	159.300000
2768.157239	168.000000
2769.509967	188.500000
2770.862466	176.800000
2772.214737	166.100000
2773.568347	164.700000
2774.918595	163.600000
2776.267050	157.100000
2777.618409	148.300000
2778.966409	175.900000
2780.315748	155.200000
2781.663294	147.100000
2783.010613	173.700000
2784.357706	159.600000
2785.703008	164.200000
2787.048084	143.700000
2788.392934	157.100000
2789.737557	161.700000
2791.078829	157.000000
2792.421439	139.600000
2793.763824	158.800000
2795.105983	148.900000
2796.444793	150.700000
2797.786502	144.100000
2799.124864	176.000000
2800.464563	167.100000
2801.802476	147.400000
2803.138605	154.600000
2804.474511	138.300000
2805.811753	138.400000
2807.147212	140.900000
2808.482448	144.900000
2809.815902	114.200000
2811.150692	147.800000
2812.482141	161.300000
2813.816486	142.200000
2815.145933	137.400000
2816.476717	135.000000
2817.807279	153.600000
2819.136062	149.500000
2820.466182	138.800000
2821.794522	137.300000
2823.122642	143.200000
2824.448985	147.500000
2825.776663	152.800000
2827.101009	136.500000
2828.426690	138.600000
2829.750596	156.200000
2831.074283	142.000000
2832.399305	140.600000
2833.720998	128.300000
2835.042471	143.000000
2836.363726	140.400000
2837.684762	131.400000
2839.004026	137.500000
2840.324625	149.100000
2841.643452	127.300000
2842.962061	139.400000
2844.278900	124.900000
2845.595521	131.500000
2846.911924	142.900000
2848.226559	137.700000
2849.542528	112.900000
2850.855177	137.100000
2852.169162	146.400000
2853.482930	139.900000
2854.796481	157.400000
2856.108265	135.700000
2857.418284	143.200000
2858.729636	138.400000
2860.037674	140.400000
2861.347047	133.000000
2862.656204	144.000000
2863.965146	126.000000
2865.272325	130.900000
2866.577740	137.300000
2867.884490	131.200000
2869.189477	115.900000
2870.494251	136.600000
2871.797263	168.300000
2873.103157	124.700000
2874.404195	109.600000
2875.706568	144.400000
2877.007181	136.200000
2878.309128	133.100000
2879.610862	143.600000
2880.909292	133.600000
2882.209055	121.200000
2883.507060	137.200000
2884.804854	135.500000
2886.100892	142.000000
2887.398263	132.400000
2888.693878	127.600000
2889.989282	131.600000
2891.284476	138.100000
2892.576371	130.000000
2893.871143	157.600000
2895.162618	129.300000
2896.455427	111.700000
2897.748024	115.400000
2899.037328	128.200000
2900.327964	136.100000
2901.616849	133.700000
2902.907067	138.000000
2904.193993	127.800000
2905.482251	149.900000
2906.768759	125.200000
2908.055060	110.200000
2909.341152	152.300000
2910.625496	135.700000
2911.912712	141.100000
2913.195101	143.500000
2914.478821	167.100000
2915.760796	126.600000
2917.042564	136.400000
2918.322586	123.200000
2919.605478	133.400000
2920.886625	139.000000
2922.164490	130.500000
2923.445224	126.400000
2924.722677	132.800000
2925.999925	135.400000
2927.275430	129.400000
2928.553803	133.000000
2929.827361	125.000000
2931.103787	112.600000
2932.378472	130.800000
2933.651417	117.600000
2934.925692	148.700000
2936.198228	115.200000
2937.470560	131.900000
2938.739619	137.300000
2940.011542	125.000000
2941.281728	128.000000
2942.551711	111.100000
2943.821490	121.900000
2945.089532	124.200000
2946.355839	112.100000
2947.621943	134.500000
2948.889377	118.400000
2950.155077	129.600000
2951.420574	135.000000
2952.685869	131.700000
2953.947899	119.100000
2955.211260	128.700000
2956.474419	125.200000
2957.735845	146.500000
2958.998601	134.800000
2960.259626	121.500000
2961.518920	139.400000
2962.778013	113.200000
2964.036906	123.200000
2965.295599	129.200000
2966.554092	107.600000
2967.810856	135.700000
2969.067420	123.500000
2970.322257	136.100000
2971.578423	119.700000
2972.831333	124.300000
2974.085573	139.000000
2975.339614	125.900000
2976.591929	108.600000
2977.844046	124.800000
2979.094438	122.700000
2980.347685	115.800000
2981.596155	122.100000
2982.847479	125.000000
2984.095555	137.300000
2985.343433	118.700000
2986.591114	117.300000
2987.838599	114.400000
2989.084362	113.100000
2990.329928	106.500000
2991.576823	130.700000
2992.820472	131.700000
2994.065450	121.400000
2995.307185	135.800000
2996.551771	117.300000
2997.794637	123.800000
2999.034263	111.400000
3000.276740	124.100000
3001.515976	114.900000
3002.756540	146.300000
3003.995387	118.700000
3005.234040	122.500000
3006.470977	111.400000
3007.709241	107.900000
3008.945791	130.500000
3010.182146	111.600000
3011.418308	122.100000
3012.652757	119.300000
3013.887012	106.700000
3015.121074	117.600000
3016.353424	117.800000
3017.584062	109.300000
3018.817546	107.700000
3020.049318	116.300000
3021.279380	122.700000
3022.509250	106.200000
3023.737410	121.800000
3024.966896	118.500000
3026.194674	118.800000
3027.422260	127.900000
3028.651172	129.100000
3029.875342	113.400000
3031.102355	122.600000
3032.326145	118.500000
3033.551260	134.700000
3034.774669	102.300000
3035.997889	114.400000
3037.219403	117.300000
3038.443758	120.600000
3039.663378	131.700000
3040.884323	104.900000
3042.105080	98.200000
3043.324133	116.500000
3044.544512	101.300000
3045.761674	123.100000
3046.980161	124.200000
3048.196947	104.400000
3049.413544	110.000000
3050.629954	108.300000
3051.843150	121.500000
3053.059184	95.200000
3054.272006	117.200000
3055.487665	109.800000
3056.698601	100.900000
3057.910862	93.100000
3059.122937	108.500000
3060.334825	93.500000
3061.545015	103.000000
3062.755020	123.500000
3063.964838	113.900000
3065.172960	122.900000
3066.380896	119.000000
3067.587138	120.800000
3068.794703	108.900000
3070.000575	108.100000
3071.206261	107.300000
3072.411762	99.500000
3073.615571	128.200000
3074.820703	110.900000
3076.024142	113.400000
3077.225889	101.900000
3078.427453	124.600000
3079.628833	103.400000
3080.830029	130.600000
3082.029535	102.100000
3083.228857	101.000000
3084.429503	118.700000
3085.628460	107.800000
3086.824221	118.200000
3088.022812	111.400000
3089.218209	102.400000
3090.414929	102.100000
3091.608457	101.100000
3092.804814	114.000000
3093.999483	115.100000
3095.190962	127.300000
3096.386772	108.800000
3097.577889	122.800000
3098.770328	104.800000
3099.959580	111.900000
3101.151658	111.600000
3102.342051	134.600000
3103.529259	100.700000
3104.717790	103.800000
3105.907643	107.000000
3107.094311	113.200000
3108.280800	105.300000
3109.467109	126.500000
3110.654740	134.100000
3111.839190	114.400000
3113.021959	124.400000
3114.207552	99.000000
3115.391464	100.200000
3116.573698	103.600000
3117.755754	100.500000
3118.937631	91.900000
3120.119330	102.200000
3121.299351	124.100000
3122.477696	109.800000
3123.658862	91.800000
3124.836852	115.500000
3126.014665	116.800000
3127.192301	107.200000
3128.368262	111.300000
3129.544047	108.800000
3130.721152	102.700000
3131.896583	100.800000
3133.070341	95.600000
3134.242427	92.300000
3135.415833	104.200000
3136.589064	96.900000
3137.760622	116.800000
3138.933502	118.300000
3140.103214	109.000000
3141.274247	127.000000
3142.443609	109.100000
3143.611302	103.100000
3144.781810	117.000000
3145.947659	106.800000
3147.117818	105.100000
3148.283319	110.500000
3149.448647	99.900000
3150.613801	120.200000
3151.778781	111.300000
3152.945082	97.400000
3154.106729	125.300000
3155.269697	103.800000
3156.432491	102.000000
3157.595113	106.100000
3158.756070	122.700000
3159.916854	103.600000
3161.077466	97.700000
3162.236415	97.500000
3163.395191	104.000000
3164.553796	103.900000
3165.712229	103.800000
3166.870490	97.800000
3168.027089	93.500000
3169.182027	113.300000
3170.338284	88.300000
3171.492881	97.100000
3172.647306	108.100000
3173.800072	108.500000
3174.952668	114.800000
3176.105093	113.700000
3177.257349	110.900000
3178.409435	112.100000
3179.558374	90.400000
3180.710120	98.500000
3181.860209	117.900000
3183.008640	100.600000
3184.156903	94.200000
3185.304997	98.600000
3186.452921	105.900000
3187.599191	102.200000
3188.745292	115.300000
3189.889738	106.000000
3191.034017	115.000000
3192.178128	95.200000
3193.323557	108.900000
3194.465847	100.900000
3195.607969	105.600000
3196.749925	113.600000
3197.891713	105.700000
3199.033334	109.800000
3200.171819	103.600000
3201.311622	110.200000
3202.452743	114.300000
3203.590729	120.500000
3204.727066	110.600000
3205.863237	114.800000
3207.000726	100.300000
3208.136566	112.400000
3209.273722	95.200000
3210.406266	112.300000
3211.543092	108.400000
3212.675306	101.400000
3213.808838	121.000000
3214.942204	122.100000
3216.072443	119.300000
3217.205480	114.300000
3218.335391	99.800000
3219.466619	100.100000
3220.594721	111.700000
3221.725620	119.700000
3222.854876	113.700000
3223.982487	114.000000
3225.106977	96.900000
3226.235742	93.900000
3227.361385	85.200000
3228.486865	114.300000
3229.610704	117.300000
3230.737337	93.300000
3231.859373	98.300000
3232.982725	88.800000
3234.105915	99.700000
3235.228943	99.800000
3236.350331	97.900000
3237.471558	102.800000
3238.591146	84.800000
3239.710573	89.500000
3240.828362	93.400000
3241.948944	100.900000
3243.066411	84.800000
3244.183719	102.800000
3245.300865	87.700000
3246.416376	95.700000
3247.533202	95.700000
3248.646917	96.700000
3249.763423	100.300000
3250.878293	80.600000
3251.990055	103.500000
3253.101658	86.200000
3254.214575	119.300000
3255.327334	108.300000
3256.436986	87.100000
3257.547953	96.100000
3258.658761	103.100000
3259.767937	96.700000
3260.875482	92.800000
3261.984342	87.700000
3263.093043	86.300000
3264.198642	79.400000
3265.305556	108.100000
3266.410840	105.900000
3267.517438	85.200000
3268.620936	92.800000
3269.725748	100.900000
3270.830403	73.500000
3271.931959	85.000000
3273.033360	90.400000
3274.136074	103.900000
3275.238631	94.700000
3276.338093	94.900000
3277.440337	92.700000
3278.539487	93.600000
3279.637011	91.400000
3280.734380	100.600000
3281.834532	101.000000
3282.931590	84.700000
3284.028493	71.800000
3285.125242	93.800000
3286.217431	102.800000
3287.313870	108.700000
3288.408686	104.600000
3289.503347	96.300000
3290.596387	96.400000
3291.689273	83.300000
3292.780538	88.500000
3293.873116	94.500000
3294.964073	81.300000
3296.053412	107.700000
3297.142597	98.500000
3298.233094	73.900000
3299.320507	85.500000
3300.407768	81.400000
3301.496341	78.600000
3302.584761	85.200000
3303.668634	94.500000
3304.756749	99.400000
3305.841783	101.200000
3306.925201	94.400000
3308.009930	91.800000
3309.093045	107.900000
3310.177471	108.300000
3311.258819	80.400000
3312.341479	95.000000
3313.422525	82.800000
3314.503420	91.700000
3315.582702	90.200000
3316.661833	88.200000
3317.742275	99.000000
3318.819644	93.600000
3319.898324	95.100000
3320.975392	92.200000
3322.052310	91.500000
3323.127617	86.200000
3324.202775	98.200000
3325.279245	95.500000
3326.352643	84.400000
3327.425893	97.700000
3328.500454	92.100000
3329.573405	100.400000
3330.644749	93.000000
3331.717403	121.600000
3332.786990	81.200000
3333.857888	89.500000
3334.927179	80.100000
3335.997781	104.900000
3337.066776	74.200000
3338.134165	89.700000
3339.199949	83.900000
3340.269959	76.600000
3341.336906	91.200000
3342.400791	91.000000
3343.467444	87.200000
3344.532492	83.400000
3345.595938	85.400000
3346.659236	82.700000
3347.722389	71.500000
3348.785395	91.400000
3349.848254	88.900000
3350.909512	94.300000
3351.967713	95.500000
3353.030135	86.000000
3354.089500	88.200000
3355.148720	80.100000
3356.209250	67.700000
3357.265270	66.100000
3358.324055	90.800000
3359.378332	106.300000
3360.435372	90.400000
3361.490815	81.800000
3362.547566	63.500000
3363.602720	78.200000
3364.656276	85.800000
3365.708235	91.500000
3366.762956	78.500000
3367.814628	84.800000
3368.866157	71.700000
3369.918995	93.300000
3370.968785	95.000000
3372.019883	66.200000
3373.067936	98.700000
3374.118749	72.000000
3375.166516	71.400000
3376.214141	69.100000
3377.261624	75.800000
3378.307513	88.000000
3379.354711	67.200000
3380.398867	87.900000
3381.445781	69.600000
3382.491103	91.200000
3383.533385	108.400000
3384.575525	88.600000
3385.618974	90.700000
3386.662281	85.800000
3387.703998	104.900000
3388.745574	103.200000
3389.787010	78.000000
3390.826856	87.200000
3391.865115	89.500000
3392.904681	85.600000
3393.944106	91.100000
3394.981945	93.900000
3396.018196	74.500000
3397.054307	83.600000
3398.091726	88.700000
3399.126112	79.400000
3400.161805	71.900000
3401.197359	84.000000
3402.229882	97.200000
3403.265158	73.900000
3404.297403	82.700000
3405.329510	76.200000
3406.360033	85.200000
3407.391864	78.200000
3408.423555	68.000000
3409.452220	80.000000
3410.480746	81.200000
3411.510580	94.700000
3412.540275	80.300000
3413.566945	84.300000
3414.594922	100.800000
3415.619874	90.000000
3416.647576	88.200000
3417.672255	80.400000
3418.698240	57.200000
3419.722645	85.500000
3420.746914	82.900000
3421.769604	70.100000
3422.792158	86.200000
3423.816018	86.700000
3424.836858	82.100000
3425.857563	79.600000
3426.879573	95.400000
3427.898565	96.000000
3428.917422	74.400000
3429.937584	86.900000
3430.954730	81.100000
