-116.707459	32.000000
-114.037859	4.000000
-111.371194	35.666667
-108.705281	52.000000
-106.042300	6.666667
-103.377890	14.333333
-100.716410	4.000000
-98.053501	28.000000
-95.395698	-25.000000
-92.736466	37.333333
-90.077982	14.000000
-87.422422	4.333333
-84.765434	8.333333
-82.113544	52.333333
-79.460224	31.000000
-76.809823	8.333333
-74.157993	-11.333333
-71.511254	17.666667
-68.863086	14.000000
-66.215660	6.333333
-63.571148	31.666667
-60.925208	0.666667
-58.284349	6.000000
-55.642061	28.666667
-53.002682	16.333333
-50.361873	8.000000
-47.721805	36.000000
-45.086809	2.666667
-42.450385	17.333333
-39.816863	30.000000
-37.181913	39.333333
-34.552028	2.000000
-31.918551	-5.333333
-29.290136	21.333333
-26.662455	9.666667
-24.033345	5.666667
-21.409292	18.000000
-18.781650	23.333333
-16.159061	59.000000
-13.537204	91.333333
-10.916077	151.000000
-8.295680	307.666667
-5.678172	893.333333
-3.059235	2910.000000
-0.443183	8449.000000
2.172140	11961.666667
4.786736	6282.333333
7.398449	731.333333
10.011591	136.000000
12.619699	83.000000
15.231389	24.000000
17.838048	14.666667
20.446135	42.000000
23.053498	-5.333333
25.655836	78.666667
28.261752	-14.666667
30.862646	37.000000
33.464968	14.333333
36.062273	36.000000
38.663153	7.000000
41.259018	31.333333
43.856312	-3.333333
46.452886	5.000000
49.044451	8.000000
51.637444	20.000000
54.227576	1.666667
56.819136	22.666667
59.407836	16.333333
61.997963	29.666667
64.583091	32.333333
67.169647	8.333333
69.755489	-0.666667
72.338477	28.000000
74.922891	32.666667
77.500177	-0.333333
80.081029	-10.666667
82.659032	-5.333333
85.236325	18.666667
87.815044	24.333333
90.388781	33.666667
92.963946	34.000000
95.536267	10.666667
98.107880	7.666667
100.676653	3.333333
103.246853	35.333333
105.814215	6.000000
108.383002	43.333333
110.948953	21.333333
113.512069	40.666667
116.078741	26.333333
118.636192	43.333333
121.199328	61.000000
123.757504	68.000000
126.319235	39.666667
128.876009	87.666667
131.434210	95.000000
133.987457	177.000000
136.540007	228.666667
139.096107	354.000000
141.647259	397.000000
144.197714	521.666667
146.747471	521.000000
149.294409	628.666667
151.840652	670.333333
154.388320	652.000000
156.935292	660.666667
159.477329	681.333333
162.018672	675.666667
164.559322	636.000000
167.101398	647.333333
169.640662	658.000000
172.177118	663.000000
174.712882	645.333333
177.250072	611.000000
179.786571	607.000000
182.320264	671.000000
184.851153	637.333333
187.381355	594.333333
189.912981	605.333333
192.441806	569.000000
194.967832	612.333333
197.493172	595.333333
200.019937	614.333333
202.543906	620.333333
205.067190	649.666667
207.589789	604.000000
210.109595	651.000000
212.628718	573.333333
215.147158	633.000000
217.667022	621.000000
220.179885	686.000000
222.696279	663.333333
225.211991	675.000000
227.722813	703.000000
230.235060	716.000000
232.744525	747.000000
235.253311	732.000000
237.761418	702.333333
240.270950	727.000000
242.775601	710.000000
245.279576	731.000000
247.784975	729.666667
250.285499	741.333333
252.789547	732.666667
255.286623	758.000000
257.787223	736.000000
260.285051	745.000000
262.782206	717.000000
265.278688	758.666667
267.770307	765.666667
270.265446	731.666667
272.757818	791.333333
275.249520	792.000000
277.738459	739.666667
280.228822	776.000000
282.716422	819.000000
285.201263	836.000000
287.689619	764.666667
290.171035	791.000000
292.655965	862.333333
295.136050	843.333333
297.619647	886.666667
300.098401	936.000000
302.578579	987.333333
305.056004	994.666667
307.532766	927.666667
310.008865	910.333333
312.482215	894.000000
314.954903	871.666667
317.426930	874.333333
319.898296	915.333333
322.366917	932.000000
324.834880	969.333333
327.304264	855.333333
329.768826	830.333333
332.236892	787.333333
334.700138	793.333333
337.162726	805.000000
339.624658	809.000000
342.085933	758.000000
344.544474	776.000000
347.004437	756.333333
349.461667	784.666667
351.918243	741.666667
354.374165	758.333333
356.827357	796.000000
359.281972	784.000000
361.731785	748.333333
364.185094	734.333333
366.633605	706.666667
369.081464	777.333333
371.530746	718.666667
373.975234	714.000000
376.421144	717.666667
378.866404	741.000000
381.308946	761.333333
383.750840	739.666667
386.192087	682.000000
388.630618	724.000000
391.070571	673.333333
393.507810	724.333333
395.942337	728.666667
398.380352	724.333333
400.813590	693.333333
403.248249	664.666667
405.678136	694.333333
408.111508	733.333333
410.540110	675.333333
412.968070	695.666667
415.397452	664.666667
417.822068	685.666667
420.248106	644.000000
422.673503	722.333333
425.098260	649.666667
427.518259	762.666667
429.939679	701.000000
432.358402	675.666667
434.778546	698.000000
437.195995	674.666667
439.614864	657.000000
442.031040	658.000000
444.442468	640.333333
446.857374	692.333333
449.269589	650.000000
451.681170	663.000000
454.092117	634.333333
456.500378	611.333333
458.908006	600.000000
461.315002	598.000000
463.721367	604.666667
466.125049	653.333333
468.528101	631.333333
470.930523	590.333333
473.332315	599.000000
475.731430	661.666667
478.131964	645.333333
480.531869	645.333333
482.927051	680.000000
485.325700	746.000000
487.719629	762.000000
490.112932	814.333333
492.505609	802.666667
494.897661	863.333333
497.291131	898.333333
499.679889	978.000000
502.065981	1094.666667
504.453493	1361.333333
506.840382	1734.000000
509.224607	2316.666667
511.610250	3452.333333
513.993232	5725.666667
516.373553	10596.000000
518.755293	19275.333333
521.134374	27138.666667
523.514874	26021.666667
525.892716	16917.666667
528.267903	8793.666667
530.642472	5023.000000
533.018459	3453.000000
535.391794	2663.666667
537.766546	2082.000000
540.136613	1735.333333
542.506064	1485.000000
544.876933	1346.666667
547.243122	1191.333333
549.610729	1132.666667
551.975690	1008.666667
554.340038	892.000000
556.703773	901.000000
559.068926	869.333333
561.429407	848.000000
563.791306	799.000000
566.150564	797.000000
568.507185	724.000000
570.867250	733.000000
573.220624	670.333333
575.577443	695.000000
577.931627	621.000000
580.285202	613.000000
582.638170	650.000000
584.988505	631.333333
587.340258	616.666667
589.685334	611.666667
592.035874	647.666667
594.379740	667.333333
596.729068	564.666667
599.073747	580.000000
601.415802	645.666667
603.759274	624.666667
606.100123	626.666667
608.440370	649.000000
610.777996	621.333333
613.119057	616.666667
615.455480	623.333333
617.793320	633.666667
620.128543	629.333333
622.461150	647.333333
624.795173	630.666667
627.126582	615.666667
629.457393	576.666667
631.787607	597.333333
634.117222	589.666667
636.442214	559.666667
638.772648	552.333333
641.098461	583.666667
643.421666	585.000000
645.746288	574.666667
648.068304	560.333333
650.389726	577.000000
652.708546	564.333333
655.028781	540.666667
657.348423	548.666667
659.665464	565.333333
661.981913	522.000000
664.295764	576.000000
666.611031	593.000000
668.923701	557.000000
671.237786	514.666667
673.547271	582.666667
675.858172	538.333333
678.166480	534.333333
680.474200	542.000000
682.783334	574.000000
685.087876	535.333333
687.391832	523.000000
689.695202	509.666667
691.999986	521.333333
694.300184	518.666667
696.601796	513.000000
698.902823	493.333333
701.199269	509.333333
703.497130	435.000000
705.794407	467.666667
708.091101	450.333333
710.383219	459.666667
712.678748	454.000000
714.969703	464.666667
717.262073	462.333333
719.551868	482.333333
721.841082	506.666667
724.129717	478.333333
726.415779	454.666667
728.703256	529.000000
730.988161	470.666667
733.272489	485.666667
735.554248	453.666667
737.837421	479.666667
740.120017	494.333333
742.398057	485.333333
744.677512	483.666667
746.956390	466.666667
749.234694	460.666667
751.508448	518.000000
753.783615	516.000000
756.058209	504.333333
758.330244	487.000000
760.603692	482.666667
762.874582	479.666667
765.142916	483.000000
767.412663	509.333333
769.679856	481.666667
771.946478	482.666667
774.212530	519.333333
776.476031	482.333333
778.740945	517.000000
781.005289	445.666667
783.265104	479.666667
785.526331	490.666667
787.786991	500.333333
790.045105	525.333333
792.300674	515.000000
794.559634	516.666667
796.812095	511.666667
799.069922	516.666667
801.323231	535.000000
803.574000	495.333333
805.826181	505.666667
808.075823	505.000000
810.326878	537.333333
812.573421	501.333333
814.821376	549.333333
817.066797	506.666667
819.313629	544.666667
821.559900	498.333333
823.801666	557.333333
826.046816	564.000000
828.285493	501.000000
830.527552	507.666667
832.765113	503.333333
835.004086	540.333333
837.240532	507.333333
839.478389	515.000000
841.713721	487.000000
843.946530	493.666667
846.180750	505.666667
848.412447	517.666667
850.643590	499.666667
852.874178	460.333333
855.104212	506.333333
857.333692	458.666667
859.558690	515.333333
861.787063	493.000000
864.010956	537.666667
866.236261	523.333333
868.457090	532.666667
870.681291	511.000000
872.901019	517.333333
875.122157	490.666667
877.342745	530.000000
879.560824	527.666667
881.780312	515.333333
883.995334	508.000000
886.209808	553.666667
888.423735	525.666667
890.637115	537.333333
892.849947	486.333333
895.062233	554.666667
897.272016	526.666667
899.481254	495.333333
901.689947	539.333333
903.896141	513.333333
906.103744	528.333333
908.308849	527.000000
910.513411	483.333333
912.715478	509.000000
914.918954	537.333333
917.119936	555.666667
919.320376	520.000000
921.522225	593.333333
923.717683	562.666667
925.916500	605.666667
928.110878	655.666667
930.308614	752.000000
932.501914	797.333333
934.696623	873.333333
936.888846	925.666667
939.080530	1122.666667
941.271677	1124.000000
943.460341	1197.000000
945.648469	1177.333333
947.834116	1241.666667
950.023115	1146.666667
952.207691	1140.666667
954.391732	1187.000000
956.579123	1191.000000
958.758210	1204.000000
960.940648	1170.000000
963.122552	1160.333333
965.301981	1174.333333
967.478938	1224.333333
969.657303	1218.000000
971.837075	1257.666667
974.010498	1217.000000
976.187267	1229.000000
978.359629	1198.666667
980.533399	1269.666667
982.702765	1254.333333
984.875475	1227.000000
987.045720	1162.666667
989.215436	1089.333333
991.384623	977.333333
993.549413	918.666667
995.717544	857.000000
997.881281	813.000000
1000.046424	748.000000
1002.209108	742.666667
1004.371267	745.666667
1006.530969	737.333333
1008.690146	688.333333
1010.850730	656.000000
1013.008859	645.666667
1015.166465	615.000000
1017.323547	629.666667
1019.480105	653.333333
1021.632284	615.333333
1023.785870	592.333333
1025.938934	629.000000
1028.089549	578.666667
1030.241571	528.000000
1032.389219	530.333333
1034.540199	549.000000
1036.686808	525.666667
1038.832898	483.666667
1040.978470	516.666667
1043.125447	523.666667
1045.266135	521.666667
1047.410153	548.666667
1049.551730	489.666667
1051.692791	517.333333
1053.835256	481.333333
1055.971442	513.000000
1058.110953	489.000000
1060.246110	493.666667
1062.384591	497.333333
1064.518718	514.333333
1066.652332	532.333333
1068.787351	513.666667
1070.918020	446.000000
1073.050094	460.333333
1075.179739	452.666667
1077.308872	493.666667
1079.437493	474.666667
1081.565603	518.333333
1083.691287	481.000000
1085.816461	486.666667
1087.943039	477.000000
1090.065279	522.000000
1092.188924	514.666667
1094.308234	477.333333
1096.432774	458.000000
1098.551068	485.000000
1100.670767	454.000000
1102.788047	475.333333
1104.904821	443.666667
1107.021088	473.000000
1109.134939	452.333333
1111.250195	454.666667
1113.361127	465.333333
1115.475372	471.666667
1117.585296	468.333333
1119.696624	466.666667
1121.807447	491.666667
1123.913954	465.000000
1126.023771	491.000000
1128.129273	457.000000
1130.236178	426.000000
1132.336868	425.333333
1134.442770	444.000000
1136.544363	461.666667
1138.647359	424.666667
1140.749854	473.666667
1142.846142	448.000000
1144.947637	459.000000
1147.044830	445.333333
1149.141525	455.333333
1151.237721	425.333333
1153.333420	425.666667
1155.428620	443.666667
1157.521424	455.000000
1159.615631	427.000000
1161.703646	431.333333
1163.796859	401.000000
1165.883884	407.333333
1167.974208	437.333333
1170.060244	459.333333
1172.149579	423.000000
1174.232732	500.000000
1176.317287	433.666667
1178.403244	425.000000
1180.484919	446.333333
1182.567996	456.333333
1184.648687	442.666667
1186.728886	452.333333
1188.808594	455.000000
1190.887811	473.000000
1192.964646	455.666667
1195.039100	423.333333
1197.116845	431.000000
1199.190321	467.666667
1201.265197	417.666667
1203.335806	444.333333
1205.407816	417.333333
1207.477451	443.666667
1209.548486	411.333333
1211.619033	452.333333
1213.685319	424.000000
1215.753006	422.333333
1217.818321	413.666667
1219.885036	432.000000
1221.947495	428.333333
1224.013239	424.666667
1226.074729	435.666667
1228.137620	460.666667
1230.198143	413.666667
1232.258182	412.000000
1234.317739	446.000000
1236.374930	445.666667
1238.431640	415.333333
1240.485986	448.333333
1242.543614	412.666667
1244.598879	440.000000
1246.649903	435.000000
1248.702327	432.666667
1250.754271	411.000000
1252.803857	439.333333
1254.852964	426.333333
1256.901593	458.333333
1258.949743	412.333333
1260.997414	433.000000
1263.040855	454.666667
1265.087572	447.333333
1267.131935	438.000000
1269.175822	424.333333
1271.217357	410.333333
1273.256543	428.333333
1275.299002	447.000000
1277.337238	416.333333
1279.376873	398.000000
1281.416033	440.000000
1283.450974	426.000000
1285.487314	424.333333
1287.521310	408.333333
1289.556703	461.333333
1291.587884	448.666667
1293.620462	450.000000
1295.652569	452.333333
1297.682335	434.333333
1299.713498	431.000000
1301.740455	444.666667
1303.768809	401.000000
1305.792958	436.000000
1307.820373	437.666667
1309.843585	433.000000
1311.868195	435.666667
1313.890471	440.333333
1315.914144	435.000000
1317.935484	433.666667
1319.956356	461.333333
1321.976761	413.333333
1323.992973	381.666667
1326.010582	421.000000
1328.025863	395.666667
1330.044403	401.666667
1332.058754	455.000000
1334.070779	437.333333
1336.086061	434.333333
1338.097158	409.666667
1340.109652	401.666667
1342.117963	426.333333
1344.129529	387.000000
1346.135057	431.000000
1348.143840	430.666667
1350.148445	463.666667
1352.156304	380.333333
1354.163701	386.000000
1356.165067	409.000000
1358.167829	440.000000
1360.170132	423.333333
1362.171975	417.333333
1364.173358	449.000000
1366.172428	402.333333
1368.171039	396.000000
1370.169192	436.333333
1372.166886	422.333333
1374.160418	446.000000
1376.155345	421.333333
1378.149816	407.000000
1380.143830	417.333333
1382.135537	430.000000
1384.126789	411.000000
1386.115735	418.666667
1388.106076	415.333333
1390.095962	405.333333
1392.083544	391.000000
1394.070673	406.000000
1396.055500	384.000000
1398.041722	403.333333
1400.025644	413.333333
1402.009113	419.000000
1403.992129	409.333333
1405.972848	429.000000
1407.954961	420.333333
1409.934778	400.333333
1411.914143	432.666667
1413.889370	430.666667
1415.867835	438.666667
1417.844007	458.666667
1419.819730	443.000000
1421.795003	405.333333
1423.767985	420.000000
1425.740519	434.000000
1427.712605	392.000000
1429.684244	409.333333
1431.651754	386.000000
1433.624338	436.333333
1435.589116	457.666667
1437.558967	441.333333
1439.524694	406.666667
1441.491813	428.333333
1443.456649	417.333333
1445.417365	397.666667
1447.383149	407.333333
1449.342978	431.666667
1451.304201	393.333333
1453.266816	451.666667
1455.225316	415.666667
1457.183373	438.333333
1459.140989	415.666667
1461.098162	400.666667
1463.053060	419.666667
1465.009351	452.666667
1466.963367	402.666667
1468.916942	430.333333
1470.868245	398.666667
1472.820941	439.333333
1474.771364	396.666667
1476.721349	389.000000
1478.670895	437.000000
1480.618172	430.000000
1482.563181	391.000000
1484.509583	409.333333
1486.455547	418.666667
1488.401074	421.666667
1490.344335	357.666667
1492.287161	429.666667
1494.227723	424.333333
1496.169676	422.333333
1498.109367	430.666667
1500.048624	403.666667
1501.987445	399.333333
1503.924007	424.333333
1505.861960	413.333333
1507.797654	416.333333
1509.732915	395.333333
1511.665920	440.000000
1513.598492	400.666667
1515.530632	398.000000
1517.462340	382.333333
1519.391794	425.666667
1521.322639	397.666667
1523.253052	446.666667
1525.179393	434.666667
1527.107125	431.666667
1529.032606	395.333333
1530.957658	388.666667
1532.882281	422.333333
1534.806475	405.000000
1536.728421	405.333333
1538.651758	430.000000
1540.572848	406.333333
1542.491694	434.666667
1544.411930	404.333333
1546.329923	449.000000
1548.247489	369.000000
1550.162813	473.000000
1552.079527	374.333333
1553.992186	456.000000
1555.908049	406.333333
1557.821672	448.666667
1559.733057	423.666667
1561.645832	437.666667
1563.554557	450.333333
1565.464671	411.666667
1567.374362	400.333333
1569.283630	421.333333
1571.190664	429.333333
1573.095465	405.333333
1575.001655	415.333333
1576.905613	435.666667
1578.809150	435.333333
1580.712267	411.666667
1582.613154	402.000000
1584.515430	419.333333
1586.415478	387.000000
1588.316913	396.000000
1590.214315	407.666667
1592.111298	390.000000
1594.007863	383.333333
1595.905816	405.000000
1597.797934	396.666667
1599.693245	411.000000
1601.588139	402.333333
1603.480811	406.000000
1605.373066	439.666667
1607.263102	429.333333
1609.152722	422.666667
1611.041927	435.000000
1612.930717	369.000000
1614.817289	433.666667
1616.705249	428.666667
1618.589192	456.333333
1620.474522	413.333333
1622.359439	400.333333
1624.242142	430.333333
1626.126232	392.000000
1628.006310	376.000000
1629.887776	410.000000
1631.767031	375.000000
1633.647672	463.666667
1635.522509	470.000000
1637.402327	429.333333
1639.278141	415.333333
1641.153544	417.000000
1643.030333	392.000000
1644.901326	443.333333
1646.775500	429.333333
1648.645675	421.000000
1650.519032	411.333333
1652.390184	430.000000
1654.259136	425.666667
1656.129472	435.666667
1657.995816	419.000000
1659.863545	425.333333
1661.729075	409.000000
1663.595991	431.000000
1665.458918	420.666667
1667.323230	420.000000
1669.185346	421.000000
1671.047057	404.333333
1672.910154	421.666667
1674.771055	411.666667
1676.629764	392.000000
1678.488069	407.666667
1680.347759	395.000000
1682.201681	435.666667
1684.058777	378.000000
1685.915470	411.333333
1687.768186	423.666667
1689.624074	407.000000
1691.475988	431.333333
1693.327501	406.666667
1695.178613	403.333333
1697.029325	379.000000
1698.879635	387.000000
1700.727762	413.000000
1702.577273	386.666667
1704.421035	390.666667
1706.269746	382.666667
1708.112711	429.666667
1709.958843	398.000000
1711.801012	419.000000
1713.646347	397.000000
1715.485941	410.666667
1717.326919	373.000000
1719.169280	428.000000
1721.007685	386.000000
1722.847473	443.666667
1724.685086	385.666667
1726.522303	397.000000
1728.357347	402.666667
1730.193774	379.666667
1732.028029	412.000000
1733.861889	427.666667
1735.695355	403.000000
1737.524876	433.000000
1739.357555	388.333333
1741.186290	365.666667
1743.018182	365.000000
1744.846132	412.333333
1746.673691	369.000000
1748.500857	421.666667
1750.327632	392.666667
1752.154015	399.666667
1753.976462	378.000000
1755.802064	408.666667
1757.623731	421.333333
1759.446780	389.666667
1761.267667	415.333333
1763.088166	379.333333
1764.910045	381.666667
1766.726226	410.333333
1768.545558	388.333333
1770.360963	403.333333
1772.179518	383.000000
1773.994148	380.333333
1775.808391	348.000000
1777.622248	371.666667
1779.435718	378.000000
1781.247035	415.333333
1783.059732	368.666667
1784.872044	420.666667
1786.680438	366.000000
1788.490212	396.000000
1790.296072	343.000000
1792.105077	422.000000
1793.910169	410.333333
1795.716642	398.666667
1797.522731	383.666667
1799.324909	369.000000
1801.130232	422.666667
1802.931646	405.333333
1804.734440	382.000000
1806.533328	389.000000
1808.333597	378.333333
1810.133484	357.000000
1811.931229	403.333333
1813.728594	385.333333
1815.525579	368.666667
1817.322183	332.000000
1819.116648	388.333333
1820.912492	407.333333
1822.702681	378.333333
1824.497767	369.333333
1826.287201	346.000000
1828.079771	399.333333
1829.870206	359.000000
1831.658507	366.666667
1833.449943	389.666667
1835.235733	399.666667
1837.022903	399.000000
1838.807941	392.666667
1840.596113	381.333333
1842.380399	379.666667
1844.162555	361.666667
1845.946091	377.666667
1847.727498	349.666667
1849.510284	384.333333
1851.289189	371.000000
1853.069474	406.333333
1854.847632	357.666667
1856.627169	377.333333
1858.404581	387.000000
1860.179869	398.000000
1861.956535	417.000000
1863.731079	382.333333
1865.507001	416.666667
1867.277302	410.333333
1869.050731	340.333333
1870.822040	386.000000
1872.592978	347.666667
1874.365294	398.666667
1876.131996	411.000000
1877.901824	363.000000
1879.667788	384.333333
1881.436875	427.333333
1883.202101	374.333333
1884.966959	430.333333
1886.733194	382.666667
1888.495570	376.666667
1890.257579	397.333333
1892.019220	388.000000
1893.780495	383.333333
1895.541402	399.000000
1897.301943	354.000000
1899.060374	381.666667
1900.818439	369.666667
1902.574397	350.000000
1904.331731	388.000000
1906.088700	416.666667
1907.843562	352.666667
1909.596320	407.333333
1911.348713	396.666667
1913.102483	409.000000
1914.854149	332.333333
1916.603713	353.333333
1918.354652	346.333333
1920.105229	364.333333
1921.851966	383.333333
1923.600080	360.666667
1925.346094	361.333333
1927.093483	399.666667
1928.838775	373.666667
1930.581969	380.000000
1932.326538	365.333333
1934.069012	357.666667
1935.811125	388.000000
1937.552878	397.000000
1939.294271	361.333333
1941.033571	387.333333
1942.772512	379.666667
1944.511094	411.000000
1946.247585	371.333333
1947.983718	360.000000
1949.721225	348.666667
1951.454910	395.666667
1953.189970	385.000000
1954.922941	356.666667
1956.655556	366.666667
1958.387815	387.333333
1960.119717	362.666667
1961.849533	366.333333
1963.577264	376.333333
1965.306370	392.333333
1967.035121	354.333333
1968.761788	372.666667
1970.488101	387.000000
1972.215787	422.666667
1973.937937	345.333333
1975.663188	397.666667
1977.384632	373.000000
1979.109177	374.666667
1980.831641	393.333333
1982.550303	359.000000
1984.272063	429.333333
1985.990021	395.000000
1987.709352	369.666667
1989.424884	386.333333
1991.145236	394.333333
1992.861790	375.333333
1994.574547	401.666667
1996.290400	412.333333
1998.004181	398.666667
1999.717612	411.666667
2001.428972	346.333333
2003.141704	365.000000
2004.850646	360.000000
2006.562680	405.666667
2008.269206	380.666667
2009.978823	417.666667
2011.686374	395.333333
2013.393576	412.000000
2015.098713	391.000000
2016.803504	392.000000
2018.509666	369.666667
2020.212046	386.000000
2021.915797	363.333333
2023.617486	409.000000
2025.318830	362.000000
2027.019828	389.000000
2028.718765	369.333333
2030.419074	417.000000
2032.115608	358.666667
2033.813513	394.000000
2035.509359	368.666667
2037.208291	404.666667
2038.901737	334.666667
2040.596554	393.000000
2042.291029	388.333333
2043.981735	392.000000
2045.675525	373.666667
2047.365548	411.000000
2049.056942	359.000000
2050.746283	386.666667
2052.436994	372.666667
2054.123942	366.000000
2055.810551	355.000000
2057.498529	384.333333
2059.182748	372.666667
2060.868338	354.000000
2062.553588	366.666667
2064.236789	377.000000
2065.921361	371.666667
2067.600470	399.000000
2069.284364	356.333333
2070.962797	351.333333
2072.644308	367.000000
2074.322067	401.333333
2075.999490	377.333333
2077.678282	387.666667
2079.355032	364.333333
2081.029740	424.000000
2082.705817	366.000000
2084.379853	414.000000
2086.053555	400.333333
2087.726921	363.666667
2089.398248	358.333333
2091.069241	400.333333
2092.739900	373.666667
2094.410225	389.666667
2096.080216	374.666667
2097.748171	397.666667
2099.415793	381.000000
2101.081380	395.666667
2102.748336	389.666667
2104.413259	363.666667
2106.077850	346.666667
2107.740409	379.666667
2109.404336	374.666667
2111.066232	397.000000
2112.727798	352.000000
2114.389032	354.000000
2116.048238	367.000000
2117.707113	372.666667
2119.365659	401.000000
2121.023874	352.333333
2122.678367	366.333333
2124.335924	353.000000
2125.993152	355.666667
2127.646658	358.666667
2129.301532	377.333333
2130.952687	370.000000
2132.606905	389.666667
2134.257406	367.333333
2135.909273	371.333333
2137.555732	365.666667
2139.206946	362.666667
2140.854446	371.333333
2142.503313	319.000000
2144.150161	396.666667
2145.796684	380.333333
2147.442881	409.000000
2149.085370	365.666667
2150.730917	375.333333
2152.372757	360.666667
2154.017654	386.666667
2155.658845	413.666667
2157.299714	378.000000
2158.940258	373.666667
2160.578790	356.666667
2162.218688	352.000000
2163.854886	397.666667
2165.492450	333.000000
2167.129692	368.333333
2168.764924	397.000000
2170.399835	398.000000
2172.034423	407.333333
2173.668691	373.333333
2175.299265	343.333333
2176.932891	370.000000
2178.562825	353.333333
2180.194124	386.666667
2181.823418	348.333333
2183.452393	406.000000
2185.081048	329.000000
2186.709384	415.000000
2188.335718	345.000000
2189.961733	356.333333
2191.585746	383.666667
2193.211125	326.666667
2194.834503	322.333333
2196.459246	377.000000
2198.080308	384.000000
2199.701053	385.333333
2201.323163	340.333333
2202.943275	387.000000
2204.561390	358.000000
2206.179190	373.666667
2207.796675	331.000000
2209.413844	345.666667
2211.030698	352.666667
2212.647236	388.666667
2214.261782	392.000000
2215.874335	376.666667
2217.488252	385.000000
2219.100178	376.666667
2220.713467	334.333333
2222.324766	354.000000
2223.934075	353.666667
2225.544748	354.000000
2227.153432	364.000000
2228.761803	358.333333
2230.368188	346.666667
2231.975936	346.666667
2233.581697	356.666667
2235.187147	363.000000
2236.790612	367.333333
2238.395440	372.333333
2239.998284	348.000000
2241.599145	374.000000
2243.201369	367.333333
2244.801611	345.000000
2246.403215	332.333333
2248.001166	370.333333
2249.600480	329.000000
2251.197814	381.333333
2252.794840	341.000000
2254.393228	367.333333
2255.987967	341.000000
2257.580729	394.333333
2259.174854	346.333333
2260.770340	385.666667
2262.362181	341.333333
2263.953716	384.000000
2265.546613	320.000000
2267.134200	376.666667
2268.726483	361.666667
2270.313460	352.333333
2271.903464	339.333333
2273.488164	361.666667
2275.077558	325.666667
2276.661650	334.000000
2278.247102	363.000000
2279.830586	377.000000
2281.417095	343.000000
2282.999971	314.333333
2284.582544	307.333333
2286.164813	322.333333
2287.743452	327.333333
2289.325116	389.666667
2290.903151	343.666667
2292.484209	351.333333
2294.061640	359.000000
2295.637108	366.666667
2297.215598	312.333333
2298.790464	333.000000
2300.365029	341.000000
2301.939294	370.000000
2303.513258	314.333333
2305.086921	323.666667
2306.660285	330.000000
2308.230030	358.000000
2309.799476	338.000000
2311.371940	376.666667
2312.939130	324.000000
2314.509338	322.000000
2316.075931	336.333333
2317.643884	354.666667
2319.209881	341.000000
2320.775581	338.666667
2322.340983	351.000000
2323.904432	348.333333
2325.469240	342.000000
2327.030440	364.000000
2328.594654	369.333333
2330.153606	387.666667
2331.715573	342.333333
2333.275588	350.666667
2334.835309	306.333333
2336.393080	379.000000
2337.950556	322.000000
2339.507738	331.333333
2341.062972	307.333333
2342.617913	323.666667
2344.172559	337.666667
2345.726912	336.666667
2347.280972	332.666667
2348.834737	338.000000
2350.386558	295.666667
2351.936437	332.000000
2353.489323	338.333333
2355.036966	318.333333
2356.587618	356.333333
2358.134678	339.333333
2359.683096	347.333333
2361.231223	343.666667
2362.775761	345.666667
2364.321657	355.666667
2365.865615	307.666667
2367.410930	357.333333
2368.952660	348.000000
2370.495747	315.333333
2372.036898	322.666667
2373.577760	348.333333
2375.118333	277.666667
2376.658617	364.333333
2378.198612	307.000000
2379.735029	310.666667
2381.274447	351.666667
2382.810287	321.666667
2384.347485	313.000000
2385.881107	330.000000
2387.417729	334.333333
2388.952421	314.666667
2390.485183	298.333333
2392.017658	339.666667
2393.548205	309.666667
2395.081750	367.333333
2396.610084	309.000000
2398.139774	315.666667
2399.669179	342.666667
2401.198299	335.000000
2402.727134	290.333333
2404.250763	283.666667
2405.779028	328.000000
2407.302091	301.000000
2408.829787	319.000000
2410.350644	317.000000
2411.876134	322.000000
2413.398063	327.666667
2414.921348	327.333333
2416.442711	350.666667
2417.962155	320.333333
2419.482954	325.666667
2421.001835	313.333333
2422.520433	361.666667
2424.037114	329.000000
2425.555149	310.000000
2427.072903	312.333333
2428.587106	348.333333
2430.101028	314.666667
2431.614670	343.333333
2433.129667	316.666667
2434.641115	348.666667
2436.153918	320.000000
2437.664807	348.333333
2439.175418	316.333333
2440.684117	286.666667
2442.195802	318.666667
2443.703944	305.666667
2445.211808	303.666667
2446.719394	328.000000
2448.223439	294.333333
2449.730469	291.333333
2451.235591	320.666667
2452.740436	347.666667
2454.243374	316.666667
2455.746036	369.333333
2457.248421	317.333333
2458.748901	318.000000
2460.250734	315.333333
2461.750662	306.000000
2463.250315	335.333333
2464.749693	343.000000
2466.247168	301.666667
2467.742741	332.666667
2469.241294	319.333333
2470.736319	335.000000
2472.232696	291.000000
2473.725547	349.333333
2475.219751	322.333333
2476.713681	282.666667
2478.204087	300.333333
2479.697471	345.333333
2481.188957	340.000000
2482.678546	321.666667
2484.167863	348.666667
2485.655284	317.333333
2487.145681	266.000000
2488.632560	320.000000
2490.120790	273.000000
2491.605503	294.000000
2493.089947	284.666667
2494.575741	316.666667
2496.059644	334.666667
2497.544897	327.666667
2499.025017	286.333333
2500.508110	325.333333
2501.989312	292.333333
2503.470245	314.666667
2504.949289	305.666667
2506.428064	300.000000
2507.906571	306.000000
2509.384810	292.333333
2510.862780	303.000000
2512.337245	319.666667
2513.814680	299.333333
2515.288611	315.333333
2516.763892	311.333333
2518.238906	342.000000
2519.710419	311.000000
2521.183283	322.666667
2522.654264	328.333333
2524.126595	333.333333
2525.593812	324.666667
2527.063996	329.666667
2528.532299	282.666667
2530.000337	304.333333
2531.468110	331.000000
2532.935618	345.333333
2534.402861	326.000000
2535.866612	327.666667
2537.331713	292.333333
2538.794937	323.666667
2540.259510	301.333333
2541.720595	327.333333
2543.183029	329.000000
2544.645200	315.666667
2546.103885	310.333333
2547.567141	301.666667
2549.025302	331.666667
2550.484811	342.666667
2551.939226	331.000000
2553.398212	315.333333
2554.855326	293.666667
2556.310569	309.666667
2557.765550	276.666667
2559.218663	332.666667
2560.673124	296.666667
2562.125715	302.333333
2563.578047	292.000000
2565.028512	306.000000
2566.481932	287.666667
2567.930270	328.000000
2569.381563	291.666667
2570.830991	333.000000
2572.276946	275.666667
2573.725856	316.333333
2575.171296	308.666667
2576.618083	331.000000
2578.063008	294.333333
2579.507674	326.000000
2580.953688	324.000000
2582.396236	315.000000
2583.840131	298.666667
2585.280561	339.666667
2586.722338	310.333333
2588.162256	338.666667
2589.603521	289.333333
2591.041324	331.666667
2592.482077	278.333333
2593.917768	285.000000
2595.356408	248.666667
2596.793190	291.333333
2598.228117	306.000000
2599.665991	318.000000
2601.098808	277.666667
2602.532972	332.666667
2603.965282	271.000000
2605.398938	318.000000
2606.830741	263.666667
2608.262290	306.666667
2609.693587	297.333333
2611.123031	288.666667
2612.552223	307.666667
2613.979565	323.333333
2615.408252	311.333333
2616.836688	325.666667
2618.261676	283.333333
2619.688011	268.666667
2621.112497	305.000000
2622.538329	300.666667
2623.960717	295.666667
2625.384451	301.000000
2626.806338	282.333333
2628.227976	342.333333
2629.647768	311.666667
2631.068906	335.333333
2632.489794	278.333333
2633.907244	288.000000
2635.327633	305.000000
2636.744585	289.000000
2638.161288	305.666667
2639.577743	287.000000
2640.993950	328.000000
2642.409909	303.666667
2643.824027	313.666667
2645.237897	313.333333
2646.649929	340.666667
2648.063304	339.333333
2649.473250	246.666667
2650.886132	290.000000
2652.295585	290.000000
2653.704792	316.000000
2655.112163	286.333333
2656.522468	266.666667
2657.930938	289.000000
2659.337572	314.666667
2660.743961	259.333333
2662.148516	265.666667
2663.554415	280.666667
2664.958481	290.333333
2666.362302	284.333333
2667.765879	270.000000
2669.167625	314.333333
2670.570714	308.666667
2671.970385	265.000000
2673.371400	282.666667
2674.768999	274.666667
2676.169527	322.666667
2677.566641	311.000000
2678.965098	313.000000
2680.361728	306.000000
2681.758115	281.333333
2683.154260	306.666667
2684.548579	293.333333
2685.944241	311.666667
2687.336494	320.000000
2688.730089	290.333333
2690.121860	326.333333
2691.514974	274.000000
2692.906264	308.666667
2694.295731	278.000000
2695.684958	296.333333
2697.073946	242.000000
2698.464275	293.333333
2699.849621	266.000000
2701.237890	290.333333
2702.624339	285.000000
2704.010549	251.000000
2705.396520	286.000000
2706.779093	309.000000
2708.163008	301.666667
2709.546685	310.333333
2710.930123	288.666667
2712.310167	315.666667
2713.691551	303.000000
2715.071121	309.333333
2716.452031	250.333333
2717.831127	290.000000
2719.208409	297.666667
2720.587032	289.333333
2721.963842	255.333333
2723.340415	289.000000
2724.716753	267.000000
2726.091280	303.000000
2727.467147	282.666667
2728.839627	293.333333
2730.215023	285.000000
2731.585459	293.000000
2732.957236	299.000000
2734.328778	250.333333
2735.698512	285.666667
2737.069587	296.000000
2738.438853	298.000000
2739.807886	297.000000
2741.175113	267.000000
2742.542106	290.666667
2743.908867	287.333333
2745.275396	290.666667
2746.640119	249.333333
2748.004610	309.666667
2749.368870	270.333333
2750.732897	296.333333
2752.096693	289.333333
2753.457115	294.666667
2754.820447	251.666667
2756.178837	297.000000
2757.540137	222.333333
2758.898067	269.000000
2760.258905	257.333333
2761.617944	272.333333
2762.973614	282.333333
2764.332192	292.666667
2765.687403	273.333333
2767.042385	249.000000
2768.395571	281.666667
2769.751662	304.000000
2771.104390	250.333333
2772.456890	277.333333
2773.809161	269.666667
2775.162770	309.666667
2776.513019	257.333333
2777.861473	278.333333
2779.212833	295.000000
2780.560833	268.333333
2781.910171	261.000000
2783.257717	279.000000
2784.605037	259.333333
2785.952130	285.000000
2787.297432	275.666667
2788.642507	271.333333
2789.987357	255.000000
2791.331981	232.666667
2792.673253	287.333333
2794.015863	224.000000
2795.358247	287.666667
2796.700406	316.000000
2798.039216	265.000000
2799.380926	267.333333
2800.719288	245.333333
2802.058986	294.333333
2803.396900	228.333333
2804.733029	260.000000
2806.068934	297.333333
2807.406177	244.666667
2808.741636	268.666667
2810.076872	270.333333
2811.410325	254.000000
2812.745115	233.333333
2814.076565	293.000000
2815.410910	290.666667
2816.740357	270.666667
2818.071141	294.000000
2819.401703	280.000000
2820.730486	265.666667
2822.060605	256.000000
2823.388946	280.333333
2824.717066	253.666667
2826.043408	198.000000
2827.371087	253.666667
2828.695432	253.666667
2830.021114	236.666667
2831.345020	256.000000
2832.668707	242.333333
2833.993729	250.666667
2835.315421	278.333333
2836.636895	243.666667
2837.958150	236.000000
2839.279186	279.666667
2840.598449	263.333333
2841.919048	253.333333
2843.237876	282.666667
2844.556485	296.666667
2845.873323	272.000000
2847.189944	228.333333
2848.506348	284.666667
2849.820982	260.333333
2851.136952	227.333333
2852.449601	256.333333
2853.763585	261.333333
2855.077353	260.000000
2856.390904	259.333333
2857.702689	315.333333
2859.012707	236.666667
2860.324060	279.666667
2861.632098	244.000000
2862.941470	280.000000
2864.250628	245.000000
2865.559570	255.333333
2866.866748	266.000000
2868.172164	268.000000
2869.478913	280.333333
2870.783901	302.000000
2872.088675	258.333333
2873.391687	274.000000
2874.697580	262.666667
2875.998619	258.333333
2877.300992	280.666667
2878.601605	242.333333
2879.903552	266.333333
2881.205285	277.666667
2882.503715	264.333333
2883.803478	274.666667
2885.101484	258.333333
2886.399278	249.333333
2887.695316	249.333333
2888.992687	299.666667
2890.288302	252.666667
2891.583706	251.333333
2892.878899	276.666667
2894.170795	252.000000
2895.465567	241.333333
2896.757042	266.333333
2898.049850	236.333333
2899.342448	265.333333
2900.631752	239.000000
2901.922388	242.333333
2903.211273	284.666667
2904.501490	250.666667
2905.788416	280.000000
2907.076674	275.000000
2908.363183	232.000000
2909.649483	261.666667
2910.935576	280.666667
2912.219920	277.000000
2913.507135	231.333333
2914.789524	262.333333
2916.073245	245.333333
2917.355220	266.666667
2918.636987	240.000000
2919.917010	231.333333
2921.199902	205.000000
2922.481049	258.666667
2923.758914	238.000000
2925.039648	244.333333
2926.317101	243.000000
2927.594348	234.666667
2928.869853	220.000000
2930.148226	242.000000
2931.421785	238.666667
2932.698211	228.333333
2933.972896	251.666667
2935.245840	267.000000
2936.520116	228.666667
2937.792652	239.000000
2939.064983	210.333333
2940.334042	262.333333
2941.605966	230.333333
2942.876152	234.333333
2944.146134	223.000000
2945.415913	259.333333
2946.683956	275.000000
2947.950262	264.000000
2949.216367	227.666667
2950.483801	239.333333
2951.749501	207.333333
2953.014998	211.333333
2954.280293	233.666667
2955.542323	228.666667
2956.805683	219.666667
2958.068842	231.000000
2959.330269	206.666667
2960.593025	224.333333
2961.854049	218.333333
2963.113343	227.000000
2964.372437	215.666667
2965.631330	251.333333
2966.890023	194.666667
2968.148516	231.000000
2969.405280	242.666667
2970.661844	263.333333
2971.916681	206.666667
2973.172846	253.666667
2974.425757	202.000000
2975.679997	225.666667
2976.934037	265.666667
2978.186353	246.333333
2979.438469	223.333333
2980.688861	234.333333
2981.942108	208.333333
2983.190578	219.333333
2984.441903	211.666667
2985.689978	228.666667
2986.937857	234.666667
2988.185538	238.000000
2989.433022	218.000000
2990.678785	255.666667
2991.924352	220.000000
2993.171246	254.333333
2994.414896	254.333333
2995.659874	233.333333
2996.901608	213.333333
2998.146194	252.000000
2999.389061	253.666667
3000.628687	251.000000
3001.871163	253.333333
3003.110399	213.000000
3004.350963	217.333333
3005.589810	231.000000
3006.828463	222.333333
3008.065400	213.333333
3009.303665	195.333333
3010.540214	224.666667
3011.776570	239.333333
3013.012732	235.666667
3014.247180	214.666667
3015.481436	259.666667
3016.715498	210.000000
3017.947848	210.333333
3019.178486	236.000000
3020.411970	224.333333
3021.643742	195.333333
3022.873804	226.000000
3024.103673	211.666667
3025.331833	229.000000
3026.561320	231.666667
3027.789097	221.000000
3029.016683	223.333333
3030.245596	238.000000
3031.469766	185.000000
3032.696779	249.666667
3033.920568	212.000000
3035.145684	268.000000
3036.369093	211.000000
3037.592312	251.666667
3038.813826	222.666667
3040.038181	205.000000
3041.257801	212.666667
3042.478747	196.333333
3043.699504	231.000000
3044.918557	199.666667
3046.138935	221.666667
3047.356097	195.000000
3048.574585	224.333333
3049.791370	261.333333
3051.007968	180.000000
3052.224377	258.333333
3053.437574	235.666667
3054.653608	256.000000
3055.866430	250.333333
3057.082089	256.333333
3058.293025	213.333333
3059.505286	227.666667
3060.717361	230.666667
3061.929248	215.666667
3063.139439	204.000000
3064.349443	245.000000
3065.559261	206.666667
3066.767383	210.666667
3067.975320	180.333333
3069.181561	205.000000
3070.389127	232.666667
3071.594998	225.333333
3072.800685	218.000000
3074.006186	205.333333
3075.209994	202.000000
3076.415126	217.000000
3077.618565	228.333333
3078.820313	213.333333
3080.021876	197.666667
3081.223256	211.333333
3082.424452	242.666667
3083.623958	228.666667
3084.823281	198.000000
3086.023927	218.000000
3087.222883	186.333333
3088.418645	237.000000
3089.617236	171.666667
3090.812633	236.333333
3092.009353	193.000000
3093.202881	262.000000
3094.399237	211.333333
3095.593907	250.333333
3096.785385	208.000000
3097.981196	227.333333
3099.172312	193.666667
3100.364752	204.000000
3101.554004	191.000000
3102.746081	241.000000
3103.936475	212.333333
3105.123683	192.000000
3106.312213	160.666667
3107.502066	234.333333
3108.688735	172.000000
3109.875223	243.666667
3111.061533	199.333333
3112.249164	221.333333
3113.433613	191.000000
3114.616383	195.666667
3115.801975	203.666667
3116.985888	224.000000
3118.168122	200.666667
3119.350177	199.000000
3120.532054	204.333333
3121.713753	222.666667
3122.893775	215.333333
3124.072120	234.000000
3125.253285	141.333333
3126.431275	199.333333
3127.609089	221.666667
3128.786725	234.000000
3129.962686	200.333333
3131.138470	219.666667
3132.315576	187.000000
3133.491007	200.666667
3134.664765	206.000000
3135.836850	213.000000
3137.010257	206.333333
3138.183487	211.333333
3139.355046	204.000000
3140.527925	205.666667
3141.697637	229.666667
3142.868670	221.666667
3144.038033	199.000000
3145.205725	210.666667
3146.376233	225.666667
3147.542083	202.000000
3148.712241	232.333333
3149.877743	221.666667
3151.043070	176.000000
3152.208224	177.333333
3153.373205	184.333333
3154.539505	200.666667
3155.701153	187.000000
3156.864120	196.666667
3158.026915	191.000000
3159.189537	220.333333
3160.350494	187.666667
3161.511278	196.666667
3162.671890	194.333333
3163.830838	171.333333
3164.989615	173.000000
3166.148220	188.666667
3167.306652	164.333333
3168.464914	201.000000
3169.621513	163.333333
3170.776451	190.333333
3171.932708	204.000000
3173.087304	203.000000
3174.241730	181.666667
3175.394496	166.000000
3176.547091	174.666667
3177.699517	200.333333
3178.851773	181.333333
3180.003858	195.333333
3181.152798	183.000000
3182.304544	225.000000
3183.454632	159.666667
3184.603064	195.333333
3185.751326	165.000000
3186.899420	192.333333
3188.047345	170.000000
3189.193614	195.666667
3190.339715	179.000000
3191.484162	199.000000
3192.628441	168.333333
3193.772552	170.666667
3194.917980	185.333333
3196.060270	206.000000
3197.202393	188.333333
3198.344348	189.000000
3199.486136	180.666667
3200.627757	186.666667
3201.766243	190.333333
3202.906046	190.666667
3204.047167	152.666667
3205.185153	184.000000
3206.321490	207.333333
3207.457661	211.000000
3208.595149	193.666667
3209.730989	190.333333
3210.868146	196.000000
3212.000690	222.000000
3213.137516	173.333333
3214.269730	182.666667
3215.403261	164.000000
3216.536628	195.666667
3217.666867	164.000000
3218.799904	192.333333
3219.929815	165.666667
3221.061042	177.666667
3222.189145	177.000000
3223.320044	189.666667
3224.449299	165.333333
3225.576911	183.666667
3226.701400	166.666667
3227.830165	192.666667
3228.955808	170.666667
3230.081289	172.333333
3231.205128	216.666667
3232.331761	188.333333
3233.453797	168.333333
3234.577149	166.333333
3235.700339	173.000000
3236.823366	177.000000
3237.944755	187.666667
3239.065981	176.666667
3240.185570	174.666667
3241.304997	163.000000
3242.422786	166.000000
3243.543367	158.333333
3244.660835	166.000000
3245.778142	203.000000
3246.895289	163.333333
3248.010800	166.666667
3249.127625	187.000000
3250.241341	160.000000
3251.357846	201.000000
3252.472717	212.000000
3253.584479	163.666667
3254.696081	183.666667
3255.808999	200.666667
3256.921757	216.333333
3258.031409	168.000000
3259.142376	190.333333
3260.253184	220.000000
3261.362360	198.666667
3262.469906	176.000000
3263.578765	171.000000
3264.687467	137.666667
3265.793066	170.000000
3266.899979	176.000000
3268.005263	170.333333
3269.111861	173.000000
3270.215359	175.666667
3271.320172	167.000000
3272.424827	162.666667
3273.526383	167.333333
3274.627783	210.666667
3275.730497	157.666667
3276.833055	137.666667
3277.932516	153.000000
3279.034761	164.000000
3280.133910	176.666667
3281.231435	172.000000
3282.328804	176.333333
3283.428955	179.666667
3284.526014	189.666667
3285.622917	188.000000
3286.719665	171.666667
3287.811855	131.000000
3288.908293	149.000000
3290.003109	152.666667
3291.097771	187.000000
3292.190811	142.000000
3293.283696	211.666667
3294.374962	161.000000
3295.467539	157.333333
3296.558497	211.666667
3297.647835	181.000000
3298.737020	153.666667
3299.827518	163.000000
3300.914931	222.333333
3302.002191	170.333333
3303.090764	142.333333
3304.179185	151.666667
3305.263058	162.333333
3306.351173	159.666667
3307.436206	181.000000
3308.519624	160.333333
3309.604354	171.666667
3310.687468	158.666667
3311.771895	184.666667
3312.853243	159.000000
3313.935903	170.333333
3315.016949	193.333333
3316.097844	195.000000
3317.177125	165.666667
3318.256256	200.000000
3319.336699	168.666667
3320.414067	190.666667
3321.492747	170.666667
3322.569815	163.000000
3323.646734	178.000000
3324.722041	202.666667
3325.797199	150.000000
3326.873668	188.000000
3327.947067	163.333333
3329.020317	175.333333
3330.094877	136.000000
3331.167829	154.666667
3332.239172	164.000000
3333.311826	190.000000
3334.381414	157.666667
3335.452312	161.000000
3336.521603	171.333333
3337.592205	185.666667
3338.661200	182.666667
3339.728589	160.000000
3340.794373	132.666667
3341.864383	168.666667
3342.931330	125.666667
3343.995215	181.000000
3345.061868	124.666667
3346.126916	178.333333
3347.190361	132.000000
3348.253660	164.000000
3349.316812	164.333333
3350.379818	196.000000
3351.442678	147.333333
3352.503936	173.333333
3353.562137	158.666667
3354.624558	173.333333
3355.683924	176.000000
3356.743144	172.666667
3357.803673	141.666667
3358.859694	148.333333
3359.918478	134.000000
3360.972755	206.000000
3362.029796	163.666667
3363.085238	170.000000
3364.141990	166.333333
3365.197143	164.000000
3366.250699	153.000000
3367.302659	160.333333
3368.357380	141.333333
3369.409052	180.000000
3370.460581	132.333333
3371.513418	172.666667
3372.563208	137.333333
3373.614307	133.333333
3374.662360	151.333333
3375.713172	185.666667
3376.760940	173.333333
3377.808565	161.333333
3378.856047	107.333333
3379.901937	192.000000
3380.949135	187.000000
3381.993291	190.333333
3383.040205	134.666667
3384.085527	180.333333
3385.127808	120.000000
3386.169949	178.000000
3387.213397	135.666667
3388.256704	140.333333
3389.298422	154.333333
3390.339998	142.666667
3391.381433	188.000000
3392.421280	191.000000
3393.459538	165.333333
3394.499104	180.000000
3395.538530	132.666667
3396.576368	135.000000
3397.612619	130.000000
3398.648731	168.333333
3399.686150	145.333333
3400.720536	145.333333
3401.756229	141.000000
3402.791783	170.000000
3403.824306	164.333333
3404.859582	188.333333
3405.891827	146.000000
3406.923934	158.666667
3407.954457	139.666667
3408.986287	160.666667
3410.017979	187.333333
3411.046643	153.000000
3412.075170	137.000000
3413.105003	182.333333
3414.134699	155.000000
3415.161369	157.333333
3416.189346	154.666667
3417.214298	124.666667
3418.242000	148.333333
3419.266679	169.000000
3420.292664	136.000000
3421.317069	153.666667
3422.341338	151.666667
3423.364028	125.333333
3424.386582	174.000000
3425.410442	154.000000
3426.431282	166.333333
3427.451986	176.000000
3428.473997	104.666667
3429.492989	183.666667
3430.511845	132.000000
3431.532008	150.666667
3432.549154	140.000000
