-116.707459	15.666667
-114.037859	6.333333
-111.371194	-7.666667
-108.705281	18.000000
-106.042300	1.666667
-103.377890	-40.000000
-100.716410	-10.333333
-98.053501	-13.000000
-95.395698	-5.666667
-92.736466	2.000000
-90.077982	21.333333
-87.422422	1.666667
-84.765434	12.666667
-82.113544	-19.333333
-79.460224	32.000000
-76.809823	15.333333
-74.157993	16.000000
-71.511254	3.666667
-68.863086	8.000000
-66.215660	-4.000000
-63.571148	-1.333333
-60.925208	-2.000000
-58.284349	22.000000
-55.642061	15.333333
-53.002682	25.666667
-50.361873	22.000000
-47.721805	-15.000000
-45.086809	25.333333
-42.450385	6.000000
-39.816863	-1.000000
-37.181913	-0.666667
-34.552028	18.000000
-31.918551	30.666667
-29.290136	13.666667
-26.662455	27.000000
-24.033345	25.000000
-21.409292	37.333333
-18.781650	50.333333
-16.159061	97.666667
-13.537204	100.666667
-10.916077	181.666667
-8.295680	436.333333
-5.678172	1644.000000
-3.059235	4985.666667
-0.443183	13979.666667
2.172140	24597.666667
4.786736	10941.333333
7.398449	1538.333333
10.011591	148.666667
12.619699	125.333333
15.231389	77.000000
17.838048	39.000000
20.446135	-3.666667
23.053498	49.000000
25.655836	26.666667
28.261752	24.666667
30.862646	15.333333
33.464968	-18.000000
36.062273	47.333333
38.663153	47.000000
41.259018	8.333333
43.856312	21.000000
46.452886	10.333333
49.044451	10.333333
51.637444	13.000000
54.227576	-7.000000
56.819136	1.666667
59.407836	2.000000
61.997963	-14.666667
64.583091	-12.333333
67.169647	22.666667
69.755489	-29.000000
72.338477	3.000000
74.922891	38.000000
77.500177	31.333333
80.081029	22.333333
82.659032	0.666667
85.236325	32.666667
87.815044	39.333333
90.388781	30.333333
92.963946	24.333333
95.536267	-9.333333
98.107880	32.666667
100.676653	26.000000
103.246853	-8.333333
105.814215	26.333333
108.383002	13.666667
110.948953	21.000000
113.512069	-1.666667
116.078741	-0.666667
118.636192	32.000000
121.199328	11.666667
123.757504	29.666667
126.319235	8.666667
128.876009	57.000000
131.434210	100.333333
133.987457	104.666667
136.540007	169.666667
139.096107	245.666667
141.647259	279.000000
144.197714	314.000000
146.747471	340.666667
149.294409	468.666667
151.840652	449.666667
154.388320	455.333333
156.935292	441.333333
159.477329	468.666667
162.018672	414.000000
164.559322	453.333333
167.101398	433.000000
169.640662	442.333333
172.177118	378.000000
174.712882	403.333333
177.250072	437.000000
179.786571	410.000000
182.320264	425.000000
184.851153	381.000000
187.381355	401.000000
189.912981	401.000000
192.441806	434.333333
194.967832	409.666667
197.493172	418.000000
200.019937	423.333333
202.543906	394.666667
205.067190	402.000000
207.589789	425.333333
210.109595	426.333333
212.628718	425.666667
215.147158	419.333333
217.667022	375.000000
220.179885	409.666667
222.696279	437.333333
225.211991	446.000000
227.722813	495.666667
230.235060	506.666667
232.744525	543.666667
235.253311	511.666667
237.761418	510.000000
240.270950	501.000000
242.775601	493.333333
245.279576	517.000000
247.784975	541.666667
250.285499	547.666667
252.789547	537.333333
255.286623	513.333333
257.787223	508.666667
260.285051	531.666667
262.782206	503.666667
265.278688	508.000000
267.770307	515.333333
270.265446	513.000000
272.757818	509.666667
275.249520	513.000000
277.738459	551.000000
280.228822	556.000000
282.716422	531.000000
285.201263	573.666667
287.689619	590.666667
290.171035	547.666667
292.655965	592.333333
295.136050	559.666667
297.619647	594.000000
300.098401	662.666667
302.578579	723.000000
305.056004	699.333333
307.532766	665.333333
310.008865	644.000000
312.482215	607.333333
314.954903	585.333333
317.426930	660.666667
319.898296	658.333333
322.366917	700.666667
324.834880	671.666667
327.304264	640.666667
329.768826	608.666667
332.236892	597.000000
334.700138	522.000000
337.162726	545.000000
339.624658	548.333333
342.085933	564.333333
344.544474	550.333333
347.004437	571.666667
349.461667	572.666667
351.918243	535.333333
354.374165	550.000000
356.827357	554.333333
359.281972	528.333333
361.731785	554.333333
364.185094	540.666667
366.633605	549.000000
369.081464	584.333333
371.530746	532.333333
373.975234	534.666667
376.421144	535.666667
378.866404	513.333333
381.308946	507.333333
383.750840	496.333333
386.192087	538.333333
388.630618	527.000000
391.070571	480.666667
393.507810	493.000000
395.942337	504.666667
398.380352	525.666667
400.813590	511.000000
403.248249	494.666667
405.678136	506.000000
408.111508	465.333333
410.540110	468.000000
412.968070	494.000000
415.397452	472.666667
417.822068	483.333333
420.248106	472.333333
422.673503	531.000000
425.098260	502.000000
427.518259	466.666667
429.939679	493.000000
432.358402	478.666667
434.778546	517.666667
437.195995	526.333333
439.614864	500.000000
442.031040	516.000000
444.442468	485.333333
446.857374	475.666667
449.269589	507.333333
451.681170	517.333333
454.092117	452.333333
456.500378	453.000000
458.908006	484.666667
461.315002	428.666667
463.721367	448.333333
466.125049	440.333333
468.528101	429.000000
470.930523	456.333333
473.332315	494.000000
475.731430	454.000000
478.131964	492.333333
480.531869	456.000000
482.927051	491.000000
485.325700	518.333333
487.719629	541.333333
490.112932	533.666667
492.505609	630.333333
494.897661	587.333333
497.291131	610.000000
499.679889	673.333333
502.065981	720.333333
504.453493	890.333333
506.840382	1135.666667
509.224607	1536.666667
511.610250	2171.000000
513.993232	3680.000000
516.373553	6848.333333
518.755293	12805.333333
521.134374	18791.333333
523.514874	18029.666667
525.892716	11904.000000
528.267903	5676.000000
530.642472	3169.000000
533.018459	2108.333333
535.391794	1623.333333
537.766546	1286.333333
540.136613	1085.666667
542.506064	897.666667
544.876933	819.000000
547.243122	745.000000
549.610729	713.333333
551.975690	615.333333
554.340038	570.666667
556.703773	542.000000
559.068926	497.333333
561.429407	505.333333
563.791306	478.333333
566.150564	460.000000
568.507185	447.333333
570.867250	454.666667
573.220624	451.000000
575.577443	430.333333
577.931627	393.000000
580.285202	333.000000
582.638170	368.333333
584.988505	370.666667
587.340258	391.666667
589.685334	348.333333
592.035874	367.666667
594.379740	374.000000
596.729068	366.333333
599.073747	344.333333
601.415802	376.666667
603.759274	369.333333
606.100123	344.666667
608.440370	340.333333
610.777996	328.333333
613.119057	389.666667
615.455480	382.000000
617.793320	367.000000
620.128543	368.333333
622.461150	358.666667
624.795173	359.333333
627.126582	392.000000
629.457393	368.666667
631.787607	309.666667
634.117222	342.333333
636.442214	348.666667
638.772648	314.333333
641.098461	344.333333
643.421666	322.666667
645.746288	340.000000
648.068304	313.666667
650.389726	295.000000
652.708546	297.666667
655.028781	338.666667
657.348423	318.000000
659.665464	317.333333
661.981913	298.000000
664.295764	322.000000
666.611031	318.666667
668.923701	377.666667
671.237786	302.333333
673.547271	339.000000
675.858172	282.000000
678.166480	336.000000
680.474200	327.666667
682.783334	257.333333
685.087876	296.666667
687.391832	307.000000
689.695202	267.666667
691.999986	270.333333
694.300184	281.666667
696.601796	264.000000
698.902823	273.666667
701.199269	254.666667
703.497130	276.666667
705.794407	251.333333
708.091101	268.666667
710.383219	266.666667
712.678748	237.666667
714.969703	259.666667
717.262073	263.666667
719.551868	251.333333
721.841082	255.333333
724.129717	300.666667
726.415779	270.000000
728.703256	308.000000
730.988161	247.666667
733.272489	245.000000
735.554248	223.000000
737.837421	276.333333
740.120017	240.666667
742.398057	236.666667
744.677512	251.000000
746.956390	268.666667
749.234694	289.666667
751.508448	253.333333
753.783615	252.333333
756.058209	239.333333
758.330244	276.333333
760.603692	269.000000
762.874582	313.333333
765.142916	224.000000
767.412663	287.333333
769.679856	278.000000
771.946478	272.666667
774.212530	284.666667
776.476031	277.666667
778.740945	315.000000
781.005289	312.666667
783.265104	307.333333
785.526331	308.666667
787.786991	306.333333
790.045105	272.666667
792.300674	303.333333
794.559634	303.000000
796.812095	290.333333
799.069922	284.666667
801.323231	290.666667
803.574000	326.000000
805.826181	302.666667
808.075823	282.000000
810.326878	320.333333
812.573421	305.000000
814.821376	322.666667
817.066797	271.333333
819.313629	297.000000
821.559900	293.666667
823.801666	278.333333
826.046816	343.333333
828.285493	307.333333
830.527552	289.000000
832.765113	242.666667
835.004086	274.000000
837.240532	286.000000
839.478389	265.666667
841.713721	238.333333
843.946530	289.666667
846.180750	310.000000
848.412447	259.666667
850.643590	284.666667
852.874178	282.000000
855.104212	255.666667
857.333692	286.333333
859.558690	267.333333
861.787063	277.333333
864.010956	261.000000
866.236261	253.333333
868.457090	295.000000
870.681291	298.000000
872.901019	278.666667
875.122157	299.333333
877.342745	310.666667
879.560824	283.000000
881.780312	299.666667
883.995334	329.666667
886.209808	280.000000
888.423735	312.666667
890.637115	289.333333
892.849947	288.000000
895.062233	291.333333
897.272016	311.666667
899.481254	283.333333
901.689947	293.000000
903.896141	285.000000
906.103744	326.666667
908.308849	304.333333
910.513411	299.333333
912.715478	302.333333
914.918954	274.333333
917.119936	328.666667
919.320376	282.000000
921.522225	288.333333
923.717683	336.666667
925.916500	363.666667
928.110878	374.000000
930.308614	434.666667
932.501914	466.000000
934.696623	532.000000
936.888846	570.000000
939.080530	647.333333
941.271677	674.333333
943.460341	723.000000
945.648469	742.000000
947.834116	747.000000
950.023115	747.333333
952.207691	709.666667
954.391732	729.000000
956.579123	742.333333
958.758210	765.333333
960.940648	740.666667
963.122552	747.666667
965.301981	751.666667
967.478938	760.666667
969.657303	773.000000
971.837075	811.000000
974.010498	764.000000
976.187267	800.000000
978.359629	783.666667
980.533399	754.000000
982.702765	749.666667
984.875475	743.666667
987.045720	765.000000
989.215436	685.333333
991.384623	629.333333
993.549413	573.000000
995.717544	530.333333
997.881281	466.000000
1000.046424	458.000000
1002.209108	469.666667
1004.371267	464.000000
1006.530969	413.333333
1008.690146	417.333333
1010.850730	420.333333
1013.008859	402.000000
1015.166465	378.333333
1017.323547	354.333333
1019.480105	371.000000
1021.632284	338.333333
1023.785870	434.666667
1025.938934	322.333333
1028.089549	371.000000
1030.241571	376.000000
1032.389219	289.000000
1034.540199	364.000000
1036.686808	314.000000
1038.832898	322.666667
1040.978470	353.000000
1043.125447	303.333333
1045.266135	283.000000
1047.410153	299.333333
1049.551730	278.333333
1051.692791	327.000000
1053.835256	318.333333
1055.971442	290.000000
1058.110953	304.666667
1060.246110	313.666667
1062.384591	322.000000
1064.518718	287.000000
1066.652332	324.000000
1068.787351	305.666667
1070.918020	278.000000
1073.050094	333.666667
1075.179739	273.000000
1077.308872	295.000000
1079.437493	293.000000
1081.565603	289.333333
1083.691287	303.666667
1085.816461	308.000000
1087.943039	262.666667
1090.065279	275.000000
1092.188924	286.000000
1094.308234	276.000000
1096.432774	264.000000
1098.551068	280.333333
1100.670767	258.000000
1102.788047	224.666667
1104.904821	284.000000
1107.021088	247.000000
1109.134939	276.333333
1111.250195	256.666667
1113.361127	254.666667
1115.475372	220.666667
1117.585296	269.333333
1119.696624	266.666667
1121.807447	221.666667
1123.913954	234.000000
1126.023771	251.000000
1128.129273	251.333333
1130.236178	223.666667
1132.336868	274.000000
1134.442770	244.333333
1136.544363	246.333333
1138.647359	237.000000
1140.749854	251.666667
1142.846142	260.000000
1144.947637	233.333333
1147.044830	233.000000
1149.141525	231.666667
1151.237721	264.666667
1153.333420	262.000000
1155.428620	234.000000
1157.521424	227.000000
1159.615631	296.000000
1161.703646	230.666667
1163.796859	252.333333
1165.883884	237.000000
1167.974208	240.000000
1170.060244	265.666667
1172.149579	207.333333
1174.232732	246.666667
1176.317287	202.000000
1178.403244	231.333333
1180.484919	213.333333
1182.567996	207.000000
1184.648687	224.000000
1186.728886	229.666667
1188.808594	230.000000
1190.887811	236.000000
1192.964646	233.000000
1195.039100	224.666667
1197.116845	219.000000
1199.190321	196.000000
1201.265197	226.000000
1203.335806	247.333333
1205.407816	210.333333
1207.477451	227.000000
1209.548486	241.000000
1211.619033	235.333333
1213.685319	231.666667
1215.753006	214.333333
1217.818321	234.000000
1219.885036	203.000000
1221.947495	222.000000
1224.013239	191.000000
1226.074729	217.666667
1228.137620	230.000000
1230.198143	269.000000
1232.258182	221.333333
1234.317739	207.333333
1236.374930	188.333333
1238.431640	202.333333
1240.485986	213.000000
1242.543614	260.000000
1244.598879	182.666667
1246.649903	182.333333
1248.702327	214.000000
1250.754271	220.666667
1252.803857	224.000000
1254.852964	204.666667
1256.901593	198.666667
1258.949743	242.333333
1260.997414	220.333333
1263.040855	215.666667
1265.087572	189.000000
1267.131935	215.333333
1269.175822	193.333333
1271.217357	208.333333
1273.256543	236.333333
1275.299002	220.333333
1277.337238	225.333333
1279.376873	186.333333
1281.416033	211.666667
1283.450974	182.666667
1285.487314	236.666667
1287.521310	197.333333
1289.556703	214.000000
1291.587884	201.666667
1293.620462	219.666667
1295.652569	207.000000
1297.682335	222.000000
1299.713498	231.000000
1301.740455	177.666667
1303.768809	195.333333
1305.792958	178.000000
1307.820373	198.666667
1309.843585	181.666667
1311.868195	220.000000
1313.890471	187.333333
1315.914144	221.000000
1317.935484	201.333333
1319.956356	222.000000
1321.976761	184.666667
1323.992973	228.333333
1326.010582	221.000000
1328.025863	206.333333
1330.044403	210.000000
1332.058754	222.666667
1334.070779	193.666667
1336.086061	218.000000
1338.097158	215.333333
1340.109652	192.000000
1342.117963	208.666667
1344.129529	179.666667
1346.135057	157.666667
1348.143840	194.333333
1350.148445	223.333333
1352.156304	174.666667
1354.163701	193.333333
1356.165067	228.333333
1358.167829	189.000000
1360.170132	203.000000
1362.171975	208.333333
1364.173358	211.666667
1366.172428	208.666667
1368.171039	209.333333
1370.169192	196.000000
1372.166886	232.666667
1374.160418	198.666667
1376.155345	214.666667
1378.149816	208.333333
1380.143830	182.333333
1382.135537	199.666667
1384.126789	198.666667
1386.115735	221.000000
1388.106076	209.333333
1390.095962	220.666667
1392.083544	199.333333
1394.070673	215.333333
1396.055500	217.333333
1398.041722	177.333333
1400.025644	194.666667
1402.009113	218.666667
1403.992129	204.000000
1405.972848	199.000000
1407.954961	211.000000
1409.934778	190.000000
1411.914143	222.000000
1413.889370	192.000000
1415.867835	223.666667
1417.844007	191.000000
1419.819730	223.666667
1421.795003	203.333333
1423.767985	184.666667
1425.740519	218.666667
1427.712605	222.666667
1429.684244	206.333333
1431.651754	223.333333
1433.624338	233.666667
1435.589116	192.000000
1437.558967	188.333333
1439.524694	195.000000
1441.491813	210.333333
1443.456649	224.333333
1445.417365	225.000000
1447.383149	175.000000
1449.342978	178.000000
1451.304201	213.333333
1453.266816	195.666667
1455.225316	218.666667
1457.183373	208.666667
1459.140989	200.666667
1461.098162	206.666667
1463.053060	238.000000
1465.009351	221.333333
1466.963367	209.333333
1468.916942	198.666667
1470.868245	235.666667
1472.820941	213.333333
1474.771364	180.333333
1476.721349	210.000000
1478.670895	198.000000
1480.618172	183.333333
1482.563181	169.666667
1484.509583	192.666667
1486.455547	225.666667
1488.401074	211.000000
1490.344335	226.333333
1492.287161	202.000000
1494.227723	178.666667
1496.169676	179.000000
1498.109367	144.333333
1500.048624	181.666667
1501.987445	204.000000
1503.924007	207.666667
1505.861960	209.666667
1507.797654	205.666667
1509.732915	212.333333
1511.665920	215.000000
1513.598492	215.333333
1515.530632	189.666667
1517.462340	223.333333
1519.391794	182.666667
1521.322639	199.000000
1523.253052	181.333333
1525.179393	222.666667
1527.107125	225.000000
1529.032606	194.000000
1530.957658	234.333333
1532.882281	198.000000
1534.806475	194.666667
1536.728421	178.000000
1538.651758	213.666667
1540.572848	207.333333
1542.491694	204.666667
1544.411930	224.000000
1546.329923	198.333333
1548.247489	202.333333
1550.162813	181.333333
1552.079527	229.000000
1553.992186	211.666667
1555.908049	184.000000
1557.821672	203.000000
1559.733057	196.666667
1561.645832	199.666667
1563.554557	217.000000
1565.464671	177.666667
1567.374362	203.000000
1569.283630	194.333333
1571.190664	179.666667
1573.095465	199.333333
1575.001655	202.000000
1576.905613	225.000000
1578.809150	210.666667
1580.712267	228.000000
1582.613154	193.000000
1584.515430	181.666667
1586.415478	199.333333
1588.316913	218.000000
1590.214315	196.666667
1592.111298	189.000000
1594.007863	202.333333
1595.905816	208.333333
1597.797934	203.000000
1599.693245	189.000000
1601.588139	178.000000
1603.480811	208.666667
1605.373066	192.333333
1607.263102	224.000000
1609.152722	181.666667
1611.041927	189.000000
1612.930717	194.333333
1614.817289	200.000000
1616.705249	209.333333
1618.589192	223.666667
1620.474522	215.000000
1622.359439	211.666667
1624.242142	180.333333
1626.126232	196.000000
1628.006310	219.666667
1629.887776	198.000000
1631.767031	196.000000
1633.647672	193.333333
1635.522509	184.000000
1637.402327	176.666667
1639.278141	207.000000
1641.153544	182.333333
1643.030333	216.000000
1644.901326	258.666667
1646.775500	172.333333
1648.645675	214.333333
1650.519032	228.666667
1652.390184	205.000000
1654.259136	206.000000
1656.129472	200.666667
1657.995816	207.333333
1659.863545	183.666667
1661.729075	210.000000
1663.595991	212.666667
1665.458918	153.666667
1667.323230	202.666667
1669.185346	185.666667
1671.047057	219.333333
1672.910154	206.333333
1674.771055	207.333333
1676.629764	217.666667
1678.488069	205.666667
1680.347759	207.333333
1682.201681	204.666667
1684.058777	207.000000
1685.915470	189.333333
1687.768186	186.333333
1689.624074	166.666667
1691.475988	192.333333
1693.327501	236.333333
1695.178613	221.333333
1697.029325	164.333333
1698.879635	189.333333
1700.727762	157.333333
1702.577273	181.666667
1704.421035	209.000000
1706.269746	200.333333
1708.112711	179.000000
1709.958843	192.666667
1711.801012	187.333333
1713.646347	192.666667
1715.485941	180.000000
1717.326919	208.666667
1719.169280	191.666667
1721.007685	204.333333
1722.847473	196.666667
1724.685086	199.000000
1726.522303	193.666667
1728.357347	190.000000
1730.193774	210.000000
1732.028029	188.666667
1733.861889	188.333333
1735.695355	195.000000
1737.524876	205.000000
1739.357555	196.666667
1741.186290	199.000000
1743.018182	188.333333
1744.846132	205.333333
1746.673691	178.000000
1748.500857	218.333333
1750.327632	196.666667
1752.154015	192.666667
1753.976462	140.666667
1755.802064	209.666667
1757.623731	217.000000
1759.446780	208.000000
1761.267667	181.333333
1763.088166	185.666667
1764.910045	218.333333
1766.726226	208.333333
1768.545558	187.666667
1770.360963	192.666667
1772.179518	169.333333
1773.994148	193.333333
1775.808391	194.666667
1777.622248	214.666667
1779.435718	188.666667
1781.247035	171.666667
1783.059732	218.333333
1784.872044	166.333333
1786.680438	191.333333
1788.490212	167.666667
1790.296072	179.666667
1792.105077	181.666667
1793.910169	194.000000
1795.716642	184.666667
1797.522731	184.666667
1799.324909	169.666667
1801.130232	177.333333
1802.931646	195.666667
1804.734440	202.666667
1806.533328	192.666667
1808.333597	165.000000
1810.133484	171.333333
1811.931229	204.000000
1813.728594	153.333333
1815.525579	175.666667
1817.322183	190.333333
1819.116648	199.000000
1820.912492	176.666667
1822.702681	187.333333
1824.497767	192.000000
1826.287201	192.000000
1828.079771	232.333333
1829.870206	173.000000
1831.658507	176.666667
1833.449943	185.333333
1835.235733	158.000000
1837.022903	164.666667
1838.807941	225.333333
1840.596113	185.000000
1842.380399	208.666667
1844.162555	194.666667
1845.946091	199.666667
1847.727498	203.666667
1849.510284	179.666667
1851.289189	187.666667
1853.069474	200.000000
1854.847632	203.333333
1856.627169	172.000000
1858.404581	204.000000
1860.179869	155.333333
1861.956535	162.000000
1863.731079	161.333333
1865.507001	181.666667
1867.277302	212.000000
1869.050731	216.666667
1870.822040	189.666667
1872.592978	170.000000
1874.365294	207.333333
1876.131996	197.000000
1877.901824	193.666667
1879.667788	218.000000
1881.436875	196.333333
1883.202101	212.333333
1884.966959	190.333333
1886.733194	212.000000
1888.495570	202.000000
1890.257579	205.000000
1892.019220	180.666667
1893.780495	184.000000
1895.541402	204.000000
1897.301943	219.666667
1899.060374	191.000000
1900.818439	171.000000
1902.574397	188.333333
1904.331731	174.666667
1906.088700	192.333333
1907.843562	195.666667
1909.596320	160.333333
1911.348713	201.000000
1913.102483	214.333333
1914.854149	193.000000
1916.603713	166.000000
1918.354652	201.666667
1920.105229	161.000000
1921.851966	179.666667
1923.600080	176.000000
1925.346094	196.000000
1927.093483	170.666667
1928.838775	195.000000
1930.581969	193.000000
1932.326538	180.333333
1934.069012	190.000000
1935.811125	185.333333
1937.552878	214.000000
1939.294271	178.666667
1941.033571	199.000000
1942.772512	178.000000
1944.511094	183.666667
1946.247585	173.000000
1947.983718	180.666667
1949.721225	188.333333
1951.454910	155.666667
1953.189970	196.333333
1954.922941	160.000000
1956.655556	203.000000
1958.387815	196.333333
1960.119717	198.666667
1961.849533	208.666667
1963.577264	194.000000
1965.306370	204.666667
1967.035121	180.666667
1968.761788	187.333333
1970.488101	224.000000
1972.215787	196.666667
1973.937937	163.333333
1975.663188	176.666667
1977.384632	207.666667
1979.109177	187.333333
1980.831641	189.666667
1982.550303	212.666667
1984.272063	196.333333
1985.990021	175.666667
1987.709352	207.666667
1989.424884	168.333333
1991.145236	165.333333
1992.861790	196.666667
1994.574547	180.333333
1996.290400	183.000000
1998.004181	173.000000
1999.717612	184.000000
2001.428972	170.666667
2003.141704	207.666667
2004.850646	182.333333
2006.562680	194.333333
2008.269206	185.000000
2009.978823	179.666667
2011.686374	189.000000
2013.393576	219.666667
2015.098713	192.000000
2016.803504	195.666667
2018.509666	195.333333
2020.212046	218.666667
2021.915797	189.333333
2023.617486	202.333333
2025.318830	142.000000
2027.019828	209.000000
2028.718765	187.333333
2030.419074	206.000000
2032.115608	182.333333
2033.813513	198.666667
2035.509359	215.333333
2037.208291	190.000000
2038.901737	191.333333
2040.596554	230.333333
2042.291029	177.333333
2043.981735	192.000000
2045.675525	211.666667
2047.365548	194.333333
2049.056942	193.666667
2050.746283	219.000000
2052.436994	160.666667
2054.123942	197.000000
2055.810551	194.000000
2057.498529	193.000000
2059.182748	180.666667
2060.868338	196.000000
2062.553588	175.666667
2064.236789	190.666667
2065.921361	195.333333
2067.600470	197.000000
2069.284364	208.333333
2070.962797	190.333333
2072.644308	185.000000
2074.322067	172.000000
2075.999490	167.000000
2077.678282	174.000000
2079.355032	180.333333
2081.029740	209.666667
2082.705817	186.333333
2084.379853	186.000000
2086.053555	166.000000
2087.726921	195.666667
2089.398248	158.000000
2091.069241	183.666667
2092.739900	196.000000
2094.410225	170.666667
2096.080216	196.000000
2097.748171	145.000000
2099.415793	173.666667
2101.081380	171.000000
2102.748336	201.000000
2104.413259	197.666667
2106.077850	244.666667
2107.740409	164.000000
2109.404336	147.666667
2111.066232	214.000000
2112.727798	167.666667
2114.389032	150.000000
2116.048238	208.000000
2117.707113	193.000000
2119.365659	206.000000
2121.023874	210.666667
2122.678367	183.333333
2124.335924	179.666667
2125.993152	197.000000
2127.646658	168.000000
2129.301532	190.666667
2130.952687	202.333333
2132.606905	176.000000
2134.257406	176.000000
2135.909273	200.000000
2137.555732	167.333333
2139.206946	207.666667
2140.854446	196.333333
2142.503313	194.000000
2144.150161	193.333333
2145.796684	187.666667
2147.442881	154.333333
2149.085370	183.333333
2150.730917	183.333333
2152.372757	128.333333
2154.017654	185.000000
2155.658845	162.333333
2157.299714	182.333333
2158.940258	154.000000
2160.578790	164.000000
2162.218688	222.666667
2163.854886	157.000000
2165.492450	190.666667
2167.129692	197.000000
2168.764924	190.333333
2170.399835	201.666667
2172.034423	189.333333
2173.668691	183.666667
2175.299265	143.333333
2176.932891	182.000000
2178.562825	163.000000
2180.194124	174.666667
2181.823418	179.000000
2183.452393	170.000000
2185.081048	182.333333
2186.709384	200.666667
2188.335718	179.666667
2189.961733	197.333333
2191.585746	186.000000
2193.211125	167.000000
2194.834503	168.666667
2196.459246	152.666667
2198.080308	169.333333
2199.701053	182.666667
2201.323163	173.666667
2202.943275	190.666667
2204.561390	178.333333
2206.179190	166.666667
2207.796675	197.333333
2209.413844	202.333333
2211.030698	200.000000
2212.647236	223.666667
2214.261782	193.666667
2215.874335	165.000000
2217.488252	164.666667
2219.100178	174.000000
2220.713467	171.333333
2222.324766	204.666667
2223.934075	198.000000
2225.544748	161.333333
2227.153432	177.000000
2228.761803	177.000000
2230.368188	170.333333
2231.975936	167.666667
2233.581697	202.666667
2235.187147	171.666667
2236.790612	166.000000
2238.395440	177.000000
2239.998284	182.666667
2241.599145	175.333333
2243.201369	174.333333
2244.801611	129.666667
2246.403215	180.333333
2248.001166	160.666667
2249.600480	171.666667
2251.197814	154.000000
2252.794840	179.333333
2254.393228	212.000000
2255.987967	178.000000
2257.580729	219.000000
2259.174854	179.666667
2260.770340	147.666667
2262.362181	184.000000
2263.953716	162.666667
2265.546613	154.000000
2267.134200	201.666667
2268.726483	174.000000
2270.313460	183.666667
2271.903464	196.666667
2273.488164	178.666667
2275.077558	187.333333
2276.661650	166.333333
2278.247102	155.666667
2279.830586	153.333333
2281.417095	160.000000
2282.999971	170.000000
2284.582544	196.333333
2286.164813	181.333333
2287.743452	140.333333
2289.325116	181.333333
2290.903151	200.333333
2292.484209	182.666667
2294.061640	182.666667
2295.637108	182.666667
2297.215598	176.666667
2298.790464	142.000000
2300.365029	170.000000
2301.939294	170.000000
2303.513258	180.333333
2305.086921	150.000000
2306.660285	204.666667
2308.230030	162.333333
2309.799476	149.333333
2311.371940	164.000000
2312.939130	195.333333
2314.509338	183.666667
2316.075931	178.666667
2317.643884	181.333333
2319.209881	176.666667
2320.775581	185.666667
2322.340983	198.666667
2323.904432	188.000000
2325.469240	160.000000
2327.030440	189.333333
2328.594654	193.000000
2330.153606	206.000000
2331.715573	202.333333
2333.275588	188.333333
2334.835309	145.000000
2336.393080	148.333333
2337.950556	191.333333
2339.507738	176.333333
2341.062972	189.000000
2342.617913	155.000000
2344.172559	155.666667
2345.726912	180.333333
2347.280972	162.000000
2348.834737	167.333333
2350.386558	159.000000
2351.936437	175.666667
2353.489323	154.000000
2355.036966	188.666667
2356.587618	162.333333
2358.134678	126.333333
2359.683096	160.666667
2361.231223	171.666667
2362.775761	190.000000
2364.321657	185.000000
2365.865615	184.666667
2367.410930	147.000000
2368.952660	194.666667
2370.495747	138.333333
2372.036898	165.333333
2373.577760	156.333333
2375.118333	173.666667
2376.658617	182.666667
2378.198612	163.000000
2379.735029	169.666667
2381.274447	169.333333
2382.810287	169.333333
2384.347485	191.000000
2385.881107	145.333333
2387.417729	155.666667
2388.952421	150.000000
2390.485183	183.666667
2392.017658	178.000000
2393.548205	159.000000
2395.081750	137.666667
2396.610084	184.000000
2398.139774	193.333333
2399.669179	137.333333
2401.198299	148.000000
2402.727134	176.000000
2404.250763	182.666667
2405.779028	128.000000
2407.302091	132.666667
2408.829787	175.000000
2410.350644	181.666667
2411.876134	196.333333
2413.398063	167.666667
2414.921348	152.333333
2416.442711	164.000000
2417.962155	196.333333
2419.482954	148.333333
2421.001835	146.666667
2422.520433	168.666667
2424.037114	161.333333
2425.555149	144.000000
2427.072903	128.000000
2428.587106	127.000000
2430.101028	190.333333
2431.614670	154.000000
2433.129667	164.666667
2434.641115	194.333333
2436.153918	146.333333
2437.664807	165.666667
2439.175418	173.000000
2440.684117	170.333333
2442.195802	172.666667
2443.703944	143.333333
2445.211808	169.333333
2446.719394	167.666667
2448.223439	172.333333
2449.730469	190.000000
2451.235591	147.666667
2452.740436	140.333333
2454.243374	173.666667
2455.746036	152.666667
2457.248421	151.333333
2458.748901	145.000000
2460.250734	153.666667
2461.750662	177.333333
2463.250315	152.666667
2464.749693	193.666667
2466.247168	173.333333
2467.742741	143.666667
2469.241294	140.000000
2470.736319	167.333333
2472.232696	129.666667
2473.725547	169.666667
2475.219751	138.000000
2476.713681	168.666667
2478.204087	158.666667
2479.697471	160.666667
2481.188957	156.000000
2482.678546	159.666667
2484.167863	174.333333
2485.655284	127.000000
2487.145681	162.666667
2488.632560	124.666667
2490.120790	160.666667
2491.605503	143.000000
2493.089947	154.666667
2494.575741	181.666667
2496.059644	134.666667
2497.544897	155.666667
2499.025017	128.333333
2500.508110	174.000000
2501.989312	164.666667
2503.470245	145.000000
2504.949289	158.333333
2506.428064	198.666667
2507.906571	139.000000
2509.384810	182.666667
2510.862780	166.666667
2512.337245	171.000000
2513.814680	172.333333
2515.288611	180.000000
2516.763892	162.000000
2518.238906	154.000000
2519.710419	165.333333
2521.183283	132.666667
2522.654264	180.000000
2524.126595	153.333333
2525.593812	137.000000
2527.063996	167.333333
2528.532299	170.000000
2530.000337	163.333333
2531.468110	174.333333
2532.935618	152.333333
2534.402861	152.666667
2535.866612	159.000000
2537.331713	159.333333
2538.794937	160.333333
2540.259510	149.000000
2541.720595	152.000000
2543.183029	155.000000
2544.645200	161.666667
2546.103885	176.666667
2547.567141	166.333333
2549.025302	188.000000
2550.484811	194.000000
2551.939226	113.666667
2553.398212	143.666667
2554.855326	169.000000
2556.310569	167.666667
2557.765550	182.666667
2559.218663	143.000000
2560.673124	169.000000
2562.125715	137.333333
2563.578047	172.000000
2565.028512	146.666667
2566.481932	160.333333
2567.930270	167.000000
2569.381563	164.666667
2570.830991	136.000000
2572.276946	164.333333
2573.725856	147.666667
2575.171296	187.666667
2576.618083	174.333333
2578.063008	168.333333
2579.507674	125.666667
2580.953688	138.000000
2582.396236	172.333333
2583.840131	162.333333
2585.280561	133.333333
2586.722338	160.666667
2588.162256	128.333333
2589.603521	143.333333
2591.041324	153.666667
2592.482077	127.000000
2593.917768	129.000000
2595.356408	146.666667
2596.793190	133.333333
2598.228117	142.666667
2599.665991	171.333333
2601.098808	137.000000
2602.532972	163.333333
2603.965282	150.333333
2605.398938	157.333333
2606.830741	181.333333
2608.262290	125.666667
2609.693587	119.666667
2611.123031	136.333333
2612.552223	136.000000
2613.979565	129.000000
2615.408252	197.000000
2616.836688	153.000000
2618.261676	164.666667
2619.688011	159.000000
2621.112497	174.333333
2622.538329	143.333333
2623.960717	176.333333
2625.384451	146.666667
2626.806338	156.000000
2628.227976	166.000000
2629.647768	169.333333
2631.068906	153.666667
2632.489794	134.666667
2633.907244	137.666667
2635.327633	159.333333
2636.744585	151.333333
2638.161288	134.333333
2639.577743	146.333333
2640.993950	158.000000
2642.409909	118.666667
2643.824027	117.333333
2645.237897	159.000000
2646.649929	161.666667
2648.063304	174.000000
2649.473250	155.333333
2650.886132	141.666667
2652.295585	159.666667
2653.704792	163.666667
2655.112163	157.000000
2656.522468	153.333333
2657.930938	147.666667
2659.337572	166.666667
2660.743961	167.000000
2662.148516	117.333333
2663.554415	165.000000
2664.958481	127.333333
2666.362302	157.333333
2667.765879	155.666667
2669.167625	153.666667
2670.570714	146.666667
2671.970385	149.666667
2673.371400	168.000000
2674.768999	144.000000
2676.169527	163.333333
2677.566641	153.333333
2678.965098	140.333333
2680.361728	110.666667
2681.758115	131.666667
2683.154260	143.333333
2684.548579	141.333333
2685.944241	171.666667
2687.336494	152.666667
2688.730089	137.666667
2690.121860	177.333333
2691.514974	128.000000
2692.906264	136.000000
2694.295731	164.000000
2695.684958	148.000000
2697.073946	137.666667
2698.464275	156.333333
2699.849621	111.333333
2701.237890	149.000000
2702.624339	135.000000
2704.010549	140.000000
2705.396520	161.000000
2706.779093	155.333333
2708.163008	137.000000
2709.546685	109.333333
2710.930123	136.333333
2712.310167	160.000000
2713.691551	161.333333
2715.071121	137.666667
2716.452031	151.666667
2717.831127	156.333333
2719.208409	142.666667
2720.587032	137.333333
2721.963842	145.666667
2723.340415	130.000000
2724.716753	141.666667
2726.091280	127.000000
2727.467147	137.333333
2728.839627	144.666667
2730.215023	167.666667
2731.585459	155.000000
2732.957236	136.333333
2734.328778	106.333333
2735.698512	128.333333
2737.069587	143.333333
2738.438853	155.333333
2739.807886	130.000000
2741.175113	126.000000
2742.542106	137.333333
2743.908867	161.000000
2745.275396	126.333333
2746.640119	146.666667
2748.004610	114.666667
2749.368870	164.666667
2750.732897	124.000000
2752.096693	180.333333
2753.457115	123.000000
2754.820447	136.666667
2756.178837	117.666667
2757.540137	151.666667
2758.898067	128.666667
2760.258905	149.666667
2761.617944	183.333333
2762.973614	155.333333
2764.332192	153.666667
2765.687403	125.666667
2767.042385	101.333333
2768.395571	134.666667
2769.751662	120.666667
2771.104390	137.666667
2772.456890	156.333333
2773.809161	147.333333
2775.162770	136.666667
2776.513019	139.666667
2777.861473	135.333333
2779.212833	124.000000
2780.560833	134.333333
2781.910171	118.000000
2783.257717	133.333333
2784.605037	123.666667
2785.952130	125.666667
2787.297432	142.333333
2788.642507	143.666667
2789.987357	149.000000
2791.331981	142.000000
2792.673253	140.333333
2794.015863	141.000000
2795.358247	152.000000
2796.700406	98.333333
2798.039216	128.666667
2799.380926	144.666667
2800.719288	119.333333
2802.058986	157.333333
2803.396900	112.333333
2804.733029	133.333333
2806.068934	149.000000
2807.406177	123.000000
2808.741636	178.333333
2810.076872	127.666667
2811.410325	145.666667
2812.745115	143.000000
2814.076565	134.333333
2815.410910	147.333333
2816.740357	143.333333
2818.071141	140.333333
2819.401703	145.000000
2820.730486	144.666667
2822.060605	137.000000
2823.388946	127.666667
2824.717066	135.000000
2826.043408	75.000000
2827.371087	126.000000
2828.695432	146.333333
2830.021114	111.333333
2831.345020	105.666667
2832.668707	115.333333
2833.993729	127.666667
2835.315421	118.000000
2836.636895	133.000000
2837.958150	155.333333
2839.279186	144.333333
2840.598449	137.666667
2841.919048	127.000000
2843.237876	175.666667
2844.556485	111.333333
2845.873323	138.000000
2847.189944	164.333333
2848.506348	112.000000
2849.820982	107.666667
2851.136952	112.333333
2852.449601	74.333333
2853.763585	128.000000
2855.077353	145.000000
2856.390904	128.000000
2857.702689	131.000000
2859.012707	82.000000
2860.324060	134.666667
2861.632098	123.333333
2862.941470	137.333333
2864.250628	108.666667
2865.559570	94.666667
2866.866748	108.666667
2868.172164	143.333333
2869.478913	130.333333
2870.783901	118.666667
2872.088675	109.000000
2873.391687	121.333333
2874.697580	131.333333
2875.998619	123.666667
2877.300992	145.666667
2878.601605	130.000000
2879.903552	115.666667
2881.205285	142.666667
2882.503715	124.000000
2883.803478	145.000000
2885.101484	140.666667
2886.399278	162.000000
2887.695316	140.666667
2888.992687	99.666667
2890.288302	127.333333
2891.583706	85.666667
2892.878899	156.333333
2894.170795	129.666667
2895.465567	90.333333
2896.757042	93.666667
2898.049850	138.000000
2899.342448	100.333333
2900.631752	144.000000
2901.922388	118.000000
2903.211273	123.666667
2904.501490	112.333333
2905.788416	107.333333
2907.076674	108.333333
2908.363183	128.333333
2909.649483	92.666667
2910.935576	124.333333
2912.219920	133.666667
2913.507135	119.666667
2914.789524	113.666667
2916.073245	104.666667
2917.355220	135.333333
2918.636987	149.666667
2919.917010	113.333333
2921.199902	92.333333
2922.481049	145.333333
2923.758914	136.333333
2925.039648	157.666667
2926.317101	142.000000
2927.594348	137.000000
2928.869853	120.666667
2930.148226	143.000000
2931.421785	169.666667
2932.698211	108.666667
2933.972896	104.333333
2935.245840	107.666667
2936.520116	113.666667
2937.792652	125.000000
2939.064983	141.666667
2940.334042	116.333333
2941.605966	115.333333
2942.876152	136.333333
2944.146134	138.000000
2945.415913	135.333333
2946.683956	130.333333
2947.950262	123.666667
2949.216367	99.333333
2950.483801	115.333333
2951.749501	118.000000
2953.014998	134.333333
2954.280293	143.666667
2955.542323	105.666667
2956.805683	86.000000
2958.068842	125.333333
2959.330269	153.666667
2960.593025	125.000000
2961.854049	147.000000
2963.113343	111.666667
2964.372437	133.333333
2965.631330	132.333333
2966.890023	110.333333
2968.148516	107.000000
2969.405280	98.666667
2970.661844	139.666667
2971.916681	112.666667
2973.172846	160.333333
2974.425757	107.666667
2975.679997	150.000000
2976.934037	107.666667
2978.186353	100.000000
2979.438469	104.666667
2980.688861	146.000000
2981.942108	144.000000
2983.190578	127.333333
2984.441903	124.000000
2985.689978	98.000000
2986.937857	144.333333
2988.185538	152.000000
2989.433022	110.666667
2990.678785	141.000000
2991.924352	82.666667
2993.171246	137.666667
2994.414896	118.333333
2995.659874	122.000000
2996.901608	104.000000
2998.146194	122.333333
2999.389061	91.333333
3000.628687	158.000000
3001.871163	105.666667
3003.110399	121.666667
3004.350963	141.000000
3005.589810	109.333333
3006.828463	107.666667
3008.065400	88.000000
3009.303665	119.666667
3010.540214	146.333333
3011.776570	106.333333
3013.012732	99.666667
3014.247180	142.000000
3015.481436	118.333333
3016.715498	131.666667
3017.947848	126.333333
3019.178486	152.333333
3020.411970	115.333333
3021.643742	111.000000
3022.873804	131.666667
3024.103673	114.000000
3025.331833	137.000000
3026.561320	90.333333
3027.789097	134.333333
3029.016683	105.000000
3030.245596	126.000000
3031.469766	112.000000
3032.696779	113.333333
3033.920568	97.000000
3035.145684	136.000000
3036.369093	119.333333
3037.592312	81.666667
3038.813826	124.000000
3040.038181	117.666667
3041.257801	108.000000
3042.478747	131.000000
3043.699504	103.666667
3044.918557	137.333333
3046.138935	142.333333
3047.356097	124.000000
3048.574585	103.666667
3049.791370	114.333333
3051.007968	75.000000
3052.224377	75.000000
3053.437574	120.333333
3054.653608	138.000000
3055.866430	131.666667
3057.082089	121.333333
3058.293025	96.000000
3059.505286	136.666667
3060.717361	109.333333
3061.929248	97.666667
3063.139439	93.666667
3064.349443	93.666667
3065.559261	109.000000
3066.767383	134.000000
3067.975320	113.333333
3069.181561	144.000000
3070.389127	115.000000
3071.594998	113.000000
3072.800685	111.000000
3074.006186	116.666667
3075.209994	111.333333
3076.415126	96.333333
3077.618565	130.666667
3078.820313	126.333333
3080.021876	85.666667
3081.223256	103.333333
3082.424452	104.333333
3083.623958	79.333333
3084.823281	133.000000
3086.023927	114.000000
3087.222883	93.000000
3088.418645	87.333333
3089.617236	140.666667
3090.812633	81.333333
3092.009353	119.000000
3093.202881	106.666667
3094.399237	105.333333
3095.593907	125.333333
3096.785385	138.666667
3097.981196	119.333333
3099.172312	95.333333
3100.364752	94.000000
3101.554004	138.666667
3102.746081	112.333333
3103.936475	127.666667
3105.123683	116.000000
3106.312213	111.000000
3107.502066	97.666667
3108.688735	93.000000
3109.875223	104.000000
3111.061533	90.666667
3112.249164	111.333333
3113.433613	156.666667
3114.616383	106.000000
3115.801975	59.000000
3116.985888	105.333333
3118.168122	113.333333
3119.350177	120.333333
3120.532054	59.666667
3121.713753	79.333333
3122.893775	104.333333
3124.072120	101.666667
3125.253285	93.666667
3126.431275	109.000000
3127.609089	115.000000
3128.786725	117.333333
3129.962686	109.333333
3131.138470	106.333333
3132.315576	85.666667
3133.491007	91.000000
3134.664765	83.333333
3135.836850	109.333333
3137.010257	115.333333
3138.183487	132.666667
3139.355046	91.000000
3140.527925	110.333333
3141.697637	117.333333
3142.868670	117.000000
3144.038033	93.000000
3145.205725	87.000000
3146.376233	83.333333
3147.542083	97.000000
3148.712241	96.333333
3149.877743	85.000000
3151.043070	110.000000
3152.208224	101.000000
3153.373205	93.000000
3154.539505	108.666667
3155.701153	124.666667
3156.864120	93.666667
3158.026915	86.000000
3159.189537	100.666667
3160.350494	71.333333
3161.511278	84.666667
3162.671890	76.666667
3163.830838	125.666667
3164.989615	97.333333
3166.148220	107.333333
3167.306652	79.666667
3168.464914	104.333333
3169.621513	114.333333
3170.776451	88.000000
3171.932708	110.000000
3173.087304	108.333333
3174.241730	103.000000
3175.394496	82.000000
3176.547091	96.666667
3177.699517	81.666667
3178.851773	90.333333
3180.003858	69.000000
3181.152798	104.666667
3182.304544	52.333333
3183.454632	111.666667
3184.603064	107.666667
3185.751326	92.666667
3186.899420	113.000000
3188.047345	103.000000
3189.193614	72.666667
3190.339715	75.666667
3191.484162	102.333333
3192.628441	127.666667
3193.772552	94.666667
3194.917980	89.333333
3196.060270	105.333333
3197.202393	96.000000
3198.344348	99.666667
3199.486136	82.000000
3200.627757	84.333333
3201.766243	141.333333
3202.906046	93.666667
3204.047167	95.333333
3205.185153	97.333333
3206.321490	86.000000
3207.457661	97.000000
3208.595149	111.000000
3209.730989	92.000000
3210.868146	59.333333
3212.000690	89.666667
3213.137516	115.666667
3214.269730	95.000000
3215.403261	71.666667
3216.536628	102.333333
3217.666867	93.333333
3218.799904	90.000000
3219.929815	104.000000
3221.061042	136.666667
3222.189145	89.666667
3223.320044	88.666667
3224.449299	99.666667
3225.576911	130.000000
3226.701400	101.333333
3227.830165	118.000000
3228.955808	104.666667
3230.081289	98.333333
3231.205128	114.666667
3232.331761	92.000000
3233.453797	119.333333
3234.577149	69.666667
3235.700339	102.666667
3236.823366	97.000000
3237.944755	77.333333
3239.065981	87.333333
3240.185570	82.333333
3241.304997	123.000000
3242.422786	90.000000
3243.543367	98.666667
3244.660835	116.666667
3245.778142	95.666667
3246.895289	82.000000
3248.010800	109.000000
3249.127625	106.000000
3250.241341	94.666667
3251.357846	110.333333
3252.472717	68.666667
3253.584479	77.000000
3254.696081	85.333333
3255.808999	105.666667
3256.921757	103.666667
3258.031409	85.333333
3259.142376	90.000000
3260.253184	93.000000
3261.362360	102.666667
3262.469906	94.666667
3263.578765	99.666667
3264.687467	89.666667
3265.793066	86.666667
3266.899979	71.000000
3268.005263	96.000000
3269.111861	93.333333
3270.215359	64.000000
3271.320172	83.000000
3272.424827	86.000000
3273.526383	84.666667
3274.627783	87.666667
3275.730497	117.666667
3276.833055	84.333333
3277.932516	80.000000
3279.034761	65.333333
3280.133910	92.000000
3281.231435	113.000000
3282.328804	97.000000
3283.428955	80.666667
3284.526014	87.000000
3285.622917	83.000000
3286.719665	93.000000
3287.811855	100.333333
3288.908293	95.333333
3290.003109	97.000000
3291.097771	115.666667
3292.190811	88.666667
3293.283696	79.666667
3294.374962	102.000000
3295.467539	80.666667
3296.558497	72.333333
3297.647835	91.000000
3298.737020	71.666667
3299.827518	65.333333
3300.914931	90.000000
3302.002191	100.000000
3303.090764	76.000000
3304.179185	92.666667
3305.263058	73.333333
3306.351173	112.666667
3307.436206	74.333333
3308.519624	71.000000
3309.604354	91.000000
3310.687468	88.666667
3311.771895	69.666667
3312.853243	66.666667
3313.935903	84.333333
3315.016949	81.000000
3316.097844	69.000000
3317.177125	87.000000
3318.256256	90.666667
3319.336699	59.666667
3320.414067	52.333333
3321.492747	93.333333
3322.569815	100.666667
3323.646734	60.000000
3324.722041	88.666667
3325.797199	108.666667
3326.873668	124.333333
3327.947067	115.000000
3329.020317	96.333333
3330.094877	85.666667
3331.167829	68.000000
3332.239172	90.000000
3333.311826	76.000000
3334.381414	103.333333
3335.452312	77.666667
3336.521603	105.333333
3337.592205	54.666667
3338.661200	113.666667
3339.728589	86.000000
3340.794373	87.666667
3341.864383	71.333333
3342.931330	89.666667
3343.995215	110.333333
3345.061868	128.333333
3346.126916	71.333333
3347.190361	108.666667
3348.253660	97.000000
3349.316812	91.666667
3350.379818	73.333333
3351.442678	80.666667
3352.503936	112.000000
3353.562137	96.333333
3354.624558	82.000000
3355.683924	57.333333
3356.743144	59.333333
3357.803673	85.666667
3358.859694	86.000000
3359.918478	70.333333
3360.972755	69.000000
3362.029796	88.333333
3363.085238	93.666667
3364.141990	101.333333
3365.197143	78.666667
3366.250699	96.666667
3367.302659	121.000000
3368.357380	80.666667
3369.409052	74.000000
3370.460581	99.333333
3371.513418	85.666667
3372.563208	102.666667
3373.614307	107.000000
3374.662360	90.666667
3375.713172	62.000000
3376.760940	130.666667
3377.808565	101.000000
3378.856047	94.333333
3379.901937	58.666667
3380.949135	70.000000
3381.993291	87.666667
3383.040205	64.666667
3384.085527	109.000000
3385.127808	83.333333
3386.169949	111.666667
3387.213397	74.000000
3388.256704	130.000000
3389.298422	95.333333
3390.339998	92.000000
3391.381433	86.333333
3392.421280	67.666667
3393.459538	105.333333
3394.499104	97.333333
3395.538530	91.000000
3396.576368	81.333333
3397.612619	116.000000
3398.648731	79.666667
3399.686150	109.333333
3400.720536	66.000000
3401.756229	81.333333
3402.791783	85.000000
3403.824306	118.000000
3404.859582	67.666667
3405.891827	84.333333
3406.923934	92.666667
3407.954457	114.666667
3408.986287	82.666667
3410.017979	71.333333
3411.046643	103.000000
3412.075170	72.666667
3413.105003	109.000000
3414.134699	73.333333
3415.161369	62.666667
3416.189346	70.333333
3417.214298	104.000000
3418.242000	75.666667
3419.266679	70.333333
3420.292664	67.666667
3421.317069	83.000000
3422.341338	74.333333
3423.364028	79.000000
3424.386582	88.666667
3425.410442	70.666667
3426.431282	83.000000
3427.451986	81.333333
3428.473997	102.333333
3429.492989	73.666667
3430.511845	107.333333
3431.532008	94.000000
3432.549154	81.000000
