-165.748255	-11.800000
-163.078655	1.200000
-160.411990	-8.200000
-157.746077	1.000000
-155.083096	-8.600000
-152.418686	-0.400000
-149.757206	11.200000
-147.094296	39.000000
-144.436494	-0.200000
-141.777261	26.600000
-139.118777	-9.400000
-136.463218	10.200000
-133.806230	-2.600000
-131.154339	15.600000
-128.501019	-18.400000
-125.850619	0.200000
-123.198789	-4.600000
-120.552050	14.800000
-117.903881	13.000000
-115.256456	-4.200000
-112.611944	1.600000
-109.966004	19.800000
-107.325145	-3.600000
-104.682856	-4.400000
-102.043477	11.000000
-99.402669	19.200000
-96.762601	-12.200000
-94.127605	12.600000
-91.491180	7.800000
-88.857659	-1.600000
-86.222709	41.800000
-83.592824	13.000000
-80.959346	55.600000
-78.330932	48.000000
-75.703250	40.000000
-73.074141	42.200000
-70.450088	52.600000
-67.822446	97.200000
-65.199857	122.600000
-62.577999	186.000000
-59.956873	371.200000
-57.336476	852.000000
-54.718967	2932.800000
-52.100030	10394.400000
-49.483979	26620.600000
-46.868656	31608.000000
-44.254060	22357.600000
-41.642346	2520.800000
-39.029205	294.200000
-36.421097	134.000000
-33.809407	91.400000
-31.202748	79.000000
-28.594661	47.600000
-25.987298	54.400000
-23.384960	32.800000
-20.779044	32.200000
-18.178150	29.000000
-15.575827	23.400000
-12.978523	9.000000
-10.377643	-2.800000
-7.781777	10.800000
-5.184484	16.200000
-2.587910	11.600000
0.003655	37.800000
2.596648	18.000000
5.186780	8.800000
7.778340	17.400000
10.367040	-1.200000
12.957168	-3.200000
15.542296	48.200000
18.128852	-6.200000
20.714693	16.400000
23.297681	13.000000
25.882096	0.000000
28.459381	-19.200000
31.040233	11.400000
33.618236	22.600000
36.195529	-1.400000
38.774248	-19.000000
41.347986	7.000000
43.923150	-6.000000
46.495471	-3.400000
49.067085	12.600000
51.635858	0.000000
54.206058	-13.600000
56.773419	22.600000
59.342207	7.400000
61.908157	-3.600000
64.471273	-7.600000
67.037945	-4.400000
69.595396	10.000000
72.158532	18.800000
74.716709	51.000000
77.278439	38.800000
79.835214	58.800000
82.393414	105.800000
84.946662	170.800000
87.499211	245.200000
90.055312	349.800000
92.606464	463.000000
95.156918	518.400000
97.706676	588.800000
100.253614	619.000000
102.799856	668.000000
105.347525	658.400000
107.894497	685.600000
110.436533	665.800000
112.977876	627.600000
115.518527	604.200000
118.060602	614.800000
120.599867	601.400000
123.136322	625.000000
125.672087	616.000000
128.209277	605.200000
130.745775	613.400000
133.279468	577.600000
135.810358	571.200000
138.340559	556.800000
140.872185	598.000000
143.401010	568.400000
145.927036	585.200000
148.452377	600.200000
150.979142	584.400000
153.503111	581.400000
156.026394	548.800000
158.548993	576.400000
161.068799	595.600000
163.587922	591.800000
166.106362	584.600000
168.626226	618.000000
171.139089	618.600000
173.655483	638.200000
176.171195	676.600000
178.682018	669.200000
181.194265	692.000000
183.703729	698.600000
186.212515	681.200000
188.720623	702.000000
191.230154	718.000000
193.734806	724.600000
196.238781	737.200000
198.744180	700.000000
201.244704	715.200000
203.748751	696.600000
206.245828	702.000000
208.746427	736.200000
211.244255	749.800000
213.741410	724.400000
216.237892	754.200000
218.729512	769.800000
221.224650	748.200000
223.717023	732.800000
226.208725	763.200000
228.697664	748.400000
231.188026	773.400000
233.675627	803.000000
236.160468	800.600000
238.648823	834.000000
241.130239	816.800000
243.615169	854.400000
246.095254	909.000000
248.578851	905.000000
251.057605	932.800000
253.537783	957.600000
256.015209	1007.800000
258.491970	959.800000
260.968069	912.000000
263.441419	928.200000
265.914107	890.400000
268.386134	934.400000
270.857500	956.000000
273.326122	990.400000
275.794084	955.400000
278.263469	915.800000
280.728031	849.400000
283.196096	837.000000
285.659342	818.200000
288.121931	835.000000
290.583862	793.800000
293.045137	776.200000
295.503678	780.200000
297.963641	805.800000
300.420872	730.200000
302.877448	746.600000
305.333369	750.000000
307.786562	775.000000
310.241176	732.800000
312.690990	736.600000
315.144299	728.800000
317.592809	735.200000
320.040669	732.200000
322.489950	709.600000
324.934438	747.000000
327.380348	719.600000
329.825609	688.600000
332.268151	711.400000
334.710045	701.000000
337.151291	715.600000
339.589822	703.200000
342.029775	691.200000
344.467014	684.800000
346.901541	659.200000
349.339556	647.600000
351.772794	659.200000
354.207454	662.800000
356.637340	698.800000
359.070712	669.800000
361.499314	697.200000
363.927275	682.600000
366.356656	651.000000
368.781272	663.000000
371.207310	694.400000
373.632707	658.000000
376.057465	685.600000
378.477463	656.200000
380.898883	693.800000
383.317606	670.600000
385.737750	692.400000
388.155199	706.200000
390.574068	667.400000
392.990244	654.200000
395.401673	667.400000
397.816578	648.000000
400.228793	643.600000
402.640374	622.800000
405.051321	635.200000
407.459582	594.800000
409.867210	558.000000
412.274207	570.600000
414.680571	576.800000
417.084253	575.800000
419.487305	577.600000
421.889727	591.400000
424.291520	626.200000
426.690634	625.800000
429.091168	644.200000
431.491073	660.600000
433.886255	687.400000
436.284904	705.800000
438.678833	760.200000
441.072136	762.400000
443.464813	818.400000
445.856865	838.600000
448.250336	922.400000
450.639094	1003.800000
453.025186	1142.200000
455.412698	1351.400000
457.799586	1725.200000
460.183811	2427.200000
462.569455	3678.400000
464.952436	6387.800000
467.332757	12237.200000
469.714497	22484.200000
472.093578	31555.400000
474.474078	29009.400000
476.851920	17955.600000
479.227107	8852.200000
481.601676	5028.000000
483.977664	3373.600000
486.350998	2501.600000
488.725751	1955.200000
491.095817	1649.200000
493.465268	1395.000000
495.836138	1212.600000
498.202326	1066.400000
500.569933	953.600000
502.934894	883.000000
505.299242	845.600000
507.662978	789.400000
510.028131	735.000000
512.388611	673.000000
514.750510	639.000000
517.109769	608.200000
519.466389	620.400000
521.826455	600.600000
524.179829	582.800000
526.536648	512.200000
528.890831	500.200000
531.244407	464.000000
533.597374	488.600000
535.947710	472.400000
538.299462	459.400000
540.644538	466.800000
542.995078	452.400000
545.338945	451.000000
547.688272	478.600000
550.032952	453.600000
552.375007	442.200000
554.718479	443.200000
557.059327	462.000000
559.399574	452.200000
561.737200	471.600000
564.078261	494.200000
566.414685	453.600000
568.752525	429.200000
571.087747	490.600000
573.420354	427.200000
575.754378	447.000000
578.085787	436.600000
580.416598	422.800000
582.746811	394.400000
585.076426	373.200000
587.401419	394.600000
589.731853	400.600000
592.057665	409.800000
594.380871	368.800000
596.705492	380.400000
599.027509	365.400000
601.348931	394.400000
603.667750	364.400000
605.987985	381.400000
608.307627	363.600000
610.624668	380.400000
612.941118	425.600000
615.254969	362.600000
617.570235	382.600000
619.882905	380.000000
622.196990	376.800000
624.506475	392.400000
626.817376	380.200000
629.125684	384.800000
631.433404	376.400000
633.742539	380.200000
636.047081	360.600000
638.351037	325.000000
640.654406	365.400000
642.959190	333.800000
645.259388	331.400000
647.561001	318.200000
649.862028	316.400000
652.158473	275.200000
654.456334	282.400000
656.753611	306.000000
659.050305	279.200000
661.342423	301.200000
663.637952	299.000000
665.928908	285.000000
668.221278	293.800000
670.511072	287.200000
672.800287	274.200000
675.088921	286.200000
677.374984	299.000000
679.662460	298.400000
681.947366	289.600000
684.231693	277.200000
686.513452	278.200000
688.796626	283.000000
691.079221	284.400000
693.357262	292.400000
695.636716	290.400000
697.915595	282.400000
700.193898	285.000000
702.467652	269.800000
704.742820	280.600000
707.017414	282.800000
709.289449	269.200000
711.562896	290.400000
713.833786	283.800000
716.102120	259.400000
718.371868	293.800000
720.639060	303.000000
722.905682	313.600000
725.171735	297.200000
727.435236	309.400000
729.700149	287.000000
731.964493	338.600000
734.224308	321.800000
736.485536	299.400000
738.746196	320.600000
741.004309	336.800000
743.259878	286.600000
745.518838	306.600000
747.771299	353.600000
750.029127	311.800000
752.282435	305.400000
754.533204	351.000000
756.785385	300.200000
759.035028	350.600000
761.286082	342.600000
763.532625	343.800000
765.780581	343.000000
768.026001	344.200000
770.272833	344.000000
772.519104	329.400000
774.760871	320.600000
777.006020	314.000000
779.244697	324.600000
781.486757	331.400000
783.724318	309.600000
785.963290	324.000000
788.199736	298.800000
790.437594	302.600000
792.672926	298.000000
794.905734	304.400000
797.139954	298.400000
799.371652	326.000000
801.602795	276.800000
803.833383	300.200000
806.063417	280.800000
808.292896	295.600000
810.517894	286.000000
812.746267	308.400000
814.970161	286.000000
817.195465	317.200000
819.416294	303.000000
821.640495	288.400000
823.860223	300.800000
826.081362	287.200000
828.301950	316.000000
830.520028	294.400000
832.739517	293.200000
834.954539	312.200000
837.169013	287.800000
839.382940	308.200000
841.596319	298.800000
843.809152	286.000000
846.021437	310.600000
848.231221	315.600000
850.440459	283.200000
852.649151	321.800000
854.855345	331.600000
857.062948	303.600000
859.268054	320.200000
861.472616	318.400000
863.674682	309.200000
865.878158	336.800000
868.079141	311.400000
870.279581	338.800000
872.481430	330.000000
874.676887	382.600000
876.875704	379.600000
879.070083	451.600000
881.267818	488.800000
883.461119	561.400000
885.655827	685.400000
887.848050	808.200000
890.039735	921.400000
892.230882	1001.000000
894.419546	1032.800000
896.607673	1074.000000
898.793320	1015.200000
900.982319	1046.000000
903.166895	1026.400000
905.350936	998.800000
907.538327	1051.200000
909.717415	1024.800000
911.899852	1048.000000
914.081756	1058.600000
916.261186	1041.800000
918.438143	1067.200000
920.616508	1079.600000
922.796279	1074.000000
924.969702	1093.200000
927.146471	1098.800000
929.318834	1073.800000
931.492603	1091.800000
933.661969	1045.400000
935.834680	1067.000000
938.004924	1028.800000
940.174640	949.200000
942.343827	843.400000
944.508617	771.800000
946.676748	683.000000
948.840485	600.000000
951.005628	580.400000
953.168313	544.800000
955.330471	548.800000
957.490173	528.400000
959.649351	496.000000
961.809935	458.600000
963.968064	455.800000
966.125669	461.200000
968.282751	411.000000
970.439310	433.000000
972.591489	435.200000
974.745074	422.400000
976.898138	410.600000
979.048754	400.600000
981.200775	365.800000
983.348423	408.800000
985.499403	349.800000
987.646012	347.400000
989.792103	343.600000
991.937674	369.800000
994.084651	347.400000
996.225340	342.200000
998.369357	326.600000
1000.510934	324.200000
1002.651995	324.800000
1004.794460	321.200000
1006.930646	338.800000
1009.070158	337.800000
1011.205314	317.000000
1013.343795	322.000000
1015.477923	297.200000
1017.611536	297.600000
1019.746555	317.600000
1021.877224	347.400000
1024.009298	284.800000
1026.138943	311.000000
1028.268076	318.200000
1030.396697	322.600000
1032.524807	279.600000
1034.650492	291.200000
1036.775665	277.200000
1038.902243	273.600000
1041.024484	288.800000
1043.148128	267.800000
1045.267439	272.000000
1047.391978	279.600000
1049.510272	257.400000
1051.629971	271.400000
1053.747251	253.800000
1055.864025	272.200000
1057.980292	269.800000
1060.094144	238.000000
1062.209399	225.800000
1064.320332	266.200000
1066.434576	238.800000
1068.544500	258.200000
1070.655828	267.200000
1072.766652	251.800000
1074.873159	207.200000
1076.982975	213.800000
1079.088477	218.200000
1081.195382	242.600000
1083.296072	226.600000
1085.401974	246.800000
1087.503567	251.600000
1089.606563	203.800000
1091.709058	209.600000
1093.805347	205.200000
1095.906842	230.800000
1098.004035	226.200000
1100.100729	201.000000
1102.196926	220.400000
1104.292624	233.600000
1106.387825	190.200000
1108.480629	182.800000
1110.574835	211.200000
1112.662850	231.600000
1114.756063	221.600000
1116.843088	215.800000
1118.933413	203.800000
1121.019449	209.000000
1123.108783	196.600000
1125.191936	204.800000
1127.276492	199.400000
1129.362448	199.600000
1131.444123	203.800000
1133.527200	194.200000
1135.607891	194.800000
1137.688090	189.600000
1139.767798	206.800000
1141.847015	183.800000
1143.923850	189.800000
1145.998304	202.200000
1148.076050	218.000000
1150.149525	186.200000
1152.224401	206.800000
1154.295010	188.800000
1156.367021	178.000000
1158.436655	192.600000
1160.507690	177.600000
1162.578237	171.000000
1164.644523	169.400000
1166.712210	182.600000
1168.777525	194.800000
1170.844240	173.000000
1172.906699	178.800000
1174.972443	208.600000
1177.033934	182.200000
1179.096824	178.400000
1181.157347	188.400000
1183.217387	179.000000
1185.276943	177.400000
1187.334134	174.600000
1189.390844	159.400000
1191.445191	155.400000
1193.502818	187.000000
1195.558083	170.800000
1197.609107	164.600000
1199.661531	179.600000
1201.713476	157.400000
1203.763061	163.000000
1205.812169	198.800000
1207.860797	183.400000
1209.908947	192.800000
1211.956619	168.200000
1214.000060	179.000000
1216.046776	160.400000
1218.091140	165.400000
1220.135026	157.400000
1222.176562	179.200000
1224.215748	177.600000
1226.258206	163.000000
1228.296442	156.400000
1230.336077	172.600000
1232.375237	171.000000
1234.410179	174.800000
1236.446519	155.600000
1238.480514	155.600000
1240.515908	172.600000
1242.547088	171.200000
1244.579667	165.000000
1246.611773	159.800000
1248.641539	179.600000
1250.672703	187.600000
1252.699659	170.800000
1254.728013	175.000000
1256.752163	169.400000
1258.779577	159.200000
1260.802790	145.600000
1262.827399	170.400000
1264.849675	154.000000
1266.873348	163.200000
1268.894688	152.600000
1270.915560	152.000000
1272.935966	143.600000
1274.952177	162.200000
1276.969787	144.800000
1278.985068	157.600000
1281.003608	129.000000
1283.017958	158.600000
1285.029983	181.000000
1287.045265	181.200000
1289.056363	177.000000
1291.068856	159.200000
1293.077167	160.000000
1295.088734	155.000000
1297.094261	159.400000
1299.103044	165.800000
1301.107649	153.800000
1303.115508	173.600000
1305.122905	156.200000
1307.124271	168.200000
1309.127034	148.000000
1311.129336	158.000000
1313.131179	147.800000
1315.132563	166.800000
1317.131632	169.600000
1319.130243	170.800000
1321.128396	155.600000
1323.126091	176.000000
1325.119622	173.200000
1327.114550	138.600000
1329.109021	151.800000
1331.103035	158.200000
1333.094742	150.800000
1335.085993	152.200000
1337.074939	137.200000
1339.065280	143.600000
1341.055166	153.400000
1343.042749	154.600000
1345.029878	137.200000
1347.014705	149.000000
1349.000927	152.000000
1350.984848	136.400000
1352.968317	158.800000
1354.951334	167.400000
1356.932053	146.800000
1358.914166	158.400000
1360.893982	147.600000
1362.873348	164.200000
1364.848575	143.200000
1366.827040	137.600000
1368.803212	170.000000
1370.778934	153.400000
1372.754207	165.400000
1374.727189	155.000000
1376.699723	167.000000
1378.671810	133.600000
1380.643448	139.800000
1382.610959	161.600000
1384.583543	142.400000
1386.548321	156.600000
1388.518172	151.600000
1390.483898	161.600000
1392.451018	152.600000
1394.415853	140.400000
1396.376570	148.200000
1398.342354	155.000000
1400.302183	147.200000
1402.263405	176.800000
1404.226020	150.200000
1406.184520	162.600000
1408.142578	148.000000
1410.100193	172.800000
1412.057367	180.200000
1414.012265	169.000000
1415.968555	147.800000
1417.922571	149.800000
1419.876147	174.800000
1421.827450	158.600000
1423.780145	145.600000
1425.730569	155.400000
1427.680554	156.400000
1429.630099	175.600000
1431.577376	167.600000
1433.522386	192.400000
1435.468788	148.000000
1437.414752	138.000000
1439.360278	155.400000
1441.303540	173.200000
1443.246365	142.800000
1445.186927	165.000000
1447.128880	132.800000
1449.068572	143.400000
1451.007828	156.800000
1452.946650	167.400000
1454.883211	160.400000
1456.821164	170.200000
1458.756859	148.200000
1460.692120	156.000000
1462.625124	150.600000
1464.557696	155.600000
1466.489836	162.200000
1468.421544	166.200000
1470.350998	152.600000
1472.281843	146.400000
1474.212257	154.200000
1476.138598	176.400000
1478.066329	156.400000
1479.991810	168.800000
1481.916862	135.000000
1483.841485	152.400000
1485.765679	143.600000
1487.687626	180.000000
1489.610962	169.200000
1491.532053	179.400000
1493.450899	125.400000
1495.371135	159.400000
1497.289127	193.000000
1499.206693	161.000000
1501.122017	157.200000
1503.038731	185.600000
1504.951390	171.200000
1506.867253	189.000000
1508.780876	166.600000
1510.692262	168.400000
1512.605036	176.200000
1514.513761	151.400000
1516.423876	158.400000
1518.333567	149.800000
1520.242834	142.800000
1522.149868	154.200000
1524.054669	156.200000
1525.960859	145.200000
1527.864817	150.000000
1529.768355	169.000000
1531.671471	149.600000
1533.572359	177.400000
1535.474634	149.800000
1537.374682	147.800000
1539.276118	159.600000
1541.173519	148.800000
1543.070502	181.400000
1544.967067	148.200000
1546.865020	155.800000
1548.757138	136.200000
1550.652449	148.600000
1552.547343	156.800000
1554.440015	168.800000
1556.332271	164.400000
1558.222307	137.600000
1560.111927	153.600000
1562.001132	146.200000
1563.889921	142.600000
1565.776494	140.400000
1567.664453	176.400000
1569.548396	142.200000
1571.433727	166.800000
1573.318643	143.600000
1575.201347	146.600000
1577.085436	151.600000
1578.965515	144.600000
1580.846980	161.800000
1582.726235	155.400000
1584.606876	136.000000
1586.481713	149.800000
1588.361532	141.000000
1590.237345	134.400000
1592.112749	147.600000
1593.989538	167.400000
1595.860530	177.400000
1597.734704	147.400000
1599.604880	159.200000
1601.478236	136.400000
1603.349389	158.200000
1605.218340	157.000000
1607.088677	157.600000
1608.955020	144.600000
1610.822749	157.600000
1612.688280	134.000000
1614.555195	149.600000
1616.418122	139.600000
1618.282434	147.200000
1620.144550	181.000000
1622.006262	148.000000
1623.869358	153.400000
1625.730260	139.000000
1627.588968	153.600000
1629.447273	137.200000
1631.306963	145.600000
1633.160886	155.000000
1635.017981	133.200000
1636.874674	141.000000
1638.727391	146.200000
1640.583279	121.000000
1642.435192	178.200000
1644.286705	139.600000
1646.137818	155.800000
1647.988529	124.000000
1649.838840	147.600000
1651.686967	150.200000
1653.536477	129.200000
1655.380239	153.400000
1657.228951	158.800000
1659.071916	152.800000
1660.918047	161.400000
1662.760217	142.000000
1664.605551	177.800000
1666.445145	134.800000
1668.286123	144.400000
1670.128484	166.600000
1671.966889	157.800000
1673.806677	146.200000
1675.644290	152.000000
1677.481507	141.000000
1679.316551	130.800000
1681.152978	146.200000
1682.987233	140.800000
1684.821093	155.800000
1686.654560	152.000000
1688.484080	167.800000
1690.316759	161.200000
1692.145494	160.000000
1693.977387	141.200000
1695.805337	137.800000
1697.632895	121.000000
1699.460061	166.000000
1701.286836	142.000000
1703.113220	126.800000
1704.935667	127.800000
1706.761268	140.600000
1708.582935	150.400000
1710.405984	122.000000
1712.226872	141.400000
1714.047370	138.600000
1715.869250	145.000000
1717.685430	146.400000
1719.504762	136.600000
1721.320167	146.600000
1723.138722	162.200000
1724.953353	138.200000
1726.767596	186.200000
1728.581452	164.600000
1730.394922	120.200000
1732.206239	134.400000
1734.018937	167.400000
1735.831248	155.800000
1737.639642	154.600000
1739.449417	136.000000
1741.255276	141.000000
1743.064282	168.600000
1744.869374	126.600000
1746.675846	145.800000
1748.481935	124.000000
1750.284114	140.200000
1752.089436	152.400000
1753.890850	137.800000
1755.693644	130.600000
1757.492532	137.000000
1759.292801	166.800000
1761.092688	134.000000
1762.890434	151.800000
1764.687799	151.600000
1766.484783	126.000000
1768.281387	154.400000
1770.075852	140.400000
1771.871696	140.200000
1773.661886	136.000000
1775.456972	141.200000
1777.246405	130.600000
1779.038975	149.000000
1780.829410	130.400000
1782.617711	142.400000
1784.409147	153.000000
1786.194937	115.200000
1787.982107	117.000000
1789.767145	140.400000
1791.555317	128.600000
1793.339603	127.400000
1795.121760	144.000000
1796.905295	148.600000
1798.686702	132.600000
1800.469488	139.800000
1802.248394	139.200000
1804.028678	138.800000
1805.806836	128.000000
1807.586373	141.800000
1809.363785	121.600000
1811.139073	135.800000
1812.915740	149.600000
1814.690284	144.400000
1816.466205	159.600000
1818.236507	145.800000
1820.009936	149.600000
1821.781245	137.000000
1823.552183	118.800000
1825.324498	146.400000
1827.091201	155.800000
1828.861028	147.000000
1830.626992	137.400000
1832.396080	130.400000
1834.161306	140.000000
1835.926164	166.400000
1837.692398	150.400000
1839.454774	140.600000
1841.216783	125.400000
1842.978425	123.800000
1844.739699	155.000000
1846.500606	97.800000
1848.261147	151.200000
1850.019578	137.400000
1851.777644	147.800000
1853.533601	130.000000
1855.290936	125.000000
1857.047904	133.800000
1858.802767	193.200000
1860.555524	153.800000
1862.307918	118.200000
1864.061687	143.600000
1865.813353	134.400000
1867.562917	149.800000
1869.313857	135.000000
1871.064433	131.400000
1872.811171	142.200000
1874.559284	129.800000
1876.305298	170.800000
1878.052688	133.000000
1879.797979	134.600000
1881.541173	123.800000
1883.285743	164.400000
1885.028216	131.600000
1886.770329	172.200000
1888.512082	134.800000
1890.253476	124.400000
1891.992776	136.800000
1893.731717	134.000000
1895.470299	128.000000
1897.206789	150.000000
1898.942922	157.000000
1900.680429	164.000000
1902.414115	130.000000
1904.149174	121.400000
1905.882146	134.400000
1907.614761	124.200000
1909.347019	132.200000
1911.078921	135.600000
1912.808737	112.000000
1914.536469	115.400000
1916.265574	153.600000
1917.994325	134.800000
1919.720992	130.200000
1921.447305	141.400000
1923.174991	141.000000
1924.897141	150.000000
1926.622392	128.800000
1928.343837	123.200000
1930.068381	131.800000
1931.790846	133.200000
1933.509507	135.600000
1935.231267	159.600000
1936.949225	136.000000
1938.668557	131.200000
1940.384088	117.200000
1942.104441	159.000000
1943.820994	134.400000
1945.533752	126.600000
1947.249605	104.800000
1948.963385	146.800000
1950.676816	128.200000
1952.388176	136.400000
1954.100909	124.000000
1955.809850	154.400000
1957.521885	146.800000
1959.228410	145.800000
1960.938028	125.400000
1962.645578	143.400000
1964.352781	136.200000
1966.057918	139.400000
1967.762708	130.200000
1969.468870	188.800000
1971.171250	139.600000
1972.875002	146.600000
1974.576690	139.600000
1976.278034	126.400000
1977.979032	121.600000
1979.677970	104.200000
1981.378278	122.400000
1983.074812	168.600000
1984.772717	141.400000
1986.468564	154.000000
1988.167495	126.400000
1989.860941	144.800000
1991.555759	136.800000
1993.250233	125.000000
1994.940939	138.400000
1996.634729	149.400000
1998.324752	139.800000
2000.016146	129.000000
2001.705487	129.600000
2003.396198	141.600000
2005.083147	130.000000
2006.769755	117.400000
2008.457734	147.400000
2010.141953	135.600000
2011.827542	133.200000
2013.512792	128.000000
2015.195994	133.800000
2016.880565	139.800000
2018.559674	127.600000
2020.243568	125.400000
2021.922002	127.600000
2023.603512	135.600000
2025.281272	131.800000
2026.958694	125.000000
2028.637487	121.200000
2030.314236	145.400000
2031.988944	153.600000
2033.665021	107.000000
2035.339058	142.800000
2037.012759	125.400000
2038.686125	147.800000
2040.357453	123.400000
2042.028446	135.400000
2043.699105	136.200000
2045.369430	114.600000
2047.039420	132.800000
2048.707375	120.600000
2050.374997	150.200000
2052.040585	138.200000
2053.707541	149.400000
2055.372464	141.200000
2057.037054	158.000000
2058.699613	138.200000
2060.363540	126.000000
2062.025437	146.800000
2063.687002	152.200000
2065.348237	165.200000
2067.007442	125.200000
2068.666318	140.600000
2070.324863	173.400000
2071.983079	146.600000
2073.637571	159.800000
2075.295128	135.200000
2076.952356	133.800000
2078.605863	147.600000
2080.260737	149.200000
2081.911892	146.400000
2083.566109	126.600000
2085.216610	123.600000
2086.868477	188.800000
2088.514936	139.000000
2090.166150	132.000000
2091.813650	127.000000
2093.462517	127.400000
2095.109366	145.600000
2096.755888	142.800000
2098.402085	128.400000
2100.044574	142.400000
2101.690121	158.800000
2103.331961	130.400000
2104.976858	125.600000
2106.618050	121.000000
2108.258918	127.000000
2109.899463	149.600000
2111.537995	124.200000
2113.177893	139.600000
2114.814091	155.000000
2116.451655	139.600000
2118.088896	135.000000
2119.724128	134.200000
2121.359039	136.800000
2122.993628	138.000000
2124.627895	145.600000
2126.258470	157.600000
2127.892095	129.400000
2129.522029	139.600000
2131.153328	134.400000
2132.782623	146.200000
2134.411597	141.000000
2136.040253	142.400000
2137.668589	143.600000
2139.294922	137.600000
2140.920937	115.200000
2142.544951	161.400000
2144.170329	131.400000
2145.793708	116.000000
2147.418450	132.000000
2149.039512	133.800000
2150.660257	130.200000
2152.282367	133.000000
2153.902479	127.800000
2155.520595	142.400000
2157.138395	144.800000
2158.755879	131.400000
2160.373048	127.800000
2161.989902	131.200000
2163.606441	125.400000
2165.220986	140.800000
2166.833539	132.800000
2168.447457	122.400000
2170.059382	115.400000
2171.672671	155.200000
2173.283970	150.200000
2174.893279	154.200000
2176.503952	128.800000
2178.112636	141.400000
2179.721008	127.400000
2181.327392	140.800000
2182.935140	118.200000
2184.540901	158.800000
2186.146351	135.800000
2187.749817	124.600000
2189.354645	159.200000
2190.957489	131.400000
2192.558350	127.400000
2194.160574	124.400000
2195.760815	105.400000
2197.362419	148.000000
2198.960371	129.600000
2200.559685	152.200000
2202.157019	128.000000
2203.754045	149.800000
2205.352432	118.200000
2206.947171	146.800000
2208.539934	146.600000
2210.134058	167.600000
2211.729544	155.600000
2213.321386	120.000000
2214.912921	122.400000
2216.505817	137.200000
2218.093404	128.800000
2219.685688	126.600000
2221.272664	104.200000
2222.862669	132.400000
2224.447369	126.000000
2226.036763	136.000000
2227.620854	155.600000
2229.206307	120.800000
2230.789791	136.400000
2232.376300	125.800000
2233.959176	146.400000
2235.541748	106.400000
2237.124017	122.800000
2238.702657	129.000000
2240.284320	122.800000
2241.862355	137.600000
2243.443414	140.800000
2245.020845	124.600000
2246.596313	108.400000
2248.174802	136.600000
2249.749668	127.200000
2251.324233	109.200000
2252.898498	124.800000
2254.472462	146.600000
2256.046126	127.400000
2257.619489	132.800000
2259.189234	113.000000
2260.758680	118.200000
2262.331145	130.400000
2263.898334	136.800000
2265.468542	126.000000
2267.035135	165.400000
2268.603088	115.200000
2270.169086	139.200000
2271.734785	121.800000
2273.300188	126.200000
2274.863637	146.000000
2276.428444	147.200000
2277.989644	165.800000
2279.553858	175.000000
2281.112811	216.000000
2282.674777	193.800000
2284.234793	163.000000
2285.794513	127.200000
2287.352284	160.600000
2288.909761	138.200000
2290.466942	127.400000
2292.022177	127.600000
2293.577117	160.800000
2295.131764	134.000000
2296.686117	136.800000
2298.240176	172.200000
2299.793942	125.800000
2301.345763	112.200000
2302.895641	119.600000
2304.448527	145.600000
2305.996171	145.200000
2307.546822	118.600000
2309.093883	124.000000
2310.642301	134.600000
2312.190427	121.600000
2313.734966	131.800000
2315.280862	126.400000
2316.824819	134.400000
2318.370134	125.600000
2319.911864	126.400000
2321.454952	126.000000
2322.996103	127.600000
2324.536965	113.800000
2326.077538	142.200000
2327.617822	116.600000
2329.157817	132.600000
2330.694233	116.800000
2332.233651	117.400000
2333.769492	156.600000
2335.306689	123.800000
2336.840312	127.400000
2338.376934	125.800000
2339.911625	127.000000
2341.444387	127.800000
2342.976863	136.000000
2344.507410	130.200000
2346.040955	103.000000
2347.569289	129.000000
2349.098979	165.000000
2350.628384	135.200000
2352.157503	127.800000
2353.686338	120.000000
2355.209968	135.200000
2356.738233	115.200000
2358.261295	151.400000
2359.788991	139.000000
2361.309848	150.600000
2362.835338	115.600000
2364.357267	136.600000
2365.880552	127.600000
2367.401916	113.600000
2368.921360	142.200000
2370.442159	106.400000
2371.961039	124.400000
2373.479637	124.000000
2374.996318	140.000000
2376.514354	136.200000
2378.032107	140.400000
2379.546310	118.400000
2381.060232	160.200000
2382.573875	143.600000
2384.088871	119.800000
2385.600319	106.800000
2387.113122	119.800000
2388.624012	115.600000
2390.134622	139.800000
2391.643321	127.800000
2393.155007	129.000000
2394.663149	113.000000
2396.171012	125.800000
2397.678598	115.200000
2399.182643	131.400000
2400.689674	111.200000
2402.194796	122.800000
2403.699641	117.600000
2405.202579	138.800000
2406.705240	111.000000
2408.207625	137.200000
2409.708105	98.600000
2411.209938	109.600000
2412.709867	116.800000
2414.209520	127.200000
2415.708898	131.600000
2417.206372	171.000000
2418.701946	142.200000
2420.200499	106.600000
2421.695523	120.200000
2423.191901	139.400000
2424.684752	137.600000
2426.178955	120.600000
2427.672885	115.200000
2429.163292	133.600000
2430.656675	143.000000
2432.148161	122.800000
2433.637750	137.000000
2435.127067	93.600000
2436.614489	139.400000
2438.104886	108.400000
2439.591764	118.600000
2441.079994	123.600000
2442.564708	141.400000
2444.049151	135.000000
2445.534946	106.800000
2447.018848	132.600000
2448.504102	136.800000
2449.984222	113.400000
2451.467314	115.000000
2452.948516	95.000000
2454.429449	121.600000
2455.908493	113.200000
2457.387269	114.200000
2458.865776	115.200000
2460.344014	93.800000
2461.821984	124.000000
2463.296450	109.200000
2464.773884	100.800000
2466.247815	107.800000
2467.723097	131.800000
2469.198111	114.200000
2470.669624	121.800000
2472.142488	113.800000
2473.613468	112.600000
2475.085799	130.600000
2476.553017	112.400000
2478.023200	105.600000
2479.491503	133.200000
2480.959541	121.000000
2482.427314	123.800000
2483.894822	120.800000
2485.362065	109.800000
2486.825816	115.400000
2488.290918	117.000000
2489.754141	96.800000
2491.218715	110.400000
2492.679799	118.200000
2494.142233	106.200000
2495.604404	126.400000
2497.063089	91.000000
2498.526346	117.400000
2499.984506	92.600000
2501.444015	91.000000
2502.898431	134.800000
2504.357416	136.400000
2505.814530	109.600000
2507.269773	129.200000
2508.724755	154.600000
2510.177867	112.600000
2511.632328	133.000000
2513.084920	116.600000
2514.537252	109.400000
2515.987716	110.000000
2517.441136	122.000000
2518.889474	101.200000
2520.340768	111.800000
2521.790195	99.400000
2523.236151	127.400000
2524.685061	108.400000
2526.130500	110.600000
2527.577288	120.800000
2529.022212	104.800000
2530.466879	100.400000
2531.912893	102.600000
2533.355440	96.000000
2534.799335	129.400000
2536.239765	109.000000
2537.681543	107.400000
2539.121460	112.400000
2540.562725	100.200000
2542.000529	119.400000
2543.441282	105.400000
2544.876972	122.800000
2546.315612	105.600000
2547.752395	100.200000
2549.187321	117.400000
2550.625196	127.800000
2552.058013	115.000000
2553.492176	111.800000
2554.924486	121.000000
2556.358142	96.600000
2557.789945	104.400000
2559.221495	85.000000
2560.652791	98.800000
2562.082236	113.000000
2563.511428	129.800000
2564.938769	96.800000
2566.367457	91.400000
2567.795892	98.800000
2569.220881	91.800000
2570.647215	103.000000
2572.071701	113.200000
2573.497533	95.600000
2574.919921	115.000000
2576.343655	104.600000
2577.765543	99.400000
2579.187180	115.600000
2580.606972	109.400000
2582.028110	111.400000
2583.448998	84.000000
2584.866448	92.800000
2586.286837	107.200000
2587.703789	92.800000
2589.120493	97.000000
2590.536948	124.400000
2591.953155	125.800000
2593.369113	107.800000
2594.783231	122.800000
2596.197102	88.800000
2597.609133	93.600000
2599.022509	104.200000
2600.432455	141.000000
2601.845337	118.400000
2603.254790	112.800000
2604.663997	99.800000
2606.071368	107.600000
2607.481673	97.800000
2608.890142	99.000000
2610.296776	110.200000
2611.703165	92.400000
2613.107720	90.000000
2614.513619	116.400000
2615.917685	124.600000
2617.321507	110.600000
2618.725084	116.800000
2620.126829	111.800000
2621.529918	131.200000
2622.929590	108.200000
2624.330604	122.400000
2625.728203	123.600000
2627.128732	111.400000
2628.525846	119.400000
2629.924303	107.000000
2631.320932	103.400000
2632.717319	104.000000
2634.113465	101.000000
2635.507784	115.600000
2636.903446	132.000000
2638.295698	110.600000
2639.689294	97.200000
2641.081065	98.600000
2642.474178	93.000000
2643.865468	108.200000
2645.254935	95.000000
2646.644163	97.000000
2648.033150	108.200000
2649.423480	104.800000
2650.808825	106.000000
2652.197094	112.600000
2653.583543	99.800000
2654.969754	113.000000
2656.355725	95.200000
2657.738298	100.800000
2659.122212	84.600000
2660.505889	89.000000
2661.889328	128.400000
2663.269371	76.600000
2664.650756	96.800000
2666.030325	117.800000
2667.411236	98.000000
2668.790332	102.400000
2670.167613	124.400000
2671.546236	110.200000
2672.923046	88.800000
2674.299620	106.600000
2675.675958	88.000000
2677.050484	88.800000
2678.426351	139.600000
2679.798831	109.800000
2681.174228	106.200000
2682.544663	95.600000
2683.916440	94.200000
2685.287983	87.800000
2686.657717	89.800000
2688.028791	91.000000
2689.398058	94.000000
2690.767091	98.600000
2692.134317	110.400000
2693.501311	111.600000
2694.868072	77.400000
2696.234600	85.400000
2697.599323	98.600000
2698.963815	110.000000
2700.328074	114.600000
2701.692102	101.400000
2703.055897	103.200000
2704.416319	117.800000
2705.779652	101.400000
2707.138042	96.800000
2708.499342	119.800000
2709.857271	102.600000
2711.218110	109.800000
2712.577148	95.600000
2713.932818	113.600000
2715.291396	88.000000
2716.646608	89.000000
2718.001590	84.000000
2719.354775	94.200000
2720.710867	124.800000
2722.063595	176.200000
2723.416094	99.600000
2724.768365	92.800000
2726.121975	89.400000
2727.472223	86.600000
2728.820678	94.200000
2730.172037	98.000000
2731.520037	91.200000
2732.869376	109.200000
2734.216922	107.600000
2735.564241	86.400000
2736.911334	106.800000
2738.256636	86.000000
2739.601712	75.200000
2740.946562	104.200000
2742.291185	85.400000
2743.632457	82.600000
2744.975067	104.200000
2746.317452	117.400000
2747.659611	107.200000
2748.998421	70.200000
2750.340130	96.200000
2751.678492	104.600000
2753.018191	101.800000
2754.356104	100.400000
2755.692233	107.600000
2757.028139	85.800000
2758.365381	93.400000
2759.700840	97.800000
2761.036076	109.000000
2762.369530	127.000000
2763.704320	103.200000
2765.035769	100.800000
2766.370114	107.200000
2767.699561	88.800000
2769.030345	116.000000
2770.360907	88.200000
2771.689690	84.600000
2773.019810	111.800000
2774.348150	90.000000
2775.676270	98.800000
2777.002613	125.800000
2778.330291	89.600000
2779.654637	110.800000
2780.980318	104.200000
2782.304224	117.200000
2783.627911	109.800000
2784.952933	119.000000
2786.274626	92.800000
2787.596099	109.800000
2788.917354	103.800000
2790.238390	96.800000
2791.557654	107.600000
2792.878253	101.000000
2794.197080	97.000000
2795.515689	88.600000
2796.832528	116.000000
2798.149149	98.800000
2799.465552	97.000000
2800.780187	88.600000
2802.096156	101.800000
2803.408805	87.800000
2804.722790	95.400000
2806.036558	122.800000
2807.350109	90.800000
2808.661893	96.000000
2809.971912	96.800000
2811.283264	116.000000
2812.591302	93.400000
2813.900675	102.000000
2815.209832	90.400000
2816.518774	92.400000
2817.825953	98.000000
2819.131368	90.800000
2820.438118	107.000000
2821.743105	80.800000
2823.047879	103.000000
2824.350891	109.000000
2825.656785	102.200000
2826.957823	122.200000
2828.260196	85.600000
2829.560809	92.200000
2830.862756	103.000000
2832.164490	90.800000
2833.462920	98.800000
2834.762683	115.800000
2836.060688	90.200000
2837.358482	97.800000
2838.654520	123.600000
2839.951891	103.200000
2841.247506	76.600000
2842.542910	103.600000
2843.838104	102.400000
2845.129999	103.000000
2846.424771	95.600000
2847.716246	98.000000
2849.009055	74.600000
2850.301652	114.800000
2851.590956	78.200000
2852.881592	92.000000
2854.170477	75.000000
2855.460695	93.200000
2856.747621	114.600000
2858.035879	106.400000
2859.322387	95.600000
2860.608688	90.800000
2861.894780	93.400000
2863.179124	88.000000
2864.466340	92.200000
2865.748729	99.800000
2867.032449	91.400000
2868.314424	129.800000
2869.596192	112.400000
2870.876214	104.400000
2872.159106	100.400000
2873.440253	98.000000
2874.718118	89.600000
2875.998852	106.400000
2877.276305	104.800000
2878.553553	83.600000
2879.829058	88.200000
2881.107431	102.600000
2882.380989	107.000000
2883.657415	107.400000
2884.932100	102.600000
2886.205045	94.600000
2887.479320	98.000000
2888.751856	80.200000
2890.024188	100.600000
2891.293247	100.000000
2892.565170	75.400000
2893.835356	79.600000
2895.105339	62.200000
2896.375118	85.600000
2897.643160	87.800000
2898.909467	69.400000
2900.175571	97.000000
2901.443005	76.800000
2902.708705	100.000000
2903.974202	85.600000
2905.239497	101.600000
2906.501527	78.400000
2907.764888	75.400000
2909.028047	83.800000
2910.289473	81.400000
2911.552229	96.800000
2912.813254	90.000000
2914.072548	96.400000
2915.331641	106.600000
2916.590534	84.800000
2917.849227	80.800000
2919.107720	81.600000
2920.364484	90.000000
2921.621048	83.800000
2922.875885	104.600000
2924.132051	81.800000
2925.384961	124.200000
2926.639201	83.200000
2927.893242	88.600000
2929.145557	91.800000
2930.397674	73.400000
2931.648066	87.400000
2932.901313	138.800000
2934.149783	97.200000
2935.401107	87.800000
2936.649183	75.400000
2937.897061	85.800000
2939.144742	67.000000
2940.392227	91.800000
2941.637990	99.800000
2942.883556	80.600000
2944.130451	79.600000
2945.374100	96.000000
2946.619078	73.000000
2947.860813	90.000000
2949.105399	71.400000
2950.348265	92.600000
2951.587891	49.800000
2952.830368	80.800000
2954.069604	71.000000
2955.310168	64.800000
2956.549015	110.400000
2957.787668	88.600000
2959.024605	70.400000
2960.262869	81.800000
2961.499419	83.400000
2962.735774	86.800000
2963.971937	74.600000
2965.206385	67.000000
2966.440640	106.000000
2967.674702	89.600000
2968.907052	76.400000
2970.137690	73.600000
2971.371174	83.800000
2972.602946	84.600000
2973.833008	59.600000
2975.062878	84.000000
2976.291038	85.000000
2977.520524	100.400000
2978.748302	88.200000
2979.975888	91.800000
2981.204800	79.600000
2982.428970	97.000000
2983.655983	115.200000
2984.879773	91.600000
2986.104888	81.200000
2987.328297	90.600000
2988.551517	91.600000
2989.773031	75.600000
2990.997386	84.400000
2992.217006	65.600000
2993.437951	73.200000
2994.658708	86.600000
2995.877761	98.200000
2997.098140	105.200000
2998.315302	82.200000
2999.533789	90.200000
3000.750575	88.000000
3001.967172	86.200000
3003.183582	44.800000
3004.396778	93.600000
3005.612812	84.600000
3006.825634	65.600000
3008.041293	72.400000
3009.252229	83.200000
3010.464490	87.800000
3011.676565	83.600000
3012.888453	95.400000
3014.098643	70.600000
3015.308648	60.400000
3016.518466	73.600000
3017.726588	70.600000
3018.934524	71.200000
3020.140766	72.000000
3021.348331	77.800000
3022.554203	77.300000
3023.759889	76.800000
3024.965390	84.400000
3026.169199	78.000000
3027.374331	65.200000
3028.577770	66.800000
3029.779517	71.000000
3030.981081	59.600000
3032.182461	70.400000
3033.383657	59.200000
3034.583163	76.000000
3035.782485	68.200000
3036.983131	83.000000
3038.182088	77.200000
3039.377849	87.000000
3040.576440	66.800000
3041.771837	93.600000
3042.968557	75.400000
3044.162085	64.000000
3045.358442	80.000000
3046.553111	66.000000
3047.744590	78.400000
3048.940400	67.000000
3050.131517	77.200000
3051.323956	91.400000
3052.513208	89.000000
3053.705286	80.400000
3054.895680	84.400000
3056.082887	68.600000
3057.271418	68.400000
3058.461271	58.000000
3059.647939	61.800000
3060.834428	89.200000
3062.020737	68.200000
3063.208369	78.200000
3064.392818	79.200000
3065.575587	57.200000
3066.761180	111.000000
3067.945092	78.800000
3069.127326	63.600000
3070.309382	68.000000
3071.491259	66.800000
3072.672958	97.400000
3073.852979	79.200000
3075.031324	78.600000
3076.212490	82.000000
3077.390480	69.800000
3078.568293	74.000000
3079.745929	75.200000
3080.921890	72.600000
3082.097675	68.400000
3083.274780	96.400000
3084.450212	52.000000
3085.623969	81.600000
3086.796055	65.600000
3087.969461	61.400000
3089.142692	64.400000
3090.314250	72.400000
3091.487130	91.000000
3092.656842	94.000000
3093.827875	73.200000
3094.997237	75.200000
3096.164930	59.400000
3097.335438	93.200000
3098.501287	73.800000
3099.671446	60.400000
3100.836947	76.200000
3102.002275	63.400000
3103.167429	68.200000
3104.332409	75.800000
3105.498710	73.600000
3106.660357	72.000000
3107.823325	85.600000
3108.986119	79.600000
3110.148741	63.000000
3111.309698	68.800000
3112.470482	68.800000
3113.631094	61.800000
3114.790043	64.800000
3115.948819	47.200000
3117.107424	93.600000
3118.265857	69.600000
3119.424118	55.600000
3120.580717	67.000000
3121.735655	80.200000
3122.891912	56.000000
3124.046509	71.800000
3125.200934	81.000000
3126.353700	63.400000
3127.506296	86.400000
3128.658721	76.600000
3129.810977	72.400000
3130.963063	77.000000
3132.112002	99.400000
3133.263748	63.800000
3134.413837	91.600000
3135.562268	63.800000
3136.710531	76.800000
3137.858625	56.400000
3139.006549	49.600000
3140.152819	78.800000
3141.298920	76.800000
3142.443366	77.400000
3143.587645	60.400000
3144.731756	67.200000
3145.877185	46.200000
3147.019475	64.200000
3148.161597	63.600000
3149.303553	77.600000
3150.445341	74.400000
3151.586962	58.200000
3152.725447	53.000000
3153.865250	56.800000
3155.006371	69.000000
3156.144357	85.000000
3157.280694	84.800000
3158.416865	80.200000
3159.554354	83.400000
3160.690194	69.600000
3161.827350	99.000000
3162.959894	66.400000
3164.096720	54.600000
3165.228934	74.800000
3166.362466	68.800000
3167.495832	71.000000
3168.626071	76.800000
3169.759108	88.400000
3170.889019	95.200000
3172.020247	85.800000
3173.148349	94.800000
3174.279248	55.400000
3175.408504	59.000000
3176.536115	56.200000
3177.660605	82.200000
3178.789370	53.600000
3179.915013	61.200000
3181.040493	67.600000
3182.164332	60.800000
3183.290965	70.000000
3184.413001	68.000000
3185.536353	64.800000
3186.659543	86.800000
3187.782571	61.000000
3188.903959	55.400000
3190.025186	68.200000
3191.144774	45.600000
3192.264201	60.000000
3193.381990	44.000000
3194.502572	61.200000
3195.620039	87.000000
3196.737347	52.200000
3197.854493	99.200000
3198.970004	75.400000
3200.086830	70.400000
3201.200545	74.600000
3202.317051	72.800000
3203.431921	72.600000
3204.543683	91.400000
3205.655286	72.200000
3206.768203	64.800000
3207.880962	66.400000
3208.990614	55.200000
3210.101581	80.400000
3211.212389	70.800000
3212.321565	66.600000
3213.429110	82.600000
3214.537970	65.000000
3215.646671	70.200000
3216.752270	64.600000
3217.859184	87.800000
3218.964468	123.200000
3220.071066	69.400000
3221.174564	52.200000
3222.279376	70.000000
3223.384031	60.400000
3224.485587	91.800000
3225.586988	80.200000
3226.689702	89.400000
3227.792259	54.600000
3228.891721	68.000000
3229.993965	85.400000
3231.093115	80.200000
3232.190639	86.600000
3233.288008	64.600000
3234.388160	49.200000
3235.485218	60.000000
3236.582121	50.600000
3237.678870	59.400000
3238.771059	69.400000
3239.867498	65.200000
3240.962314	75.600000
3242.056975	63.200000
3243.150015	69.800000
3244.242901	48.400000
3245.334166	82.000000
3246.426744	42.800000
3247.517701	71.400000
3248.607040	64.800000
3249.696225	59.000000
3250.786722	45.800000
3251.874135	80.000000
3252.961396	54.600000
3254.049969	64.000000
3255.138389	40.800000
3256.222262	59.000000
3257.310377	37.200000
3258.395411	46.600000
3259.478829	83.000000
3260.563558	50.000000
3261.646673	45.800000
3262.731099	59.800000
3263.812447	53.800000
3264.895107	43.000000
3265.976153	42.600000
3267.057048	50.200000
3268.136330	55.600000
3269.215461	36.000000
3270.295903	63.400000
3271.373272	43.800000
3272.451952	58.400000
3273.529020	57.000000
3274.605938	62.000000
3275.681245	54.400000
3276.756403	46.400000
3277.832873	62.200000
3278.906271	55.200000
3279.979521	46.400000
3281.054082	53.600000
3282.127033	45.000000
3283.198377	40.000000
3284.271031	58.800000
3285.340618	46.800000
3286.411516	34.800000
3287.480807	66.200000
3288.551409	52.400000
3289.620404	52.800000
3290.687793	52.800000
3291.753577	64.600000
3292.823587	53.000000
3293.890534	53.200000
3294.954419	66.600000
3296.021072	46.800000
3297.086121	49.200000
3298.149566	96.200000
3299.212864	53.200000
3300.276017	60.200000
3301.339023	50.200000
3302.401882	46.800000
3303.463140	36.000000
3304.521341	45.800000
3305.583763	59.400000
3306.643128	66.800000
3307.702348	77.200000
3308.762878	52.200000
3309.818898	62.800000
3310.877683	61.000000
3311.931960	35.600000
3312.989000	43.600000
3314.044443	55.400000
3315.101194	42.200000
3316.156348	65.400000
3317.209904	41.600000
3318.261863	51.600000
3319.316584	47.400000
3320.368256	38.000000
3321.419785	51.600000
3322.472623	30.800000
3323.522413	50.200000
3324.573511	42.000000
3325.621564	45.200000
3326.672377	37.400000
3327.720144	34.800000
3328.767769	35.400000
3329.815252	36.400000
3330.861141	80.600000
3331.908339	38.400000
3332.952495	17.600000
3333.999409	50.200000
3335.044731	48.200000
3336.087013	48.400000
3337.129153	49.600000
3338.172602	43.400000
3339.215909	45.400000
3340.257626	48.200000
3341.299202	66.600000
3342.340638	51.200000
3343.380484	24.800000
3344.418743	46.800000
3345.458309	31.400000
3346.497734	61.800000
3347.535573	40.000000
3348.571824	56.000000
3349.607935	50.800000
3350.645354	67.600000
3351.679740	44.200000
3352.715433	52.200000
3353.750987	45.400000
3354.783510	49.800000
3355.818786	58.800000
3356.851031	32.000000
3357.883138	74.200000
3358.913661	54.400000
3359.945492	35.000000
3360.977183	52.800000
3362.005848	48.200000
3363.034374	35.800000
3364.064208	46.800000
3365.093903	61.800000
3366.120573	71.400000
3367.148550	55.800000
3368.173502	63.800000
3369.201204	42.200000
3370.225883	37.200000
3371.251868	63.400000
3372.276273	37.000000
3373.300542	45.200000
3374.323232	48.200000
3375.345786	47.800000
3376.369646	81.400000
3377.390486	48.400000
3378.411191	43.400000
3379.433201	37.400000
3380.452193	48.000000
3381.471050	32.400000
3382.491212	43.400000
3383.508358	37.400000
