-118.052978	-12.319048
-115.383377	-0.990476
-112.716712	3.923810
-110.050800	5.190476
-107.387819	8.114286
-104.723409	8.209524
-102.061929	9.609524
-99.399019	11.076190
-96.741217	10.095238
-94.081984	9.180952
-91.423500	5.942857
-88.767941	6.438095
-86.110953	12.057143
-83.459062	16.180952
-80.805742	18.838095
-78.155342	17.304762
-75.503512	13.047619
-72.856773	8.914286
-70.208604	15.323810
-67.561179	11.457143
-64.916667	16.066667
-62.270727	17.333333
-59.629868	21.552381
-56.987579	22.771429
-54.348200	27.009524
-51.707392	15.923810
-49.067323	19.571429
-46.432328	9.123810
-43.795903	17.095238
-41.162382	20.438095
-38.527432	31.609524
-35.897547	32.819048
-33.264069	34.723810
-30.635654	22.961905
-28.007973	27.933333
-25.378864	30.247619
-22.754811	37.742857
-20.127169	39.600000
-17.504580	42.152381
-14.882722	13.133333
-12.261595	19.780952
-9.641199	286.323810
-7.023690	1893.257143
-4.404753	5501.295238
-1.788702	10232.790476
0.826621	11462.085714
3.441217	9289.380952
6.052931	4870.457143
8.666072	751.438095
11.274180	-916.714286
13.885870	-23.619048
16.492529	31.657143
19.100616	26.571429
21.707979	18.895238
24.310317	26.447619
26.916233	23.171429
29.517128	18.171429
32.119450	13.495238
34.716754	11.076190
37.317634	8.380952
39.913500	17.533333
42.510793	32.733333
45.107367	37.942857
47.698932	34.295238
50.291925	27.638095
52.882057	25.638095
55.473617	14.228571
58.062317	17.866667
60.652445	14.609524
63.237573	12.095238
65.824129	11.133333
68.409970	20.238095
70.992958	19.533333
73.577373	17.295238
76.154658	16.438095
78.735510	13.647619
81.313513	12.171429
83.890806	8.857143
86.469525	11.114286
89.043263	7.190476
91.618427	11.457143
94.190748	6.733333
96.762362	8.657143
99.331135	7.800000
101.901335	13.742857
104.468696	16.961905
107.037484	23.104762
109.603434	20.447619
112.166550	28.990476
114.733223	36.447619
117.290673	47.819048
119.853809	66.980952
122.411986	99.028571
124.973716	134.761905
127.530491	210.647619
130.088691	308.590476
132.641939	465.123810
135.194488	673.000000
137.750589	938.714286
140.301741	1208.390476
142.852195	1497.247619
145.401953	1737.161905
147.948891	1939.485714
150.495133	2067.285714
153.042802	2161.590476
155.589774	2188.828571
158.131810	2187.438095
160.673153	2159.628571
163.213804	2156.495238
165.755879	2151.952381
168.295144	2160.666667
170.831599	2174.552381
173.367364	2154.790476
175.904554	2140.647619
178.441052	2142.514286
180.974745	2133.847619
183.505635	2134.133333
186.035836	2155.685714
188.567462	2160.085714
191.096287	2173.180952
193.622314	2189.333333
196.147654	2192.876190
198.674419	2197.514286
201.198388	2194.800000
203.721671	2186.914286
206.244270	2182.695238
208.764076	2174.838095
211.283199	2183.523810
213.801639	2200.409524
216.321503	2219.019048
218.834366	2240.514286
221.350760	2263.495238
223.866472	2291.942857
226.377295	2331.952381
228.889542	2373.285714
231.399006	2402.580952
233.907792	2413.952381
236.415900	2417.790476
238.925432	2437.171429
241.430083	2452.361905
243.934058	2451.904762
246.439457	2449.076190
248.939981	2441.104762
251.444028	2438.761905
253.941105	2447.009524
256.441704	2453.323810
258.939532	2463.838095
261.436687	2482.600000
263.933169	2487.838095
266.424789	2506.085714
268.919927	2538.466667
271.412300	2542.647619
273.904002	2560.180952
276.392941	2579.190476
278.883303	2571.619048
281.370904	2576.685714
283.855745	2604.200000
286.344100	2620.438095
288.825516	2653.038095
291.310447	2682.304762
293.790531	2720.009524
296.274128	2772.114286
298.752883	2840.676190
301.233060	2902.752381
303.710486	2915.476190
306.187248	2854.828571
308.663346	2796.152381
311.136696	2728.419048
313.609385	2700.857143
316.081411	2718.342857
318.552777	2733.400000
321.021399	2730.771429
323.489361	2733.152381
325.958746	2680.095238
328.423308	2632.504762
330.891373	2602.314286
333.354619	2580.200000
335.817208	2569.961905
338.279139	2599.457143
340.740414	2596.638095
343.198955	2597.123810
345.658918	2607.523810
348.116149	2598.990476
350.572725	2583.142857
353.028646	2573.523810
355.481839	2556.123810
357.936454	2535.885714
360.386267	2529.838095
362.839576	2521.238095
365.288086	2519.123810
367.735946	2522.057143
370.185227	2533.476190
372.629715	2525.047619
375.075625	2524.342857
377.520886	2529.314286
379.963428	2525.600000
382.405322	2538.923810
384.846568	2528.314286
387.285099	2496.628571
389.725052	2477.295238
392.162291	2478.428571
394.596818	2470.352381
397.034833	2486.828571
399.468071	2498.190476
401.902731	2492.476190
404.332617	2484.142857
406.765990	2491.133333
409.194591	2480.000000
411.622552	2491.704762
414.051933	2519.047619
416.476550	2523.638095
418.902587	2513.952381
421.327985	2493.447619
423.752742	2487.504762
426.172740	2498.523810
428.594160	2513.285714
431.012883	2536.171429
433.433027	2538.638095
435.850476	2527.295238
438.269345	2525.142857
440.685521	2519.685714
443.096950	2502.780952
445.511855	2498.619048
447.924070	2486.895238
450.335651	2486.819048
452.746598	2469.352381
455.154859	2451.809524
457.562488	2436.085714
459.969484	2426.571429
462.375848	2429.495238
464.779531	2444.219048
467.182583	2459.295238
469.585005	2469.761905
471.986797	2489.209524
474.385911	2502.542857
476.786445	2523.304762
479.186350	2558.923810
481.581532	2597.276190
483.980181	2643.552381
486.374110	2678.580952
488.767413	2744.723810
491.160090	2815.438095
493.552142	2910.523810
495.945613	3018.123810
498.334371	3163.866667
500.720463	3378.323810
503.107975	3733.628571
505.494863	4262.514286
507.879088	5189.266667
510.264732	7270.400000
512.647713	13031.019048
515.028034	24755.771429
517.409774	39313.380952
519.788855	48535.323810
522.169355	46839.190476
524.547197	35358.923810
526.922384	20692.857143
529.296953	10343.838095
531.672941	6392.847619
534.046275	5420.647619
536.421028	4799.952381
538.791094	4288.923810
541.160545	3946.219048
543.531415	3689.152381
545.897603	3490.123810
548.265210	3336.133333
550.630171	3236.400000
552.994519	3120.571429
555.358255	3033.723810
557.723408	2973.285714
560.083889	2899.257143
562.445787	2845.161905
564.805046	2807.600000
567.161666	2772.552381
569.521732	2748.838095
571.875106	2713.495238
574.231925	2675.942857
576.586109	2640.200000
578.939684	2608.952381
581.292651	2585.952381
583.642987	2580.352381
585.994739	2558.638095
588.339815	2581.514286
590.690355	2589.361905
593.034222	2592.438095
595.383549	2596.771429
597.728229	2600.657143
600.070284	2586.152381
602.413756	2571.123810
604.754604	2566.190476
607.094851	2555.066667
609.432477	2567.276190
611.773538	2600.352381
614.109962	2611.447619
616.447802	2589.657143
618.783024	2585.285714
621.115631	2561.285714
623.449655	2552.628571
625.781064	2559.895238
628.111875	2530.571429
630.442088	2512.590476
632.771703	2497.828571
635.096696	2499.361905
637.427130	2494.780952
639.752942	2512.066667
642.076148	2512.276190
644.400770	2512.819048
646.722786	2506.295238
649.044208	2520.390476
651.363027	2513.647619
653.683262	2525.638095
656.002904	2557.523810
658.319945	2574.638095
660.636395	2571.190476
662.950246	2576.361905
665.265512	2563.076190
667.578182	2553.400000
669.892267	2563.323810
672.201753	2545.980952
674.512653	2518.352381
676.820961	2523.342857
679.128681	2533.561905
681.437816	2535.914286
683.742358	2527.504762
686.046314	2513.790476
688.349683	2497.952381
690.654467	2491.085714
692.954665	2492.428571
695.256278	2456.161905
697.557305	2436.600000
699.853751	2432.961905
702.151611	2428.742857
704.448888	2436.933333
706.745582	2436.723810
709.037700	2437.171429
711.333229	2439.619048
713.624185	2437.838095
715.916555	2431.114286
718.206349	2437.800000
720.495564	2416.152381
722.784198	2430.419048
725.070261	2438.904762
727.357737	2447.914286
729.642643	2448.371429
731.926970	2455.133333
734.208730	2447.752381
736.491903	2461.933333
738.774499	2460.276190
741.052539	2461.819048
743.331993	2460.819048
745.610872	2486.200000
747.889175	2503.771429
750.162929	2506.504762
752.438097	2493.238095
754.712691	2495.714286
756.984726	2493.409524
759.258174	2501.809524
761.529064	2496.219048
763.797397	2497.238095
766.067145	2509.019048
768.334337	2526.990476
770.600959	2535.904762
772.867012	2535.523810
775.130513	2533.761905
777.395426	2559.638095
779.659771	2560.857143
781.919585	2569.380952
784.180813	2564.285714
786.441473	2562.619048
788.699586	2550.961905
790.955155	2574.838095
793.214115	2574.819048
795.466576	2592.180952
797.724404	2608.495238
799.977713	2620.266667
802.228481	2625.523810
804.480662	2659.057143
806.730305	2662.838095
808.981359	2658.904762
811.227902	2655.961905
813.475858	2658.809524
815.721278	2669.542857
817.968110	2686.114286
820.214381	2688.390476
822.456148	2682.819048
824.701297	2676.933333
826.939974	2686.980952
829.182034	2696.561905
831.419595	2679.342857
833.658567	2658.047619
835.895013	2626.019048
838.132871	2618.314286
840.368203	2627.266667
842.601011	2631.923810
844.835231	2634.828571
847.066929	2611.152381
849.298072	2614.638095
851.528660	2626.666667
853.758694	2654.323810
855.988173	2670.219048
858.213172	2685.942857
860.441544	2668.723810
862.665438	2675.657143
864.890742	2654.742857
867.111571	2655.971429
869.335772	2641.190476
871.555500	2653.342857
873.776639	2653.780952
875.997227	2660.809524
878.215306	2660.761905
880.434794	2655.580952
882.649816	2635.647619
884.864290	2657.695238
887.078217	2662.542857
889.291596	2663.723810
891.504429	2655.019048
893.716714	2631.990476
895.926498	2618.276190
898.135736	2640.571429
900.344428	2670.495238
902.550622	2681.447619
904.758225	2682.923810
906.963331	2677.000000
909.167893	2684.066667
911.369959	2689.809524
913.573435	2699.266667
915.774418	2712.285714
917.974858	2731.580952
920.176707	2741.695238
922.372164	2782.809524
924.570981	2833.552381
926.765360	2919.657143
928.963096	3041.638095
931.156396	3185.095238
933.351104	3353.400000
935.543327	3537.828571
937.735012	3713.400000
939.926159	3833.790476
942.114823	3897.190476
944.302950	3921.647619
946.488597	3927.028571
948.677596	3913.295238
950.862172	3921.790476
953.046213	3941.600000
955.233604	3952.228571
957.412692	3958.361905
959.595129	3965.600000
961.777033	3974.904762
963.956463	4011.428571
966.133420	4045.076190
968.311785	4076.800000
970.491556	4100.876190
972.664979	4117.504762
974.841748	4116.066667
977.014111	4095.066667
979.187880	4054.447619
981.357247	4052.533333
983.529957	4028.866667
985.700201	3967.095238
987.869917	3838.780952
990.039104	3698.628571
992.203894	3556.142857
994.372025	3449.590476
996.535762	3358.628571
998.700905	3301.466667
1000.863590	3248.123810
1003.025749	3228.561905
1005.185450	3189.019048
1007.344628	3160.714286
1009.505212	3116.666667
1011.663341	3081.895238
1013.820946	3050.666667
1015.978028	3026.895238
1018.134587	2992.200000
1020.286766	2982.876190
1022.440352	2972.133333
1024.593415	2958.866667
1026.744031	2932.152381
1028.896052	2917.257143
1031.043700	2876.800000
1033.194680	2854.828571
1035.341289	2841.019048
1037.487380	2824.914286
1039.632952	2820.657143
1041.779928	2808.457143
1043.920617	2774.638095
1046.064634	2757.390476
1048.206211	2731.895238
1050.347272	2734.247619
1052.489737	2772.114286
1054.625923	2768.161905
1056.765435	2753.352381
1058.900591	2753.000000
1061.039072	2732.438095
1063.173200	2719.419048
1065.306814	2736.161905
1067.441832	2737.342857
1069.572501	2733.742857
1071.704576	2735.552381
1073.834220	2733.285714
1075.963353	2718.600000
1078.091975	2707.923810
1080.220085	2695.314286
1082.345769	2713.028571
1084.470943	2720.847619
1086.597520	2729.190476
1088.719761	2746.723810
1090.843406	2720.857143
1092.962716	2688.380952
1095.087255	2708.990476
1097.205550	2723.238095
1099.325248	2733.095238
1101.442528	2746.314286
1103.559302	2727.361905
1105.675569	2715.733333
1107.789421	2743.980952
1109.904676	2763.161905
1112.015609	2757.628571
1114.129853	2753.733333
1116.239778	2750.409524
1118.351105	2760.352381
1120.461929	2776.961905
1122.568436	2764.866667
1124.678252	2743.142857
1126.783754	2735.580952
1128.890660	2718.495238
1130.991349	2716.819048
1133.097251	2711.066667
1135.198844	2709.533333
1137.301840	2709.923810
1139.404335	2709.904762
1141.500624	2717.990476
1143.602119	2724.847619
1145.699312	2717.485714
1147.796006	2712.609524
1149.892203	2703.523810
1151.987901	2692.609524
1154.083102	2714.380952
1156.175906	2726.495238
1158.270112	2732.457143
1160.358127	2742.561905
1162.451340	2749.752381
1164.538365	2754.028571
1166.628690	2740.495238
1168.714726	2729.723810
1170.804060	2734.171429
1172.887213	2734.895238
1174.971769	2728.380952
1177.057725	2726.447619
1179.139400	2701.990476
1181.222477	2702.247619
1183.303168	2720.371429
1185.383367	2741.933333
1187.463076	2746.295238
1189.542292	2729.847619
1191.619127	2723.095238
1193.693581	2713.390476
1195.771327	2716.171429
1197.844802	2735.914286
1199.919679	2742.161905
1201.990288	2737.457143
1204.062298	2730.676190
1206.131932	2728.076190
1208.202967	2737.228571
1210.273514	2760.400000
1212.339800	2787.180952
1214.407487	2792.171429
1216.472802	2783.885714
1218.539517	2783.895238
1220.601976	2767.142857
1222.667720	2771.923810
1224.729211	2775.409524
1226.792101	2781.476190
1228.852624	2785.590476
1230.912664	2782.085714
1232.972220	2774.780952
1235.029412	2783.923810
1237.086121	2777.819048
1239.140468	2787.295238
1241.198095	2780.695238
1243.253360	2776.066667
1245.304384	2767.200000
1247.356808	2771.390476
1249.408753	2796.219048
1251.458338	2823.028571
1253.507446	2827.895238
1255.556074	2829.352381
1257.604224	2808.657143
1259.651896	2809.314286
1261.695337	2824.428571
1263.742053	2838.647619
1265.786417	2820.504762
1267.830303	2822.504762
1269.871839	2817.390476
1271.911025	2830.285714
1273.953483	2837.504762
1275.991720	2840.609524
1278.031354	2854.838095
1280.070514	2867.047619
1282.105456	2863.114286
1284.141796	2848.161905
1286.175791	2825.942857
1288.211185	2808.638095
1290.242365	2836.790476
1292.274944	2849.180952
1294.307050	2874.771429
1296.336816	2884.295238
1298.367980	2898.438095
1300.394936	2910.685714
1302.423290	2914.952381
1304.447440	2909.200000
1306.474855	2922.990476
1308.498067	2934.590476
1310.522676	2955.733333
1312.544952	2945.228571
1314.568625	2937.266667
1316.589965	2913.809524
1318.610837	2896.495238
1320.631243	2880.866667
1322.647454	2882.657143
1324.665064	2860.390476
1326.680345	2870.342857
1328.698885	2889.428571
1330.713235	2897.723810
1332.725260	2895.819048
1334.740543	2888.695238
1336.751640	2884.257143
1338.764133	2873.895238
1340.772444	2897.209524
1342.784011	2889.171429
1344.789539	2870.552381
1346.798321	2848.038095
1348.802927	2845.571429
1350.810786	2839.800000
1352.818182	2857.495238
1354.819548	2854.885714
1356.822311	2862.285714
1358.824614	2860.552381
1360.826456	2848.333333
1362.827840	2840.171429
1364.826909	2832.466667
1366.825520	2840.019048
1368.823673	2850.609524
1370.821368	2841.028571
1372.814899	2833.485714
1374.809827	2831.514286
1376.804298	2831.980952
1378.798312	2842.514286
1380.790019	2844.904762
1382.781270	2837.095238
1384.770216	2823.114286
1386.760557	2815.552381
1388.750443	2818.971429
1390.738026	2821.980952
1392.725155	2837.609524
1394.709982	2842.019048
1396.696204	2834.190476
1398.680125	2826.695238
1400.663594	2845.485714
1402.646611	2860.304762
1404.627330	2879.304762
1406.609443	2871.609524
1408.589259	2865.942857
1410.568625	2850.685714
1412.543852	2855.057143
1414.522317	2871.980952
1416.498489	2887.571429
1418.474211	2881.695238
1420.449484	2872.104762
1422.422466	2855.095238
1424.395001	2847.952381
1426.367087	2866.057143
1428.338725	2880.971429
1430.306236	2898.085714
1432.278820	2912.400000
1434.243598	2901.580952
1436.213449	2899.971429
1438.179175	2885.209524
1440.146295	2881.057143
1442.111131	2874.238095
1444.071847	2873.076190
1446.037631	2880.619048
1447.997460	2893.990476
1449.958682	2901.809524
1451.921297	2910.104762
1453.879797	2902.323810
1455.837855	2914.314286
1457.795470	2934.733333
1459.752644	2933.447619
1461.707542	2936.076190
1463.663832	2917.561905
1465.617848	2893.590476
1467.571424	2906.342857
1469.522727	2900.895238
1471.475422	2894.990476
1473.425846	2897.380952
1475.375831	2881.114286
1477.325376	2862.219048
1479.272653	2870.847619
1481.217663	2859.238095
1483.164065	2866.190476
1485.110029	2870.104762
1487.055555	2866.409524
1488.998817	2863.590476
1490.941642	2873.247619
1492.882204	2868.457143
1494.824157	2870.123810
1496.763849	2873.028571
1498.703105	2864.457143
1500.641927	2841.019048
1502.578489	2831.609524
1504.516441	2839.219048
1506.452136	2841.523810
1508.387397	2856.190476
1510.320401	2870.771429
1512.252973	2856.923810
1514.185113	2856.076190
1516.116821	2867.828571
1518.046275	2859.409524
1519.977120	2864.114286
1521.907534	2882.790476
1523.833875	2882.514286
1525.761606	2882.609524
1527.687087	2883.438095
1529.612139	2881.428571
1531.536762	2892.190476
1533.460956	2902.504762
1535.382903	2919.257143
1537.306239	2910.695238
1539.227330	2914.914286
1541.146176	2923.209524
1543.066412	2913.019048
1544.984404	2916.628571
1546.901970	2931.704762
1548.817294	2934.038095
1550.734008	2945.580952
1552.646667	2959.409524
1554.562530	2943.009524
1556.476154	2948.333333
1558.387539	2922.723810
1560.300313	2911.752381
1562.209038	2899.590476
1564.119153	2906.171429
1566.028844	2906.619048
1567.938111	2912.657143
1569.845145	2873.895238
1571.749946	2868.371429
1573.656136	2847.971429
1575.560094	2851.190476
1577.463632	2888.047619
1579.366748	2915.695238
1581.267636	2919.238095
1583.169911	2902.095238
1585.069959	2849.000000
1586.971395	2833.323810
1588.868796	2861.628571
1590.765780	2874.019048
1592.662345	2881.876190
1594.560297	2879.657143
1596.452415	2866.409524
1598.347727	2884.247619
1600.242620	2912.638095
1602.135292	2895.647619
1604.027548	2880.085714
1605.917584	2880.066667
1607.807204	2888.990476
1609.696409	2896.371429
1611.585198	2915.257143
1613.471771	2905.380952
1615.359730	2890.333333
1617.243674	2884.580952
1619.129004	2902.161905
1621.013920	2896.800000
1622.896624	2889.161905
1624.780713	2886.552381
1626.660792	2875.866667
1628.542257	2881.790476
1630.421512	2899.352381
1632.302153	2915.352381
1634.176990	2904.180952
1636.056809	2902.609524
1637.932622	2880.057143
1639.808026	2894.304762
1641.684815	2893.542857
1643.555807	2901.171429
1645.429981	2895.542857
1647.300157	2904.200000
1649.173513	2894.647619
1651.044666	2909.266667
1652.913617	2896.171429
1654.783954	2882.895238
1656.650297	2866.314286
1658.518026	2852.704762
1660.383557	2837.380952
1662.250472	2795.276190
1664.113399	2782.533333
1665.977711	2792.000000
1667.839828	2805.438095
1669.701539	2829.628571
1671.564635	2837.342857
1673.425537	2801.704762
1675.284245	2796.438095
1677.142550	2789.076190
1679.002240	2776.885714
1680.856163	2786.076190
1682.713258	2769.019048
1684.569951	2745.771429
1686.422668	2765.552381
1688.278556	2784.723810
1690.130470	2787.885714
1691.981982	2798.133333
1693.833095	2770.495238
1695.683806	2735.685714
1697.534117	2730.657143
1699.382244	2715.952381
1701.231754	2724.342857
1703.075516	2747.352381
1704.924228	2762.219048
1706.767193	2753.066667
1708.613324	2762.723810
1710.455494	2742.895238
1712.300828	2750.685714
1714.140422	2754.142857
1715.981400	2751.180952
1717.823761	2724.333333
1719.662166	2730.619048
1721.501954	2708.904762
1723.339567	2711.819048
1725.176784	2702.304762
1727.011828	2713.409524
1728.848255	2705.847619
1730.682510	2707.076190
1732.516371	2699.466667
1734.349837	2685.285714
1736.179357	2664.838095
1738.012036	2672.457143
1739.840771	2662.476190
1741.672664	2659.561905
1743.500614	2655.047619
1745.328172	2635.323810
1747.155339	2632.866667
1748.982113	2635.438095
1750.808497	2624.076190
1752.630944	2625.571429
1754.456545	2616.685714
1756.278212	2607.571429
1758.101261	2610.990476
1759.922149	2606.714286
1761.742647	2586.514286
1763.564527	2583.666667
1765.380707	2585.580952
1767.200039	2593.180952
1769.015444	2607.847619
1770.833999	2615.657143
1772.648630	2611.780952
1774.462873	2603.847619
1776.276730	2586.666667
1778.090200	2576.771429
1779.901516	2567.961905
1781.714214	2565.285714
1783.526525	2570.047619
1785.334919	2577.123810
1787.144694	2574.114286
1788.950553	2581.409524
1790.759559	2575.638095
1792.564651	2573.019048
1794.371123	2576.819048
1796.177212	2568.495238
1797.979391	2559.352381
1799.784713	2562.114286
1801.586127	2561.447619
1803.388921	2588.609524
1805.187810	2601.390476
1806.988078	2600.866667
1808.787966	2597.409524
1810.585711	2587.361905
1812.383076	2574.133333
1814.180060	2582.866667
1815.976664	2568.752381
1817.771129	2560.409524
1819.566974	2573.133333
1821.357163	2573.028571
1823.152249	2565.247619
1824.941682	2557.495238
1826.734253	2549.923810
1828.524688	2549.295238
1830.312988	2571.095238
1832.104424	2572.495238
1833.890214	2563.628571
1835.677384	2555.457143
1837.462422	2550.857143
1839.250594	2549.533333
1841.034880	2549.342857
1842.817037	2546.085714
1844.600572	2562.066667
1846.381980	2569.409524
1848.164765	2571.057143
1849.943671	2554.380952
1851.723955	2548.190476
1853.502114	2534.495238
1855.281650	2546.733333
1857.059062	2545.428571
1858.834350	2538.333333
1860.611017	2542.723810
1862.385561	2569.819048
1864.161482	2575.400000
1865.931784	2579.419048
1867.705213	2568.495238
1869.476522	2551.190476
1871.247460	2555.647619
1873.019775	2561.257143
1874.786478	2561.685714
1876.556305	2564.695238
1878.322269	2551.457143
1880.091357	2572.714286
1881.856583	2570.304762
1883.621441	2559.171429
1885.387675	2533.314286
1887.150051	2533.438095
1888.912060	2505.638095
1890.673702	2529.647619
1892.434976	2517.047619
1894.195884	2525.847619
1895.956424	2515.438095
1897.714855	2533.047619
1899.472921	2532.000000
1901.228879	2531.695238
1902.986213	2532.676190
1904.743181	2531.009524
1906.498044	2514.819048
1908.250801	2520.790476
1910.003195	2517.228571
1911.756964	2514.276190
1913.508630	2520.409524
1915.258194	2513.438095
1917.009134	2508.800000
1918.759710	2521.876190
1920.506448	2520.895238
1922.254561	2529.190476
1924.000575	2518.742857
1925.747965	2522.857143
1927.493256	2508.304762
1929.236450	2500.476190
1930.981020	2494.019048
1932.723493	2502.600000
1934.465606	2509.609524
1936.207359	2553.971429
1937.948753	2553.552381
1939.688053	2541.085714
1941.426994	2539.523810
1943.165576	2547.533333
1944.902066	2548.657143
1946.638199	2575.171429
1948.375706	2561.980952
1950.109392	2544.914286
1951.844452	2538.161905
1953.577423	2542.257143
1955.310038	2548.666667
1957.042296	2562.085714
1958.774198	2557.180952
1960.504014	2567.447619
1962.231746	2572.761905
1963.960851	2577.323810
1965.689602	2574.780952
1967.416269	2583.190476
1969.142582	2576.504762
1970.870268	2582.666667
1972.592418	2582.019048
1974.317670	2578.457143
1976.039114	2563.095238
1977.763658	2579.885714
1979.486123	2605.657143
1981.204784	2618.066667
1982.926544	2611.676190
1984.644502	2591.314286
1986.363834	2559.923810
1988.079365	2559.371429
1989.799718	2566.790476
1991.516271	2585.885714
1993.229029	2588.295238
1994.944882	2578.390476
1996.658662	2571.028571
1998.372093	2588.257143
2000.083453	2601.733333
2001.796186	2636.800000
2003.505127	2648.771429
2005.217162	2636.571429
2006.923687	2617.952381
2008.633305	2606.923810
2010.340855	2601.466667
2012.048058	2597.314286
2013.753195	2613.333333
2015.457985	2618.714286
2017.164147	2627.038095
2018.866527	2619.780952
2020.570279	2616.847619
2022.271968	2613.190476
2023.973311	2635.066667
2025.674309	2639.057143
2027.373247	2648.552381
2029.073556	2642.828571
2030.770089	2643.104762
2032.467994	2644.523810
2034.163841	2643.152381
2035.862773	2637.971429
2037.556218	2646.780952
2039.251036	2645.476190
2040.945510	2640.466667
2042.636216	2640.009524
2044.330006	2640.647619
2046.020029	2630.028571
2047.711423	2623.876190
2049.400764	2608.685714
2051.091475	2579.180952
2052.778424	2571.904762
2054.465032	2572.761905
2056.153011	2579.828571
2057.837230	2589.304762
2059.522819	2597.780952
2061.208069	2588.228571
2062.891271	2577.666667
2064.575843	2576.342857
2066.254951	2585.714286
2067.938845	2571.276190
2069.617279	2548.304762
2071.298790	2544.561905
2072.976549	2540.476190
2074.653972	2552.761905
2076.332764	2575.038095
2078.009513	2595.609524
2079.684221	2602.266667
2081.360298	2604.704762
2083.034335	2593.038095
2084.708036	2576.238095
2086.381402	2551.514286
2088.052730	2556.571429
2089.723723	2566.952381
2091.394382	2557.457143
2093.064707	2558.619048
2094.734697	2560.228571
2096.402652	2545.980952
2098.070274	2549.152381
2099.735862	2570.085714
2101.402818	2570.419048
2103.067741	2575.990476
2104.732331	2578.304762
2106.394890	2576.066667
2108.058818	2577.561905
2109.720714	2598.809524
2111.382279	2585.171429
2113.043514	2582.009524
2114.702719	2586.266667
2116.361595	2588.657143
2118.020140	2587.885714
2119.678356	2606.295238
2121.332848	2598.590476
2122.990406	2591.790476
2124.647633	2596.285714
2126.301140	2606.704762
2127.956014	2587.838095
2129.607169	2590.457143
2131.261387	2601.419048
2132.911887	2597.657143
2134.563755	2596.333333
2136.210214	2609.200000
2137.861427	2593.190476
2139.508927	2592.428571
2141.157795	2598.552381
2142.804643	2590.876190
2144.451165	2574.723810
2146.097362	2590.361905
2147.739851	2585.723810
2149.385398	2600.704762
2151.027238	2598.819048
2152.672135	2598.104762
2154.313327	2576.571429
2155.954195	2586.285714
2157.594740	2571.961905
2159.233272	2581.895238
2160.873170	2569.238095
2162.509368	2573.723810
2164.146932	2558.038095
2165.784174	2548.104762
2167.419406	2525.904762
2169.054316	2516.076190
2170.688905	2518.533333
2172.323173	2531.333333
2173.953747	2540.038095
2175.587372	2543.819048
2177.217306	2561.590476
2178.848605	2564.761905
2180.477900	2567.085714
2182.106874	2561.457143
2183.735530	2544.590476
2185.363866	2534.066667
2186.990199	2543.723810
2188.616214	2557.704762
2190.240228	2548.447619
2191.865607	2559.647619
2193.488985	2546.876190
2195.113728	2546.400000
2196.734789	2542.771429
2198.355535	2548.247619
2199.977644	2530.400000
2201.597756	2552.590476
2203.215872	2549.542857
2204.833672	2546.009524
2206.451156	2537.619048
2208.068325	2520.504762
2209.685179	2515.933333
2211.301718	2529.085714
2212.916263	2527.942857
2214.528816	2523.438095
2216.142734	2532.419048
2217.754659	2525.114286
2219.367949	2528.028571
2220.979247	2517.028571
2222.588557	2491.171429
2224.199229	2489.180952
2225.807913	2487.971429
2227.416285	2473.990476
2229.022669	2468.209524
2230.630417	2474.514286
2232.236178	2464.790476
2233.841628	2493.723810
2235.445094	2499.038095
2237.049922	2501.333333
2238.652766	2495.152381
2240.253627	2498.057143
2241.855851	2485.685714
2243.456092	2483.676190
2245.057697	2474.866667
2246.655648	2490.828571
2248.254962	2507.676190
2249.852296	2524.638095
2251.449322	2523.076190
2253.047709	2507.447619
2254.642448	2493.400000
2256.235211	2501.495238
2257.829335	2504.942857
2259.424821	2499.161905
2261.016663	2467.314286
2262.608198	2441.990476
2264.201094	2437.571429
2265.788681	2452.895238
2267.380965	2475.742857
2268.967941	2495.638095
2270.557946	2472.971429
2272.142646	2452.895238
2273.732040	2436.580952
2275.316131	2434.895238
2276.901584	2426.342857
2278.485068	2426.266667
2280.071577	2416.190476
2281.654453	2396.390476
2283.237025	2384.028571
2284.819295	2391.495238
2286.397934	2389.095238
2287.979597	2411.123810
2289.557632	2434.804762
2291.138691	2431.390476
2292.716122	2398.395238
2294.291590	2376.047619
2295.870080	2355.919048
2297.444945	2370.685714
2299.019510	2373.733333
2300.593775	2383.095238
2302.167739	2369.095238
2303.741403	2364.914286
2305.314766	2344.695238
2306.884511	2345.600000
2308.453957	2310.190476
2310.026422	2293.647619
2311.593611	2298.580952
2313.163819	2321.104762
2314.730412	2326.847619
2316.298365	2356.952381
2317.864363	2358.266667
2319.430063	2356.590476
2320.995465	2359.380952
2322.558914	2371.971429
2324.123721	2367.095238
2325.684921	2398.676190
2327.249135	2410.438095
2328.808088	2423.104762
2330.370054	2420.761905
2331.930070	2410.247619
2333.489790	2380.523810
2335.047561	2367.676190
2336.605038	2347.323810
2338.162219	2343.476190
2339.717454	2352.066667
2341.272394	2361.314286
2342.827041	2384.428571
2344.381394	2398.695238
2345.935453	2395.561905
2347.489219	2377.495238
2349.041040	2361.228571
2350.590918	2328.742857
2352.143804	2330.085714
2353.691448	2340.723810
2355.242099	2346.038095
2356.789160	2348.247619
2358.337578	2347.733333
2359.885704	2336.295238
2361.430243	2329.942857
2362.976139	2324.628571
2364.520096	2317.714286
2366.065411	2315.876190
2367.607141	2333.276190
2369.150229	2343.609524
2370.691380	2354.628571
2372.232242	2351.971429
2373.772815	2345.542857
2375.313099	2329.504762
2376.853094	2320.733333
2378.389510	2305.304762
2379.928928	2297.857143
2381.464769	2293.057143
2383.001966	2301.247619
2384.535589	2305.800000
2386.072211	2300.142857
2387.606902	2298.857143
2389.139664	2290.980952
2390.672140	2289.180952
2392.202687	2302.619048
2393.736232	2306.342857
2395.264566	2302.923810
2396.794256	2294.123810
2398.323661	2289.390476
2399.852781	2296.704762
2401.381615	2288.447619
2402.905245	2305.885714
2404.433510	2309.961905
2405.956572	2306.552381
2407.484269	2316.323810
2409.005125	2307.190476
2410.530615	2275.609524
2412.052544	2292.228571
2413.575829	2297.847619
2415.097193	2311.095238
2416.616637	2316.980952
2418.137436	2306.276190
2419.656316	2289.323810
2421.174914	2296.114286
2422.691595	2314.085714
2424.209631	2322.000000
2425.727385	2314.914286
2427.241587	2311.047619
2428.755509	2293.333333
2430.269152	2270.657143
2431.784148	2271.171429
2433.295596	2273.390476
2434.808399	2280.009524
2436.319289	2282.923810
2437.829899	2281.590476
2439.338598	2265.638095
2440.850284	2269.095238
2442.358426	2264.552381
2443.866289	2263.904762
2445.373875	2248.942857
2446.877921	2243.047619
2448.384951	2253.895238
2449.890073	2272.361905
2451.394918	2264.228571
2452.897856	2249.819048
2454.400517	2222.819048
2455.902902	2199.304762
2457.403382	2210.742857
2458.905215	2229.552381
2460.405144	2208.761905
2461.904797	2209.552381
2463.404175	2201.123810
2464.901650	2198.114286
2466.397223	2212.561905
2467.895776	2215.171429
2469.390800	2206.314286
2470.887178	2228.038095
2472.380029	2226.095238
2473.874232	2218.390476
2475.368162	2206.857143
2476.858569	2188.904762
2478.351953	2179.800000
2479.843438	2179.514286
2481.333027	2176.361905
2482.822344	2172.057143
2484.309766	2175.571429
2485.800163	2183.361905
2487.287041	2196.028571
2488.775271	2201.047619
2490.259985	2202.152381
2491.744428	2195.619048
2493.230223	2191.923810
2494.714125	2190.323810
2496.199379	2190.000000
2497.679499	2187.761905
2499.162591	2183.628571
2500.643793	2179.657143
2502.124726	2177.695238
2503.603770	2172.933333
2505.082546	2169.657143
2506.561053	2174.657143
2508.039291	2184.333333
2509.517261	2190.076190
2510.991727	2186.161905
2512.469161	2187.409524
2513.943092	2204.647619
2515.418374	2202.857143
2516.893388	2205.361905
2518.364901	2187.180952
2519.837765	2172.380952
2521.308745	2169.142857
2522.781076	2180.247619
2524.248294	2188.933333
2525.718478	2201.742857
2527.186780	2212.104762
2528.654818	2212.733333
2530.122591	2208.114286
2531.590099	2192.780952
2533.057342	2192.600000
2534.521094	2189.714286
2535.986195	2188.285714
2537.449419	2190.066667
2538.913992	2188.933333
2540.375076	2185.085714
2541.837511	2181.057143
2543.299682	2187.971429
2544.758366	2182.685714
2546.221623	2188.771429
2547.679783	2199.980952
2549.139292	2218.438095
2550.593708	2222.314286
2552.052694	2225.476190
2553.509807	2195.523810
2554.965050	2170.752381
2556.420032	2162.885714
2557.873144	2170.285714
2559.327605	2190.438095
2560.780197	2195.352381
2562.232529	2193.695238
2563.682993	2194.266667
2565.136413	2186.314286
2566.584751	2172.371429
2568.036045	2170.409524
2569.485472	2152.523810
2570.931428	2147.609524
2572.380338	2154.028571
2573.825777	2162.542857
2575.272565	2154.133333
2576.717489	2151.647619
2578.162156	2150.600000
2579.608170	2141.009524
2581.050717	2156.447619
2582.494612	2166.390476
2583.935042	2168.914286
2585.376820	2156.371429
2586.816738	2146.466667
2588.258003	2131.761905
2589.695806	2131.495238
2591.136559	2130.361905
2592.572249	2153.790476
2594.010889	2169.800000
2595.447672	2169.628571
2596.882598	2170.266667
2598.320473	2157.142857
2599.753290	2144.914286
2601.187454	2156.828571
2602.619763	2157.171429
2604.053419	2144.676190
2605.485222	2131.857143
2606.916772	2129.333333
2608.348068	2130.504762
2609.777513	2132.752381
2611.206705	2118.733333
2612.634046	2116.219048
2614.062734	2112.961905
2615.491169	2123.457143
2616.916158	2111.914286
2618.342492	2097.857143
2619.766978	2090.380952
2621.192810	2096.028571
2622.615198	2101.657143
2624.038932	2119.828571
2625.460820	2114.314286
2626.882457	2113.466667
2628.302249	2105.171429
2629.723387	2090.419048
2631.144275	2082.876190
2632.561725	2086.400000
2633.982114	2095.904762
2635.399066	2111.885714
2636.815770	2113.571429
2638.232225	2111.638095
2639.648432	2119.819048
2641.064390	2110.276190
2642.478508	2099.657143
2643.892379	2088.504762
2645.304410	2083.228571
2646.717786	2089.533333
2648.127732	2100.809524
2649.540614	2103.019048
2650.950067	2091.161905
2652.359274	2079.114286
2653.766645	2077.714286
2655.176950	2077.895238
2656.585419	2059.761905
2657.992053	2060.466667
2659.398442	2070.323810
2660.802997	2095.219048
2662.208896	2113.914286
2663.612962	2106.761905
2665.016784	2085.704762
2666.420361	2097.228571
2667.822106	2113.504762
2669.225195	2130.485714
2670.624867	2127.542857
2672.025882	2102.695238
2673.423480	2077.342857
2674.824009	2076.104762
2676.221123	2079.780952
2677.619580	2074.476190
2679.016209	2083.780952
2680.412597	2078.714286
2681.808742	2075.638095
2683.203061	2071.190476
2684.598723	2061.942857
2685.990975	2049.314286
2687.384571	2055.228571
2688.776342	2048.190476
2690.169455	2055.200000
2691.560745	2058.095238
2692.950212	2060.885714
2694.339440	2068.695238
2695.728427	2080.000000
2697.118757	2078.790476
2698.504102	2074.504762
2699.892372	2067.533333
2701.278820	2052.628571
2702.665031	2042.457143
2704.051002	2032.961905
2705.433575	2033.695238
2706.817489	2048.619048
2708.201166	2062.342857
2709.584605	2063.685714
2710.964648	2058.047619
2712.346033	2026.885714
2713.725602	2015.838095
2715.106513	2012.190476
2716.485609	2019.819048
2717.862890	2022.352381
2719.241513	2038.352381
2720.618323	2016.676190
2721.994897	2004.438095
2723.371235	1996.838095
2724.745761	1999.657143
2726.121628	2006.961905
2727.494108	2028.885714
2728.869505	2014.238095
2730.239940	2012.895238
2731.611717	2015.314286
2732.983260	2004.380952
2734.352994	2005.019048
2735.724068	1997.285714
2737.093335	1986.019048
2738.462368	2000.171429
2739.829594	2007.904762
2741.196588	2008.333333
2742.563349	1997.961905
2743.929877	1996.314286
2745.294600	1993.104762
2746.659092	1999.571429
2748.023351	2007.095238
2749.387379	2025.923810
2750.751174	2021.133333
2752.111596	2013.961905
2753.474929	1990.419048
2754.833319	1977.733333
2756.194619	1971.923810
2757.552548	1987.009524
2758.913387	1988.228571
2760.272425	1990.971429
2761.628095	1979.371429
2762.986673	1980.076190
2764.341885	1973.238095
2765.696867	1964.438095
2767.050052	1970.657143
2768.406144	1975.638095
2769.758872	1976.704762
2771.111371	1992.438095
2772.463642	1981.114286
2773.817252	1965.847619
2775.167500	1963.009524
2776.515955	1951.409524
2777.867314	1940.980952
2779.215314	1949.190476
2780.564653	1938.866667
2781.912199	1941.866667
2783.259518	1937.571429
2784.606611	1943.085714
2785.951913	1941.800000
2787.296989	1939.533333
2788.641839	1916.942857
2789.986463	1914.695238
2791.327734	1921.190476
2792.670344	1920.542857
2794.012729	1926.942857
2795.354888	1930.276190
2796.693698	1913.923810
2798.035408	1925.609524
2799.373769	1940.980952
2800.713468	1941.752381
2802.051381	1937.733333
2803.387510	1954.980952
2804.723416	1937.057143
2806.060658	1928.228571
2807.396117	1933.695238
2808.731353	1935.142857
2810.064807	1936.761905
2811.399597	1945.200000
2812.731046	1923.704762
2814.065391	1911.961905
2815.394838	1921.104762
2816.725622	1932.238095
2818.056184	1940.152381
2819.384967	1952.104762
2820.715087	1945.533333
2822.043427	1939.571429
2823.371547	1921.380952
2824.697890	1906.333333
2826.025568	1897.257143
2827.349914	1908.619048
2828.675595	1893.438095
2829.999502	1918.885714
2831.323188	1912.780952
2832.648210	1907.400000
2833.969903	1895.009524
2835.291376	1893.780952
2836.612631	1867.466667
2837.933667	1888.342857
2839.252931	1898.485714
2840.573530	1904.980952
2841.892357	1894.876190
2843.210966	1890.085714
2844.527805	1880.314286
2845.844426	1876.123810
2847.160829	1880.390476
2848.475464	1881.657143
2849.791433	1875.495238
2851.104082	1879.752381
2852.418067	1883.685714
2853.731835	1875.800000
2855.045386	1878.380952
2856.357170	1884.104762
2857.667189	1880.009524
2858.978542	1898.000000
2860.286579	1894.971429
2861.595952	1878.047619
2862.905109	1868.057143
2864.214051	1870.361905
2865.521230	1879.219048
2866.826645	1897.590476
2868.133395	1899.419048
2869.438382	1888.666667
2870.743156	1879.666667
2872.046168	1880.333333
2873.352062	1886.600000
2874.653101	1893.238095
2875.955473	1909.361905
2877.256086	1917.466667
2878.558033	1918.866667
2879.859767	1903.371429
2881.158197	1870.857143
2882.457960	1857.190476
2883.755966	1860.085714
2885.053760	1861.990476
2886.349797	1866.161905
2887.647168	1856.333333
2888.942783	1843.161905
2890.238188	1862.009524
2891.533381	1871.247619
2892.825276	1884.980952
2894.120048	1894.895238
2895.411523	1894.171429
2896.704332	1891.866667
2897.996930	1887.533333
2899.286233	1859.685714
2900.576869	1848.447619
2901.865754	1833.676190
2903.155972	1843.066667
2904.442898	1858.657143
2905.731156	1857.009524
2907.017665	1843.352381
2908.303965	1838.266667
2909.590057	1827.914286
2910.874401	1843.285714
2912.161617	1839.790476
2913.444006	1828.876190
2914.727727	1827.400000
2916.009701	1837.990476
2917.291469	1858.019048
2918.571491	1855.190476
2919.854383	1825.076190
2921.135530	1801.219048
2922.413395	1794.780952
2923.694129	1804.552381
2924.971582	1816.914286
2926.248830	1816.304762
2927.524335	1816.228571
2928.802708	1813.866667
2930.076266	1815.466667
2931.352692	1812.514286
2932.627377	1808.752381
2933.900322	1812.485714
2935.174597	1812.180952
2936.447133	1800.190476
2937.719465	1782.552381
2938.988524	1768.380952
2940.260448	1764.847619
2941.530633	1764.038095
2942.800616	1792.219048
2944.070395	1801.752381
2945.338437	1804.447619
2946.604744	1802.828571
2947.870848	1791.857143
2949.138283	1781.076190
2950.403982	1784.952381
2951.669479	1779.066667
2952.934774	1777.400000
2954.196805	1783.209524
2955.460165	1773.990476
2956.723324	1760.657143
2957.984750	1758.638095
2959.247506	1754.066667
2960.508531	1756.761905
2961.767825	1758.000000
2963.026918	1754.761905
2964.285811	1743.009524
2965.544504	1747.161905
2966.802997	1737.447619
2968.059761	1737.657143
2969.316325	1722.904762
2970.571162	1732.609524
2971.827328	1730.190476
2973.080238	1728.000000
2974.334478	1718.200000
2975.588519	1706.857143
2976.840834	1697.838095
2978.092951	1712.095238
2979.343343	1716.780952
2980.596590	1720.104762
2981.845060	1711.790476
2983.096384	1695.885714
2984.344460	1678.352381
2985.592338	1672.561905
2986.840019	1683.914286
2988.087504	1683.295238
2989.333267	1696.114286
2990.578833	1718.914286
2991.825728	1727.076190
2993.069377	1711.133333
2994.314355	1708.676190
2995.556090	1683.457143
2996.800676	1674.495238
2998.043543	1683.685714
2999.283168	1694.695238
3000.525645	1679.904762
3001.764881	1692.628571
3003.005445	1692.752381
3004.244292	1700.076190
3005.482945	1707.695238
3006.719882	1711.171429
3007.958146	1707.285714
3009.194696	1714.561905
3010.431052	1686.561905
3011.667214	1684.390476
3012.901662	1677.333333
3014.135917	1667.123810
3015.369979	1676.666667
3016.602329	1677.314286
3017.832967	1659.600000
3019.066451	1654.628571
3020.298224	1658.990476
3021.528285	1655.047619
3022.758155	1672.104762
3023.986315	1671.542857
3025.215802	1659.761905
3026.443579	1648.600000
3027.671165	1644.657143
3028.900077	1642.190476
3030.124247	1641.380952
3031.351260	1645.628571
3032.575050	1661.685714
3033.800165	1677.476190
3035.023574	1682.419048
3036.246794	1678.514286
3037.468308	1668.961905
3038.692663	1671.628571
3039.912283	1689.104762
3041.133229	1686.438095
3042.353985	1685.657143
3043.573038	1673.628571
3044.793417	1668.790476
3046.010579	1664.790476
3047.229066	1661.209524
3048.445852	1640.142857
3049.662449	1640.533333
3050.878859	1638.466667
3052.092055	1641.200000
3053.308089	1641.228571
3054.520911	1641.809524
3055.736570	1634.457143
3056.947506	1632.028571
3058.159768	1618.504762
3059.371842	1623.733333
3060.583730	1622.447619
3061.793920	1615.257143
3063.003925	1617.714286
3064.213743	1606.180952
3065.421865	1594.876190
3066.629801	1602.819048
3067.836043	1611.766667
3069.043609	1614.809524
3070.249480	1623.195238
3071.455166	1628.676190
3072.660667	1626.700000
3073.864476	1622.685714
3075.069608	1622.466667
3076.273047	1624.780952
3077.474794	1622.485714
3078.676358	1631.161905
3079.877738	1620.876190
3081.078934	1594.628571
3082.278440	1586.104762
3083.477762	1582.980952
3084.678408	1596.685714
3085.877365	1611.685714
3087.073126	1618.790476
3088.271717	1604.780952
3089.467114	1601.990476
3090.663835	1592.047619
3091.857363	1591.190476
3093.053719	1588.323810
3094.248388	1581.676190
3095.439867	1571.533333
3096.635677	1577.904762
3097.826794	1568.257143
3099.019234	1576.504762
3100.208485	1571.123810
3101.400563	1567.980952
3102.590957	1557.400000
3103.778164	1570.695238
3104.966695	1552.495238
3106.156548	1565.666667
3107.343216	1553.123810
3108.529705	1561.657143
3109.716014	1562.361905
3110.903646	1571.342857
3112.088095	1571.857143
3113.270864	1568.885714
3114.456457	1555.628571
3115.640369	1549.342857
3116.822603	1541.552381
3118.004659	1534.361905
3119.186536	1537.238095
3120.368235	1526.419048
3121.548257	1529.380952
3122.726601	1538.104762
3123.907767	1529.790476
3125.085757	1524.733333
3126.263570	1525.057143
3127.441206	1511.314286
3128.617167	1516.695238
3129.792952	1529.790476
3130.970057	1521.438095
3132.145489	1515.685714
3133.319247	1526.742857
3134.491332	1521.704762
3135.664738	1530.266667
3136.837969	1542.323810
3138.009527	1537.371429
3139.182407	1542.971429
3140.352119	1554.180952
3141.523152	1548.885714
3142.692514	1545.038095
3143.860207	1534.742857
3145.030715	1518.590476
3146.196564	1516.457143
3147.366723	1518.228571
3148.532224	1512.457143
3149.697552	1520.466667
3150.862706	1521.114286
3152.027687	1516.733333
3153.193987	1515.076190
3154.355634	1514.676190
3155.518602	1502.761905
3156.681396	1495.619048
3157.844018	1487.095238
3159.004975	1471.171429
3160.165759	1475.552381
3161.326371	1471.676190
3162.485320	1483.895238
3163.644096	1476.228571
3164.802701	1468.104762
3165.961134	1458.133333
3167.119395	1458.838095
3168.275994	1454.152381
3169.430932	1457.961905
3170.587189	1450.342857
3171.741786	1442.457143
3172.896211	1440.657143
3174.048977	1440.866667
3175.201573	1450.971429
3176.353999	1442.533333
3177.506254	1456.304762
3178.658340	1452.276190
3179.807279	1441.380952
3180.959025	1425.466667
3182.109114	1425.161905
3183.257545	1430.504762
3184.405808	1444.857143
3185.553902	1449.485714
3186.701826	1456.114286
3187.848096	1449.380952
3188.994197	1451.009524
3190.138644	1463.885714
3191.282922	1467.085714
3192.427033	1459.380952
3193.572462	1451.828571
3194.714752	1450.885714
3195.856874	1444.009524
3196.998830	1430.695238
3198.140618	1436.019048
3199.282239	1439.847619
3200.420724	1441.533333
3201.560528	1453.390476
3202.701648	1446.800000
3203.839634	1433.619048
3204.975971	1436.019048
3206.112142	1439.914286
3207.249631	1439.466667
3208.385471	1430.466667
3209.522627	1418.447619
3210.655171	1413.590476
3211.791997	1403.980952
3212.924211	1399.657143
3214.057743	1412.123810
3215.191109	1420.238095
3216.321348	1417.066667
3217.454385	1414.666667
3218.584296	1409.780952
3219.715524	1394.895238
3220.843626	1389.323810
3221.974526	1391.676190
3223.103781	1383.123810
3224.231392	1395.352381
3225.355882	1403.628571
3226.484647	1401.171429
3227.610290	1402.809524
3228.735770	1400.704762
3229.859609	1394.142857
3230.986243	1388.361905
3232.108278	1380.276190
3233.231630	1372.152381
3234.354820	1373.876190
3235.477848	1366.857143
3236.599236	1361.409524
3237.720463	1350.171429
3238.840051	1353.780952
3239.959478	1353.047619
3241.077267	1360.828571
3242.197849	1367.028571
3243.315317	1367.990476
3244.432624	1370.714286
3245.549770	1374.400000
3246.665281	1371.580952
3247.782107	1376.466667
3248.895822	1373.771429
3250.012328	1364.171429
3251.127198	1361.561905
3252.238960	1359.276190
3253.350563	1355.409524
3254.463481	1362.047619
3255.576239	1366.152381
3256.685891	1350.247619
3257.796858	1351.657143
3258.907666	1351.923810
3260.016842	1338.895238
3261.124387	1325.723810
3262.233247	1325.314286
3263.341948	1325.028571
3264.447547	1362.942857
3265.554461	1391.771429
3266.659745	1387.714286
3267.766343	1359.428571
3268.869841	1329.666667
3269.974653	1308.142857
3271.079308	1321.847619
3272.180865	1337.114286
3273.282265	1329.952381
3274.384979	1333.019048
3275.487536	1330.457143
3276.586998	1315.285714
3277.689242	1327.971429
3278.788392	1329.714286
3279.885916	1321.247619
3280.983285	1332.619048
3282.083437	1335.447619
3283.180495	1323.095238
3284.277399	1317.247619
3285.374147	1296.819048
3286.466336	1291.647619
3287.562775	1296.790476
3288.657591	1308.733333
3289.752252	1323.704762
3290.845292	1317.704762
3291.938178	1302.057143
3293.029443	1295.809524
3294.122021	1290.228571
3295.212979	1293.323810
3296.302317	1294.828571
3297.391502	1291.838095
3298.481999	1289.676190
3299.569412	1288.971429
3300.656673	1286.809524
3301.745246	1288.409524
3302.833666	1279.380952
3303.917539	1286.123810
3305.005654	1289.590476
3306.090688	1292.523810
3307.174106	1282.447619
3308.258836	1276.066667
3309.341950	1259.876190
3310.426376	1267.571429
3311.507724	1263.857143
3312.590384	1277.371429
3313.671430	1279.933333
3314.752325	1291.838095
3315.831607	1280.190476
3316.910738	1276.933333
3317.991180	1260.266667
3319.068549	1256.266667
3320.147229	1258.304762
3321.224297	1259.371429
3322.301215	1260.914286
3323.376523	1256.933333
3324.451681	1244.523810
3325.528150	1232.628571
3326.601548	1225.428571
3327.674798	1209.742857
3328.749359	1216.771429
3329.822310	1232.219048
3330.893654	1242.580952
3331.966308	1250.828571
3333.035895	1245.590476
3334.106793	1229.933333
3335.176084	1220.942857
3336.246686	1215.047619
3337.315681	1212.257143
3338.383070	1213.838095
3339.448854	1197.933333
3340.518864	1207.695238
3341.585811	1216.171429
3342.649696	1219.590476
3343.716349	1234.142857
3344.781398	1237.800000
3345.844843	1228.276190
3346.908141	1230.561905
3347.971294	1221.580952
3349.034300	1205.933333
3350.097159	1200.809524
3351.158417	1192.752381
3352.216618	1188.400000
3353.279040	1194.209524
3354.338405	1198.580952
3355.397626	1208.466667
3356.458155	1221.780952
3357.514175	1237.019048
3358.572960	1226.790476
3359.627237	1229.714286
3360.684278	1228.561905
3361.739720	1232.180952
3362.796471	1229.428571
3363.851625	1221.409524
3364.905181	1207.333333
3365.957140	1208.085714
3367.011861	1210.438095
3368.063534	1216.857143
3369.115062	1213.876190
3370.167900	1208.504762
3371.217690	1211.752381
3372.268789	1211.476190
3373.316841	1204.885714
3374.367654	1204.990476
3375.415421	1188.190476
3376.463046	1195.219048
3377.510529	1198.047619
3378.556418	1201.904762
3379.603617	1192.704762
3380.647772	1192.828571
3381.694686	1183.952381
3382.740008	1197.847619
3383.782290	1205.361905
3384.824430	1204.466667
3385.867879	1194.257143
3386.911186	1183.219048
3387.952903	1172.838095
3388.994479	1172.400000
3390.035915	1182.066667
3391.075762	1189.457143
3392.114020	1192.561905
3393.153586	1187.542857
3394.193012	1182.904762
3395.230850	1179.819048
3396.267101	1186.047619
3397.303212	1186.561905
3398.340631	1173.447619
3399.375017	1165.580952
3400.410711	1161.828571
3401.446265	1157.876190
3402.478787	1155.952381
3403.514063	1154.352381
3404.546308	1161.409524
3405.578415	1167.247619
3406.608938	1168.409524
3407.640769	1159.152381
3408.672461	1154.038095
3409.701125	1157.066667
3410.729651	1163.371429
3411.759485	1166.876190
3412.789180	1163.638095
3413.815850	1157.866667
3414.843827	1153.790476
3415.868779	1160.038095
3416.896481	1160.580952
3417.921160	1160.009524
3418.947145	1155.466667
3419.971551	1156.904762
3420.995819	1147.371429
3422.018509	1155.657143
3423.041063	1154.457143
3424.064923	1139.333333
3425.085763	1129.447619
3426.106468	1129.104762
3427.128478	1135.657143
3428.147470	1141.723810
3429.166327	1138.295238
3430.186489	1133.738095
3431.203635	1131.585714
