-165.748255	-11.871429
-163.078655	5.866667
-160.411990	8.123810
-157.746077	1.866667
-155.083096	-6.561905
-152.418686	0.571429
-149.757206	4.304762
-147.094296	9.342857
-144.436494	10.057143
-141.777261	14.733333
-139.118777	12.590476
-136.463218	24.038095
-133.806230	17.542857
-131.154339	11.247619
-128.501019	-4.066667
-125.850619	1.571429
-123.198789	4.580952
-120.552050	5.847619
-117.903881	1.171429
-115.256456	-0.057143
-112.611944	-8.866667
-109.966004	-0.380952
-107.325145	4.552381
-104.682856	11.295238
-102.043477	13.219048
-99.402669	18.733333
-96.762601	17.419048
-94.127605	12.733333
-91.491180	9.485714
-88.857659	19.533333
-86.222709	23.485714
-83.592824	32.609524
-80.959346	34.276190
-78.330932	27.628571
-75.703250	25.895238
-73.074141	37.580952
-70.450088	45.266667
-67.822446	60.019048
-65.199857	62.666667
-62.577999	27.409524
-59.956873	-123.695238
-57.336476	-18.266667
-54.718967	2541.380952
-52.100030	8502.038095
-49.483979	13933.390476
-46.868656	14794.990476
-44.254060	11162.742857
-41.642346	4842.209524
-39.029205	42.276190
-36.421097	-773.923810
-33.809407	-17.190476
-31.202748	43.266667
-28.594661	35.495238
-25.987298	30.523810
-23.384960	27.371429
-20.779044	24.095238
-18.178150	22.542857
-15.575827	19.047619
-12.978523	17.428571
-10.377643	20.628571
-7.781777	17.123810
-5.184484	28.495238
-2.587910	30.209524
0.003655	31.285714
2.596648	24.276190
5.186780	18.961905
7.778340	4.057143
10.367040	10.304762
12.957168	5.904762
15.542296	12.695238
18.128852	14.752381
20.714693	22.047619
23.297681	18.142857
25.882096	17.895238
28.459381	18.866667
31.040233	19.990476
33.618236	17.361905
36.195529	15.904762
38.774248	5.580952
41.347986	0.809524
43.923150	2.190476
46.495471	0.590476
49.067085	-2.323810
51.635858	9.285714
54.206058	13.485714
56.773419	22.704762
59.342207	20.638095
61.908157	20.228571
64.471273	19.838095
67.037945	29.104762
69.595396	35.114286
72.158532	48.628571
74.716709	59.457143
77.278439	85.866667
79.835214	132.723810
82.393414	206.561905
84.946662	305.028571
87.499211	438.028571
90.055312	602.171429
92.606464	779.866667
95.156918	947.019048
97.706676	1093.838095
100.253614	1189.942857
102.799856	1242.619048
105.347525	1278.752381
107.894497	1289.657143
110.436533	1274.457143
112.977876	1265.800000
115.518527	1254.095238
118.060602	1240.619048
120.599867	1228.466667
123.136322	1231.561905
125.672087	1223.952381
128.209277	1206.190476
130.745775	1194.847619
133.279468	1183.542857
135.810358	1155.047619
138.340559	1152.371429
140.872185	1138.342857
143.401010	1138.304762
145.927036	1152.809524
148.452377	1166.809524
150.979142	1163.657143
153.503111	1163.142857
156.026394	1145.009524
158.548993	1161.914286
161.068799	1180.571429
163.587922	1197.628571
166.106362	1205.209524
168.626226	1200.123810
171.139089	1197.257143
173.655483	1226.419048
176.171195	1254.800000
178.682018	1301.419048
181.194265	1327.428571
183.703729	1331.142857
186.212515	1336.295238
188.720623	1347.866667
191.230154	1352.304762
193.734806	1366.161905
196.238781	1365.104762
198.744180	1356.219048
201.244704	1363.619048
203.748751	1373.485714
206.245828	1383.866667
208.746427	1388.609524
211.244255	1385.552381
213.741410	1370.400000
216.237892	1371.333333
218.729512	1371.104762
221.224650	1385.390476
223.717023	1402.914286
226.208725	1411.952381
228.697664	1425.523810
231.188026	1438.180952
233.675627	1453.142857
236.160468	1460.171429
238.648823	1472.961905
241.130239	1481.238095
243.615169	1506.504762
246.095254	1545.752381
248.578851	1616.904762
251.057605	1668.152381
253.537783	1714.152381
256.015209	1720.409524
258.491970	1701.285714
260.968069	1655.628571
263.441419	1618.676190
265.914107	1594.352381
268.386134	1593.685714
270.857500	1611.009524
273.326122	1616.780952
275.794084	1596.380952
278.263469	1552.866667
280.728031	1506.504762
283.196096	1460.504762
285.659342	1433.819048
288.121931	1418.704762
290.583862	1419.123810
293.045137	1424.161905
295.503678	1433.695238
297.963641	1414.000000
300.420872	1387.761905
302.877448	1393.123810
305.333369	1391.438095
307.786562	1378.961905
310.241176	1370.552381
312.690990	1346.895238
315.144299	1326.885714
317.592809	1335.000000
320.040669	1335.466667
322.489950	1323.228571
324.934438	1308.276190
327.380348	1289.980952
329.825609	1270.409524
332.268151	1270.990476
334.710045	1272.409524
337.151291	1272.723810
339.589822	1263.638095
342.029775	1258.666667
344.467014	1266.409524
346.901541	1268.219048
349.339556	1265.695238
351.772794	1263.590476
354.207454	1258.514286
356.637340	1260.104762
359.070712	1259.933333
361.499314	1256.142857
363.927275	1255.714286
366.356656	1259.104762
368.781272	1265.085714
371.207310	1268.038095
373.632707	1244.076190
376.057465	1247.133333
378.477463	1246.171429
380.898883	1247.971429
383.317606	1260.742857
385.737750	1265.085714
388.155199	1259.666667
390.574068	1262.438095
392.990244	1237.257143
395.401673	1219.200000
397.816578	1205.704762
400.228793	1197.447619
402.640374	1187.047619
405.051321	1167.266667
407.459582	1139.476190
409.867210	1118.819048
412.274207	1107.066667
414.680571	1123.866667
417.084253	1134.980952
419.487305	1150.800000
421.889727	1161.838095
424.291520	1178.466667
426.690634	1189.980952
429.091168	1217.752381
431.491073	1244.228571
433.886255	1280.685714
436.284904	1302.542857
438.678833	1368.580952
441.072136	1437.180952
443.464813	1506.466667
445.856865	1570.419048
448.250336	1667.333333
450.639094	1803.190476
453.025186	2035.628571
455.412698	2391.885714
457.799586	2918.142857
460.183811	3856.371429
462.569455	5927.647619
464.952436	11449.000000
467.332757	21878.133333
469.714497	33813.361905
472.093578	40740.885714
474.474078	38628.085714
476.851920	28700.619048
479.227107	16738.819048
481.601676	8585.085714
483.977664	5236.847619
486.350998	4172.695238
488.725751	3516.676190
491.095817	3021.961905
493.465268	2662.400000
495.836138	2393.057143
498.202326	2158.161905
500.569933	1969.704762
502.934894	1820.761905
505.299242	1714.514286
507.662978	1644.190476
510.028131	1586.409524
512.388611	1518.361905
514.750510	1480.552381
517.109769	1421.752381
519.466389	1382.952381
521.826455	1343.161905
524.179829	1311.323810
526.536648	1267.971429
528.890831	1249.285714
531.244407	1214.980952
533.597374	1195.200000
535.947710	1177.523810
538.299462	1167.219048
540.644538	1157.590476
542.995078	1159.295238
545.338945	1146.904762
547.688272	1141.247619
550.032952	1146.828571
552.375007	1151.009524
554.718479	1152.009524
557.059327	1153.142857
559.399574	1137.361905
561.737200	1136.057143
564.078261	1139.238095
566.414685	1145.933333
568.752525	1136.980952
571.087747	1135.190476
573.420354	1121.238095
575.754378	1114.514286
578.085787	1095.590476
580.416598	1077.276190
582.746811	1052.761905
585.076426	1048.990476
587.401419	1044.276190
589.731853	1046.000000
592.057665	1054.447619
594.380871	1045.228571
596.705492	1036.200000
599.027509	1040.638095
601.348931	1037.209524
603.667750	1030.171429
605.987985	1020.666667
608.307627	1012.095238
610.624668	1017.800000
612.941118	1034.400000
615.254969	1047.923810
617.570235	1053.190476
619.882905	1043.876190
622.196990	1053.752381
624.506475	1050.923810
626.817376	1052.895238
629.125684	1057.447619
631.433404	1050.790476
633.742539	1027.942857
636.047081	1016.933333
638.351037	994.009524
640.654406	985.895238
642.959190	982.123810
645.259388	978.828571
647.561001	970.866667
649.862028	962.352381
652.158473	953.009524
654.456334	946.361905
656.753611	927.380952
659.050305	919.961905
661.342423	909.457143
663.637952	901.800000
665.928908	914.190476
668.221278	922.409524
670.511072	916.580952
672.800287	918.409524
675.088921	908.095238
677.374984	924.114286
679.662460	940.476190
681.947366	944.180952
684.231693	929.504762
686.513452	916.428571
688.796626	900.247619
691.079221	906.742857
693.357262	918.790476
695.636716	924.409524
697.915595	929.809524
700.193898	927.000000
702.467652	919.000000
704.742820	914.590476
707.017414	924.933333
709.289449	927.990476
711.562896	943.114286
713.833786	933.552381
716.102120	930.019048
718.371868	935.571429
720.639060	950.400000
722.905682	966.761905
725.171735	981.438095
727.435236	975.066667
729.700149	967.590476
731.964493	970.647619
734.224308	975.676190
736.485536	985.847619
738.746196	987.323810
741.004309	973.000000
743.259878	975.295238
745.518838	987.942857
747.771299	988.457143
750.029127	997.838095
752.282435	991.142857
754.533204	977.857143
756.785385	988.314286
759.035028	990.580952
761.286082	993.780952
763.532625	1002.742857
765.780581	997.666667
768.026001	1000.961905
770.272833	996.561905
772.519104	1000.600000
774.760871	1000.552381
777.006020	990.276190
779.244697	975.457143
781.486757	979.123810
783.724318	975.409524
785.963290	982.533333
788.199736	974.580952
790.437594	961.390476
792.672926	953.980952
794.905734	961.028571
797.139954	967.533333
799.371652	966.933333
801.602795	964.780952
803.833383	973.314286
806.063417	981.638095
808.292896	994.323810
810.517894	999.733333
812.746267	996.400000
814.970161	980.571429
817.195465	987.933333
819.416294	993.190476
821.640495	1000.123810
823.860223	1003.666667
826.081362	1005.457143
828.301950	992.190476
830.520028	991.514286
832.739517	986.847619
834.954539	985.523810
837.169013	993.590476
839.382940	992.447619
841.596319	974.000000
843.809152	965.276190
846.021437	961.533333
848.231221	978.238095
850.440459	997.009524
852.649151	1007.066667
854.855345	997.580952
857.062948	1001.533333
859.268054	993.695238
861.472616	994.085714
863.674682	991.466667
865.878158	998.685714
868.079141	1000.295238
870.279581	1022.895238
872.481430	1047.923810
874.676887	1095.895238
876.875704	1165.933333
879.070083	1245.304762
881.267818	1356.304762
883.461119	1481.380952
885.655827	1629.104762
887.848050	1790.180952
890.039735	1949.752381
892.230882	2052.400000
894.419546	2133.580952
896.607673	2135.809524
898.793320	2109.695238
900.982319	2090.000000
903.166895	2084.676190
905.350936	2095.733333
907.538327	2118.761905
909.717415	2122.266667
911.899852	2114.657143
914.081756	2127.742857
916.261186	2139.180952
918.438143	2154.180952
920.616508	2157.428571
922.796279	2178.447619
924.969702	2188.180952
927.146471	2209.809524
929.318834	2211.628571
931.492603	2196.257143
933.661969	2165.228571
935.834680	2131.104762
938.004924	2061.819048
940.174640	1959.685714
942.343827	1832.295238
944.508617	1692.295238
946.676748	1578.152381
948.840485	1488.866667
951.005628	1423.914286
953.168313	1375.952381
955.330471	1336.685714
957.490173	1296.400000
959.649351	1278.047619
961.809935	1261.542857
963.968064	1246.247619
966.125669	1227.838095
968.282751	1206.161905
970.439310	1180.076190
972.591489	1165.352381
974.745074	1155.800000
976.898138	1133.790476
979.048754	1113.666667
981.200775	1091.419048
983.348423	1070.514286
985.499403	1063.161905
987.646012	1070.866667
989.792103	1056.542857
991.937674	1046.942857
994.084651	1020.542857
996.225340	1010.295238
998.369357	992.152381
1000.510934	992.457143
1002.651995	987.400000
1004.794460	983.923810
1006.930646	978.323810
1009.070158	980.904762
1011.205314	977.047619
1013.343795	977.666667
1015.477923	978.428571
1017.611536	975.285714
1019.746555	968.714286
1021.877224	962.142857
1024.009298	962.571429
1026.138943	955.885714
1028.268076	956.819048
1030.396697	951.876190
1032.524807	945.780952
1034.650492	930.104762
1036.775665	923.933333
1038.902243	918.495238
1041.024484	927.771429
1043.148128	926.447619
1045.267439	916.657143
1047.391978	904.076190
1049.510272	909.028571
1051.629971	923.514286
1053.747251	933.200000
1055.864025	946.371429
1057.980292	929.657143
1060.094144	919.790476
1062.209399	917.314286
1064.320332	916.476190
1066.434576	909.085714
1068.544500	914.333333
1070.655828	901.971429
1072.766652	902.761905
1074.873159	903.800000
1076.982975	906.914286
1079.088477	903.628571
1081.195382	902.704762
1083.296072	890.266667
1085.401974	893.695238
1087.503567	890.885714
1089.606563	891.133333
1091.709058	881.514286
1093.805347	890.066667
1095.906842	882.447619
1098.004035	887.323810
1100.100729	894.095238
1102.196926	881.276190
1104.292624	866.295238
1106.387825	866.714286
1108.480629	862.561905
1110.574835	871.742857
1112.662850	895.695238
1114.756063	886.152381
1116.843088	885.876190
1118.933413	877.933333
1121.019449	870.285714
1123.108783	884.285714
1125.191936	899.247619
1127.276492	893.447619
1129.362448	899.733333
1131.444123	884.609524
1133.527200	876.180952
1135.607891	882.571429
1137.688090	879.971429
1139.767798	878.714286
1141.847015	876.190476
1143.923850	871.552381
1145.998304	878.276190
1148.076050	878.361905
1150.149525	876.685714
1152.224401	882.400000
1154.295010	869.095238
1156.367021	859.533333
1158.436655	862.276190
1160.507690	861.619048
1162.578237	864.380952
1164.644523	878.419048
1166.712210	876.400000
1168.777525	874.304762
1170.844240	876.476190
1172.906699	867.361905
1174.972443	864.647619
1177.033934	864.933333
1179.096824	861.800000
1181.157347	851.266667
1183.217387	862.847619
1185.276943	871.857143
1187.334134	881.257143
1189.390844	887.628571
1191.445191	889.885714
1193.502818	876.219048
1195.558083	883.247619
1197.609107	882.228571
1199.661531	870.866667
1201.713476	870.838095
1203.763061	870.714286
1205.812169	876.819048
1207.860797	881.628571
1209.908947	888.476190
1211.956619	887.180952
1214.000060	884.485714
1216.046776	868.685714
1218.091140	866.685714
1220.135026	876.914286
1222.176562	883.476190
1224.215748	889.923810
1226.258206	889.561905
1228.296442	887.533333
1230.336077	892.733333
1232.375237	897.628571
1234.410179	884.104762
1236.446519	877.609524
1238.480514	870.933333
1240.515908	871.600000
1242.547088	875.876190
1244.579667	889.295238
1246.611773	903.847619
1248.641539	904.276190
1250.672703	913.619048
1252.699659	909.400000
1254.728013	898.647619
1256.752163	900.971429
1258.779577	904.409524
1260.802790	887.238095
1262.827399	896.428571
1264.849675	890.104762
1266.873348	886.285714
1268.894688	888.971429
1270.915560	891.209524
1272.935966	880.114286
1274.952177	886.342857
1276.969787	877.247619
1278.985068	876.085714
1281.003608	883.142857
1283.017958	889.904762
1285.029983	892.866667
1287.045265	895.571429
1289.056363	879.961905
1291.068856	870.619048
1293.077167	872.247619
1295.088734	871.209524
1297.094261	880.161905
1299.103044	889.104762
1301.107649	881.714286
1303.115508	880.771429
1305.122905	888.647619
1307.124271	886.761905
1309.127034	881.790476
1311.129336	890.695238
1313.131179	879.076190
1315.132563	870.409524
1317.131632	873.580952
1319.130243	879.380952
1321.128396	867.866667
1323.126091	878.057143
1325.119622	869.276190
1327.114550	868.171429
1329.109021	870.323810
1331.103035	877.047619
1333.094742	861.257143
1335.085993	856.847619
1337.074939	844.809524
1339.065280	855.428571
1341.055166	860.780952
1343.042749	875.285714
1345.029878	870.676190
1347.014705	865.457143
1349.000927	858.476190
1350.984848	871.476190
1352.968317	874.523810
1354.951334	885.161905
1356.932053	883.247619
1358.914166	883.714286
1360.893982	892.276190
1362.873348	904.047619
1364.848575	901.990476
1366.827040	895.038095
1368.803212	888.180952
1370.778934	892.942857
1372.754207	900.057143
1374.727189	905.038095
1376.699723	894.876190
1378.671810	890.857143
1380.643448	890.504762
1382.610959	900.352381
1384.583543	908.123810
1386.548321	915.095238
1388.518172	903.000000
1390.483898	897.657143
1392.451018	888.428571
1394.415853	891.361905
1396.376570	899.809524
1398.342354	908.123810
1400.302183	912.571429
1402.263405	908.285714
1404.226020	901.019048
1406.184520	896.561905
1408.142578	885.590476
1410.100193	881.990476
1412.057367	888.876190
1414.012265	879.590476
1415.968555	886.390476
1417.922571	892.066667
1419.876147	892.485714
1421.827450	888.219048
1423.780145	887.295238
1425.730569	883.352381
1427.680554	888.352381
1429.630099	896.561905
1431.577376	887.200000
1433.522386	871.866667
1435.468788	862.209524
1437.414752	866.104762
1439.360278	870.419048
1441.303540	880.161905
1443.246365	869.914286
1445.186927	858.657143
1447.128880	853.066667
1449.068572	856.247619
1451.007828	861.133333
1452.946650	874.828571
1454.883211	880.809524
1456.821164	879.647619
1458.756859	878.038095
1460.692120	876.133333
1462.625124	867.828571
1464.557696	872.066667
1466.489836	875.361905
1468.421544	876.380952
1470.350998	874.057143
1472.281843	871.238095
1474.212257	868.285714
1476.138598	868.361905
1478.066329	876.847619
1479.991810	885.180952
1481.916862	874.342857
1483.841485	871.028571
1485.765679	872.609524
1487.687626	880.019048
1489.610962	885.438095
1491.532053	894.133333
1493.450899	884.514286
1495.371135	893.695238
1497.289127	894.180952
1499.206693	903.895238
1501.122017	900.238095
1503.038731	899.314286
1504.951390	903.438095
1506.867253	913.485714
1508.780876	905.990476
1510.692262	900.676190
1512.605036	893.380952
1514.513761	886.304762
1516.423876	887.600000
1518.333567	881.457143
1520.242834	871.800000
1522.149868	870.295238
1524.054669	864.800000
1525.960859	869.580952
1527.864817	867.295238
1529.768355	873.666667
1531.671471	888.295238
1533.572359	893.152381
1535.474634	876.819048
1537.374682	868.780952
1539.276118	863.571429
1541.173519	872.476190
1543.070502	878.619048
1544.967067	881.580952
1546.865020	876.590476
1548.757138	867.961905
1550.652449	877.609524
1552.547343	875.933333
1554.440015	880.923810
1556.332271	896.190476
1558.222307	892.466667
1560.111927	877.819048
1562.001132	868.333333
1563.889921	865.142857
1565.776494	871.457143
1567.664453	878.933333
1569.548396	877.952381
1571.433727	879.523810
1573.318643	869.514286
1575.201347	869.809524
1577.085436	861.209524
1578.965515	852.628571
1580.846980	859.542857
1582.726235	862.638095
1584.606876	857.038095
1586.481713	849.752381
1588.361532	855.466667
1590.237345	851.980952
1592.112749	868.885714
1593.989538	867.028571
1595.860530	856.200000
1597.734704	854.628571
1599.604880	866.742857
1601.478236	866.847619
1603.349389	875.114286
1605.218340	867.314286
1607.088677	864.780952
1608.955020	863.200000
1610.822749	853.209524
1612.688280	834.590476
1614.555195	818.371429
1616.418122	822.152381
1618.282434	840.238095
1620.144550	838.419048
1622.006262	837.180952
1623.869358	829.285714
1625.730260	824.771429
1627.588968	832.009524
1629.447273	836.180952
1631.306963	827.961905
1633.160886	831.933333
1635.017981	827.361905
1636.874674	822.542857
1638.727391	821.809524
1640.583279	824.780952
1642.435192	826.676190
1644.286705	820.828571
1646.137818	805.209524
1647.988529	812.085714
1649.838840	815.980952
1651.686967	824.028571
1653.536477	832.447619
1655.380239	816.180952
1657.228951	807.047619
1659.071916	812.314286
1660.918047	816.685714
1662.760217	812.495238
1664.605551	814.638095
1666.445145	801.933333
1668.286123	802.285714
1670.128484	805.676190
1671.966889	809.142857
1673.806677	802.533333
1675.644290	797.495238
1677.481507	799.647619
1679.316551	808.533333
1681.152978	817.076190
1682.987233	816.980952
1684.821093	811.666667
1686.654560	798.914286
1688.484080	796.095238
1690.316759	786.000000
1692.145494	785.200000
1693.977387	791.590476
1695.805337	789.761905
1697.632895	789.580952
1699.460061	791.676190
1701.286836	786.495238
1703.113220	790.571429
1704.935667	789.361905
1706.761268	785.095238
1708.582935	779.038095
1710.405984	775.704762
1712.226872	768.895238
1714.047370	773.295238
1715.869250	770.114286
1717.685430	772.485714
1719.504762	773.133333
1721.320167	780.000000
1723.138722	796.904762
1724.953353	810.085714
1726.767596	808.514286
1728.581452	797.438095
1730.394922	789.961905
1732.206239	782.000000
1734.018937	785.885714
1735.831248	783.285714
1737.639642	782.523810
1739.449417	778.200000
1741.255276	795.733333
1743.064282	797.409524
1744.869374	796.876190
1746.675846	785.495238
1748.481935	774.533333
1750.284114	766.152381
1752.089436	774.076190
1753.890850	773.076190
1755.693644	783.047619
1757.492532	777.933333
1759.292801	779.028571
1761.092688	795.961905
1762.890434	798.504762
1764.687799	797.809524
1766.484783	791.590476
1768.281387	766.780952
1770.075852	750.914286
1771.871696	766.647619
1773.661886	773.657143
1775.456972	789.476190
1777.246405	789.619048
1779.038975	781.971429
1780.829410	778.114286
1782.617711	766.580952
1784.409147	765.161905
1786.194937	765.019048
1787.982107	771.057143
1789.767145	776.819048
1791.555317	790.761905
1793.339603	786.333333
1795.121760	786.542857
1796.905295	778.104762
1798.686702	782.285714
1800.469488	776.742857
1802.248394	782.104762
1804.028678	787.047619
1805.806836	788.438095
1807.586373	778.923810
1809.363785	787.819048
1811.139073	787.152381
1812.915740	783.590476
1814.690284	774.161905
1816.466205	768.657143
1818.236507	763.990476
1820.009936	775.523810
1821.781245	781.952381
1823.552183	779.295238
1825.324498	777.190476
1827.091201	775.628571
1828.861028	780.533333
1830.626992	779.352381
1832.396080	782.914286
1834.161306	786.514286
1835.926164	784.904762
1837.692398	778.114286
1839.454774	764.619048
1841.216783	757.019048
1842.978425	751.409524
1844.739699	754.961905
1846.500606	763.314286
1848.261147	774.704762
1850.019578	771.361905
1851.777644	769.171429
1853.533601	747.923810
1855.290936	744.104762
1857.047904	753.466667
1858.802767	767.142857
1860.555524	767.923810
1862.307918	755.923810
1864.061687	740.333333
1865.813353	741.666667
1867.562917	740.742857
1869.313857	748.609524
1871.064433	747.685714
1872.811171	740.447619
1874.559284	746.961905
1876.305298	756.295238
1878.052688	763.723810
1879.797979	766.752381
1881.541173	757.695238
1883.285743	752.085714
1885.028216	751.647619
1886.770329	750.485714
1888.512082	759.333333
1890.253476	767.771429
1891.992776	767.847619
1893.731717	773.009524
1895.470299	776.204762
1897.206789	783.942857
1898.942922	784.242857
1900.680429	783.942857
1902.414115	768.719048
1904.149174	759.476190
1905.882146	743.904762
1907.614761	746.133333
1909.347019	745.333333
1911.078921	751.961905
1912.808737	762.980952
1914.536469	780.333333
1916.265574	774.552381
1917.994325	771.800000
1919.720992	766.561905
1921.447305	769.038095
1923.174991	776.571429
1924.897141	790.114286
1926.622392	788.352381
1928.343837	779.466667
1930.068381	762.619048
1931.790846	761.047619
1933.509507	773.247619
1935.231267	786.285714
1936.949225	786.704762
1938.668557	790.523810
1940.384088	770.361905
1942.104441	765.219048
1943.820994	768.409524
1945.533752	772.114286
1947.249605	761.961905
1948.963385	773.152381
1950.676816	768.523810
1952.388176	777.580952
1954.100909	785.200000
1955.809850	786.561905
1957.521885	775.980952
1959.228410	780.819048
1960.938028	786.047619
1962.645578	795.428571
1964.352781	797.219048
1966.057918	797.742857
1967.762708	791.095238
1969.468870	799.314286
1971.171250	801.914286
1972.875002	801.028571
1974.576690	786.342857
1976.278034	779.857143
1977.979032	774.209524
1979.677970	798.142857
1981.378278	809.047619
1983.074812	820.580952
1984.772717	805.600000
1986.468564	784.714286
1988.167495	762.219048
1989.860941	762.352381
1991.555759	760.314286
1993.250233	775.304762
1994.940939	779.942857
1996.634729	782.485714
1998.324752	775.200000
2000.016146	775.647619
2001.705487	771.885714
2003.396198	768.771429
2005.083147	766.980952
2006.769755	766.847619
2008.457734	762.323810
2010.141953	765.104762
2011.827542	759.257143
2013.512792	758.085714
2015.195994	767.352381
2016.880565	775.200000
2018.559674	766.733333
2020.243568	755.200000
2021.922002	751.895238
2023.603512	761.485714
2025.281272	776.380952
2026.958694	787.657143
2028.637487	775.619048
2030.314236	758.047619
2031.988944	757.380952
2033.665021	752.695238
2035.339058	754.200000
2037.012759	763.104762
2038.686125	764.980952
2040.357453	772.133333
2042.028446	774.914286
2043.699105	769.504762
2045.369430	764.371429
2047.039420	762.361905
2048.707375	749.990476
2050.374997	749.447619
2052.040585	750.666667
2053.707541	762.352381
2055.372464	765.542857
2057.037054	776.885714
2058.699613	772.257143
2060.363540	779.676190
2062.025437	780.038095
2063.687002	779.047619
2065.348237	764.914286
2067.007442	767.104762
2068.666318	771.800000
2070.324863	788.095238
2071.983079	792.190476
2073.637571	786.914286
2075.295128	787.828571
2076.952356	782.114286
2078.605863	782.266667
2080.260737	772.152381
2081.911892	754.961905
2083.566109	757.247619
2085.216610	773.323810
2086.868477	785.333333
2088.514936	788.228571
2090.166150	767.666667
2091.813650	754.990476
2093.462517	764.838095
2095.109366	768.171429
2096.755888	783.952381
2098.402085	777.380952
2100.044574	768.876190
2101.690121	774.419048
2103.331961	776.257143
2104.976858	771.076190
2106.618050	781.438095
2108.258918	778.628571
2109.899463	786.800000
2111.537995	784.628571
2113.177893	783.685714
2114.814091	777.276190
2116.451655	778.828571
2118.088896	771.647619
2119.724128	768.952381
2121.359039	761.438095
2122.993628	771.200000
2124.627895	771.457143
2126.258470	774.409524
2127.892095	763.809524
2129.522029	759.038095
2131.153328	758.904762
2132.782623	777.047619
2134.411597	786.066667
2136.040253	783.914286
2137.668589	760.676190
2139.294922	753.457143
2140.920937	747.590476
2142.544951	760.323810
2144.170329	780.066667
2145.793708	786.285714
2147.418450	773.819048
2149.039512	765.219048
2150.660257	758.666667
2152.282367	762.971429
2153.902479	767.676190
2155.520595	773.114286
2157.138395	773.771429
2158.755879	772.457143
2160.373048	765.952381
2161.989902	772.180952
2163.606441	772.095238
2165.220986	771.514286
2166.833539	770.400000
2168.447457	763.628571
2170.059382	752.495238
2171.672671	751.838095
2173.283970	749.990476
2174.893279	752.333333
2176.503952	754.171429
2178.112636	754.990476
2179.721008	743.028571
2181.327392	750.990476
2182.935140	742.942857
2184.540901	749.028571
2186.146351	759.428571
2187.749817	766.114286
2189.354645	751.942857
2190.957489	768.552381
2192.558350	758.571429
2194.160574	760.009524
2195.760815	759.619048
2197.362419	758.533333
2198.960371	754.114286
2200.559685	765.876190
2202.157019	767.876190
2203.754045	771.752381
2205.352432	776.295238
2206.947171	783.733333
2208.539934	791.028571
2210.134058	793.390476
2211.729544	780.523810
2213.321386	765.809524
2214.912921	750.428571
2216.505817	737.247619
2218.093404	732.771429
2219.685688	731.514286
2221.272664	728.933333
2222.862669	737.733333
2224.447369	741.771429
2226.036763	729.800000
2227.620854	727.600000
2229.206307	719.961905
2230.789791	719.885714
2232.376300	722.542857
2233.959176	727.609524
2235.541748	732.304762
2237.124017	726.676190
2238.702657	729.780952
2240.284320	738.428571
2241.862355	738.738095
2243.443414	735.342857
2245.020845	742.242857
2246.596313	720.171429
2248.174802	716.671429
2249.749668	714.400000
2251.324233	716.523810
2252.898498	712.295238
2254.472462	716.885714
2256.046126	709.533333
2257.619489	709.200000
2259.189234	718.028571
2260.758680	720.971429
2262.331145	708.190476
2263.898334	718.352381
2265.468542	714.980952
2267.035135	722.533333
2268.603088	725.571429
2270.169086	719.704762
2271.734785	711.200000
2273.300188	722.942857
2274.863637	730.609524
2276.428444	750.704762
2277.989644	762.466667
2279.553858	772.542857
2281.112811	774.676190
2282.674777	763.428571
2284.234793	747.266667
2285.794513	741.647619
2287.352284	734.419048
2288.909761	730.580952
2290.466942	728.952381
2292.022177	723.142857
2293.577117	719.580952
2295.131764	731.923810
2296.686117	731.923810
2298.240176	724.276190
2299.793942	705.266667
2301.345763	702.276190
2302.895641	694.476190
2304.448527	710.066667
2305.996171	710.247619
2307.546822	711.228571
2309.093883	702.219048
2310.642301	713.076190
2312.190427	705.276190
2313.734966	712.285714
2315.280862	706.447619
2316.824819	711.047619
2318.370134	715.409524
2319.911864	721.495238
2321.454952	711.657143
2322.996103	709.247619
2324.536965	702.028571
2326.077538	700.923810
2327.617822	697.209524
2329.157817	690.428571
2330.694233	682.838095
2332.233651	685.276190
2333.769492	689.438095
2335.306689	696.400000
2336.840312	699.552381
2338.376934	699.876190
2339.911625	700.600000
2341.444387	705.600000
2342.976863	706.723810
2344.507410	698.285714
2346.040955	692.733333
2347.569289	689.561905
2349.098979	692.419048
2350.628384	706.942857
2352.157503	710.761905
2353.686338	700.447619
2355.209968	700.380952
2356.738233	691.809524
2358.261295	692.038095
2359.788991	697.695238
2361.309848	694.323810
2362.835338	698.885714
2364.357267	704.447619
2365.880552	702.133333
2367.401916	711.504762
2368.921360	712.923810
2370.442159	699.228571
2371.961039	711.057143
2373.479637	703.971429
2374.996318	705.676190
2376.514354	713.000000
2378.032107	710.514286
2379.546310	709.171429
2381.060232	729.304762
2382.573875	719.123810
2384.088871	713.628571
2385.600319	705.942857
2387.113122	702.552381
2388.624012	701.342857
2390.134622	719.533333
2391.643321	719.228571
2393.155007	709.590476
2394.663149	703.580952
2396.171012	701.466667
2397.678598	688.200000
2399.182643	697.019048
2400.689674	698.923810
2402.194796	704.790476
2403.699641	704.619048
2405.202579	697.352381
2406.705240	693.028571
2408.207625	693.123810
2409.708105	687.161905
2411.209938	686.228571
2412.709867	677.495238
2414.209520	675.971429
2415.708898	688.914286
2417.206372	698.980952
2418.701946	694.771429
2420.200499	685.304762
2421.695523	668.895238
2423.191901	672.323810
2424.684752	681.609524
2426.178955	679.095238
2427.672885	690.695238
2429.163292	701.295238
2430.656675	688.971429
2432.148161	687.866667
2433.637750	676.733333
2435.127067	657.780952
2436.614489	669.276190
2438.104886	670.933333
2439.591764	672.276190
2441.079994	683.009524
2442.564708	685.390476
2444.049151	686.066667
2445.534946	697.514286
2447.018848	688.057143
2448.504102	684.609524
2449.984222	676.542857
2451.467314	667.657143
2452.948516	662.571429
2454.429449	667.952381
2455.908493	667.333333
2457.387269	674.666667
2458.865776	669.523810
2460.344014	667.190476
2461.821984	665.600000
2463.296450	665.400000
2464.773884	667.219048
2466.247815	678.066667
2467.723097	675.733333
2469.198111	675.066667
2470.669624	680.552381
2472.142488	682.914286
2473.613468	680.104762
2475.085799	679.180952
2476.553017	671.285714
2478.023200	669.495238
2479.491503	673.419048
2480.959541	662.123810
2482.427314	654.295238
2483.894822	656.361905
2485.362065	660.828571
2486.825816	669.447619
2488.290918	674.828571
2489.754141	670.971429
2491.218715	676.895238
2492.679799	683.742857
2494.142233	677.266667
2495.604404	674.161905
2497.063089	674.742857
2498.526346	676.961905
2499.984506	696.571429
2501.444015	707.485714
2502.898431	703.066667
2504.357416	702.819048
2505.814530	698.419048
2507.269773	680.647619
2508.724755	678.228571
2510.177867	680.419048
2511.632328	673.600000
2513.084920	677.219048
2514.537252	682.828571
2515.987716	675.952381
2517.441136	670.676190
2518.889474	670.619048
2520.340768	667.238095
2521.790195	677.000000
2523.236151	689.457143
2524.685061	690.533333
2526.130500	688.190476
2527.577288	678.809524
2529.022212	670.171429
2530.466879	670.361905
2531.912893	676.476190
2533.355440	675.238095
2534.799335	677.295238
2536.239765	672.171429
2537.681543	665.457143
2539.121460	662.876190
2540.562725	658.600000
2542.000529	663.009524
2543.441282	670.295238
2544.876972	664.552381
2546.315612	662.704762
2547.752395	660.219048
2549.187321	661.638095
2550.625196	669.123810
2552.058013	676.838095
2553.492176	683.542857
2554.924486	677.590476
2556.358142	664.457143
2557.789945	654.876190
2559.221495	646.666667
2560.652791	646.257143
2562.082236	656.723810
2563.511428	654.742857
2564.938769	641.771429
2566.367457	642.314286
2567.795892	651.352381
2569.220881	651.257143
2570.647215	653.847619
2572.071701	655.257143
2573.497533	638.047619
2574.919921	648.171429
2576.343655	653.171429
2577.765543	649.495238
2579.187180	645.828571
2580.606972	636.961905
2582.028110	624.685714
2583.448998	640.361905
2584.866448	644.476190
2586.286837	649.066667
2587.703789	657.828571
2589.120493	655.876190
2590.536948	662.028571
2591.953155	669.066667
2593.369113	657.390476
2594.783231	646.942857
2596.197102	637.323810
2597.609133	641.847619
2599.022509	647.295238
2600.432455	649.495238
2601.845337	644.866667
2603.254790	634.200000
2604.663997	630.428571
2606.071368	639.133333
2607.481673	647.514286
2608.890142	654.657143
2610.296776	651.885714
2611.703165	649.438095
2613.107720	655.457143
2614.513619	654.009524
2615.917685	652.942857
2617.321507	648.180952
2618.725084	644.361905
2620.126829	650.495238
2621.529918	647.380952
2622.929590	652.066667
2624.330604	653.590476
2625.728203	654.200000
2627.128732	658.676190
2628.525846	662.771429
2629.924303	652.085714
2631.320932	646.200000
2632.717319	636.638095
2634.113465	634.647619
2635.507784	640.057143
2636.903446	650.161905
2638.295698	653.180952
2639.689294	650.523810
2641.081065	641.723810
2642.474178	633.095238
2643.865468	625.409524
2645.254935	621.447619
2646.644163	620.857143
2648.033150	630.600000
2649.423480	638.619048
2650.808825	631.676190
2652.197094	633.047619
2653.583543	627.676190
2654.969754	629.552381
2656.355725	627.380952
2657.738298	620.590476
2659.122212	617.552381
2660.505889	624.552381
2661.889328	622.085714
2663.269371	628.133333
2664.650756	622.685714
2666.030325	616.714286
2667.411236	621.514286
2668.790332	637.733333
2670.167613	634.533333
2671.546236	634.571429
2672.923046	622.685714
2674.299620	611.133333
2675.675958	610.685714
2677.050484	625.285714
2678.426351	617.923810
2679.798831	617.304762
2681.174228	615.495238
2682.544663	613.380952
2683.916440	618.228571
2685.287983	623.438095
2686.657717	623.600000
2688.028791	619.352381
2689.398058	620.390476
2690.767091	621.647619
2692.134317	626.761905
2693.501311	623.552381
2694.868072	619.000000
2696.234600	607.961905
2697.599323	605.695238
2698.963815	608.190476
2700.328074	616.495238
2701.692102	625.590476
2703.055897	629.076190
2704.416319	635.304762
2705.779652	626.200000
2707.138042	609.723810
2708.499342	602.895238
2709.857271	599.609524
2711.218110	597.419048
2712.577148	606.638095
2713.932818	596.247619
2715.291396	607.142857
2716.646608	615.695238
2718.001590	606.361905
2719.354775	621.514286
2720.710867	623.914286
2722.063595	617.019048
2723.416094	627.752381
2724.768365	625.914286
2726.121975	607.333333
2727.472223	610.019048
2728.820678	596.295238
2730.172037	594.352381
2731.520037	595.323810
2732.869376	603.161905
2734.216922	596.352381
2735.564241	588.733333
2736.911334	591.257143
2738.256636	587.580952
2739.601712	582.152381
2740.946562	578.771429
2742.291185	568.619048
2743.632457	578.266667
2744.975067	598.828571
2746.317452	598.419048
2747.659611	596.990476
2748.998421	597.961905
2750.340130	596.542857
2751.678492	597.142857
2753.018191	596.980952
2754.356104	584.200000
2755.692233	583.495238
2757.028139	588.980952
2758.365381	591.333333
2759.700840	594.133333
2761.036076	591.323810
2762.369530	593.657143
2763.704320	602.666667
2765.035769	610.219048
2766.370114	605.161905
2767.699561	613.942857
2769.030345	597.514286
2770.360907	592.761905
2771.689690	588.790476
2773.019810	592.619048
2774.348150	588.038095
2775.676270	595.904762
2777.002613	594.590476
2778.330291	599.180952
2779.654637	594.847619
2780.980318	593.952381
2782.304224	588.314286
2783.627911	582.104762
2784.952933	580.676190
2786.274626	586.238095
2787.596099	581.285714
2788.917354	584.152381
2790.238390	579.295238
2791.557654	581.209524
2792.878253	574.304762
2794.197080	577.876190
2795.515689	574.609524
2796.832528	579.800000
2798.149149	571.047619
2799.465552	576.752381
2800.780187	564.104762
2802.096156	552.809524
2803.408805	554.342857
2804.722790	569.295238
2806.036558	577.190476
2807.350109	583.952381
2808.661893	570.161905
2809.971912	552.533333
2811.283264	549.266667
2812.591302	558.790476
2813.900675	570.533333
2815.209832	583.876190
2816.518774	588.400000
2817.825953	591.600000
2819.131368	583.838095
2820.438118	578.676190
2821.743105	573.657143
2823.047879	572.342857
2824.350891	574.047619
2825.656785	577.066667
2826.957823	575.838095
2828.260196	576.590476
2829.560809	585.600000
2830.862756	587.142857
2832.164490	589.361905
2833.462920	581.942857
2834.762683	566.819048
2836.060688	573.161905
2837.358482	587.476190
2838.654520	594.838095
2839.951891	597.676190
2841.247506	587.019048
2842.542910	567.009524
2843.838104	565.400000
2845.129999	569.342857
2846.424771	575.419048
2847.716246	579.314286
2849.009055	581.695238
2850.301652	582.723810
2851.590956	575.314286
2852.881592	575.619048
2854.170477	575.952381
2855.460695	584.104762
2856.747621	585.847619
2858.035879	577.790476
2859.322387	559.657143
2860.608688	541.838095
2861.894780	536.447619
2863.179124	557.885714
2864.466340	572.228571
2865.748729	574.009524
2867.032449	572.371429
2868.314424	569.600000
2869.596192	570.580952
2870.876214	587.295238
2872.159106	593.295238
2873.440253	579.371429
2874.718118	568.190476
2875.998852	562.333333
2877.276305	546.876190
2878.553553	554.961905
2879.829058	570.180952
2881.107431	577.047619
2882.380989	588.819048
2883.657415	589.819048
2884.932100	584.752381
2886.205045	574.980952
2887.479320	563.295238
2888.751856	561.171429
2890.024188	560.190476
2891.293247	562.380952
2892.565170	567.104762
2893.835356	566.019048
2895.105339	563.542857
2896.375118	559.238095
2897.643160	549.476190
2898.909467	552.028571
2900.175571	543.914286
2901.443005	556.390476
2902.708705	572.085714
2903.974202	569.895238
2905.239497	558.428571
2906.501527	562.714286
2907.764888	559.914286
2909.028047	559.295238
2910.289473	561.123810
2911.552229	545.676190
2912.813254	538.800000
2914.072548	551.800000
2915.331641	556.666667
2916.590534	552.114286
2917.849227	554.266667
2919.107720	540.952381
2920.364484	543.809524
2921.621048	547.942857
2922.875885	551.666667
2924.132051	550.476190
2925.384961	556.990476
2926.639201	560.714286
2927.893242	560.723810
2929.145557	554.000000
2930.397674	563.171429
2931.648066	559.790476
2932.901313	552.904762
2934.149783	542.647619
2935.401107	533.742857
2936.649183	528.142857
2937.897061	530.190476
2939.144742	534.219048
2940.392227	531.933333
2941.637990	519.038095
2942.883556	521.038095
2944.130451	522.400000
2945.374100	520.285714
2946.619078	524.000000
2947.860813	522.580952
2949.105399	523.180952
2950.348265	534.190476
2951.587891	540.228571
2952.830368	538.333333
2954.069604	539.485714
2955.310168	536.942857
2956.549015	533.333333
2957.787668	528.790476
2959.024605	522.628571
2960.262869	520.038095
2961.499419	521.495238
2962.735774	528.800000
2963.971937	529.085714
2965.206385	521.857143
2966.440640	518.514286
2967.674702	528.485714
2968.907052	522.523810
2970.137690	524.790476
2971.371174	522.428571
2972.602946	514.819048
2973.833008	513.000000
2975.062878	528.819048
2976.291038	533.276190
2977.520524	539.114286
2978.748302	538.904762
2979.975888	536.895238
2981.204800	536.419048
2982.428970	537.238095
2983.655983	536.390476
2984.879773	529.504762
2986.104888	524.676190
2987.328297	517.819048
2988.551517	511.714286
2989.773031	510.200000
2990.997386	511.714286
2992.217006	509.685714
2993.437951	512.419048
2994.658708	515.390476
2995.877761	512.400000
2997.098140	517.200000
2998.315302	512.038095
2999.533789	505.638095
3000.750575	501.314286
3001.967172	507.390476
3003.183582	507.942857
3004.396778	502.809524
3005.612812	496.847619
3006.825634	489.380952
3008.041293	487.952381
3009.252229	498.304762
3010.464490	505.457143
3011.676565	504.619048
3012.888453	494.219048
3014.098643	480.085714
3015.308648	474.971429
3016.518466	475.380952
3017.726588	478.085714
3018.934524	476.733333
3020.140766	469.147619
3021.348331	470.952381
3022.554203	487.128571
3023.759889	498.400000
3024.965390	505.766667
3026.169199	506.933333
3027.374331	501.657143
3028.577770	502.580952
3029.779517	509.200000
3030.981081	503.104762
3032.182461	495.895238
3033.383657	493.104762
3034.583163	484.704762
3035.782485	484.419048
3036.983131	488.742857
3038.182088	485.076190
3039.377849	496.104762
3040.576440	506.561905
3041.771837	503.285714
3042.968557	492.409524
3044.162085	470.685714
3045.358442	464.047619
3046.553111	471.847619
3047.744590	485.361905
3048.940400	496.047619
3050.131517	499.876190
3051.323956	486.504762
3052.513208	486.695238
3053.705286	477.628571
3054.895680	469.428571
3056.082887	460.942857
3057.271418	458.790476
3058.461271	463.409524
3059.647939	479.780952
3060.834428	488.590476
3062.020737	491.923810
3063.208369	480.114286
3064.392818	482.209524
3065.575587	482.238095
3066.761180	478.590476
3067.945092	467.276190
3069.127326	460.200000
3070.309382	455.704762
3071.491259	471.838095
3072.672958	470.771429
3073.852979	465.657143
3075.031324	463.409524
3076.212490	462.933333
3077.390480	465.885714
3078.568293	472.733333
3079.745929	466.780952
3080.921890	475.695238
3082.097675	484.971429
3083.274780	492.447619
3084.450212	486.742857
3085.623969	471.704762
3086.796055	458.371429
3087.969461	449.895238
3089.142692	441.819048
3090.314250	451.114286
3091.487130	463.209524
3092.656842	471.419048
3093.827875	476.590476
3094.997237	480.352381
3096.164930	468.904762
3097.335438	460.971429
3098.501287	458.761905
3099.671446	449.828571
3100.836947	442.238095
3102.002275	452.628571
3103.167429	453.923810
3104.332409	459.276190
3105.498710	465.923810
3106.660357	469.038095
3107.823325	461.190476
3108.986119	456.552381
3110.148741	449.123810
3111.309698	447.733333
3112.470482	448.476190
3113.631094	440.380952
3114.790043	430.476190
3115.948819	434.466667
3117.107424	439.028571
3118.265857	444.161905
3119.424118	457.266667
3120.580717	446.638095
3121.735655	447.238095
3122.891912	446.752381
3124.046509	443.380952
3125.200934	437.790476
3126.353700	439.971429
3127.506296	437.914286
3128.658721	436.361905
3129.810977	435.371429
3130.963063	438.723810
3132.112002	442.647619
3133.263748	441.628571
3134.413837	442.580952
3135.562268	435.819048
3136.710531	435.523810
3137.858625	436.361905
3139.006549	433.838095
3140.152819	437.504762
3141.298920	434.209524
3142.443366	433.847619
3143.587645	444.876190
3144.731756	453.409524
3145.877185	460.247619
3147.019475	472.028571
3148.161597	466.542857
3149.303553	454.876190
3150.445341	453.038095
3151.586962	447.600000
3152.725447	441.800000
3153.865250	442.533333
3155.006371	442.857143
3156.144357	445.266667
3157.280694	449.800000
3158.416865	449.876190
3159.554354	441.314286
3160.690194	442.295238
3161.827350	445.200000
3162.959894	446.600000
3164.096720	437.819048
3165.228934	430.971429
3166.362466	423.057143
3167.495832	422.295238
3168.626071	429.647619
3169.759108	435.676190
3170.889019	435.933333
3172.020247	441.361905
3173.148349	438.914286
3174.279248	432.152381
3175.408504	430.504762
3176.536115	432.809524
3177.660605	432.590476
3178.789370	434.523810
3179.915013	430.257143
3181.040493	423.828571
3182.164332	427.180952
3183.290965	426.238095
3184.413001	426.076190
3185.536353	431.276190
3186.659543	429.352381
3187.782571	427.209524
3188.903959	429.361905
3190.025186	419.428571
3191.144774	419.704762
3192.264201	418.800000
3193.381990	413.847619
3194.502572	412.447619
3195.620039	422.295238
3196.737347	423.847619
3197.854493	424.733333
3198.970004	424.752381
3200.086830	423.304762
3201.200545	420.485714
3202.317051	434.485714
3203.431921	422.628571
3204.543683	417.609524
3205.655286	415.276190
3206.768203	417.752381
3207.880962	415.809524
3208.990614	420.657143
3210.101581	408.723810
3211.212389	419.904762
3212.321565	415.838095
3213.429110	422.133333
3214.537970	408.247619
3215.646671	408.276190
3216.752270	427.361905
3217.859184	451.800000
3218.964468	454.628571
3220.071066	446.895238
3221.174564	417.219048
3222.279376	400.980952
3223.384031	405.295238
3224.485587	411.333333
3225.586988	410.095238
3226.689702	411.152381
3227.792259	411.266667
3228.891721	412.752381
3229.993965	419.838095
3231.093115	425.285714
3232.190639	413.304762
3233.288008	409.104762
3234.388160	401.085714
3235.485218	406.961905
3236.582121	412.152381
3237.678870	413.228571
3238.771059	409.752381
3239.867498	405.247619
3240.962314	405.419048
3242.056975	403.180952
3243.150015	394.866667
3244.242901	393.409524
3245.334166	391.590476
3246.426744	395.047619
3247.517701	400.076190
3248.607040	391.057143
3249.696225	393.000000
3250.786722	397.638095
3251.874135	400.104762
3252.961396	397.295238
3254.049969	385.161905
3255.138389	386.695238
3256.222262	390.857143
3257.310377	398.533333
3258.395411	396.028571
3259.478829	384.238095
3260.563558	382.361905
3261.646673	387.257143
3262.731099	390.295238
3263.812447	397.504762
3264.895107	386.819048
3265.976153	384.619048
3267.057048	384.952381
3268.136330	386.609524
3269.215461	390.238095
3270.295903	393.885714
3271.373272	388.266667
3272.451952	384.733333
3273.529020	383.476190
3274.605938	398.409524
3275.681245	401.923810
3276.756403	396.038095
3277.832873	388.342857
3278.906271	378.561905
3279.979521	371.123810
3281.054082	375.323810
3282.127033	369.638095
3283.198377	369.733333
3284.271031	376.838095
3285.340618	379.352381
3286.411516	376.171429
3287.480807	368.142857
3288.551409	356.323810
3289.620404	357.076190
3290.687793	358.114286
3291.753577	355.514286
3292.823587	364.819048
3293.890534	369.876190
3294.954419	366.076190
3296.021072	379.800000
3297.086121	384.390476
3298.149566	379.771429
3299.212864	377.952381
3300.276017	377.028571
3301.339023	361.647619
3302.401882	367.828571
3303.463140	365.600000
3304.521341	366.171429
3305.583763	376.638095
3306.643128	383.685714
3307.702348	381.133333
3308.762878	380.371429
3309.818898	369.047619
3310.877683	362.723810
3311.931960	366.019048
3312.989000	365.828571
3314.044443	364.676190
3315.101194	362.780952
3316.156348	359.704762
3317.209904	356.323810
3318.261863	356.828571
3319.316584	362.342857
3320.368256	364.876190
3321.419785	363.742857
3322.472623	367.352381
3323.522413	366.628571
3324.573511	360.790476
3325.621564	361.771429
3326.672377	360.800000
3327.720144	359.619048
3328.767769	368.752381
3329.815252	374.780952
3330.861141	361.666667
3331.908339	364.676190
3332.952495	359.457143
3333.999409	356.742857
3335.044731	360.657143
3336.087013	361.647619
3337.129153	353.361905
3338.172602	353.742857
3339.215909	354.904762
3340.257626	359.638095
3341.299202	361.304762
3342.340638	366.838095
3343.380484	356.228571
3344.418743	356.980952
3345.458309	361.866667
3346.497734	357.933333
3347.535573	357.695238
3348.571824	357.647619
3349.607935	350.495238
3350.645354	352.666667
3351.679740	343.914286
3352.715433	331.457143
3353.750987	334.523810
3354.783510	338.904762
3355.818786	349.952381
3356.851031	354.685714
3357.883138	351.638095
3358.913661	343.971429
3359.945492	352.676190
3360.977183	363.971429
3362.005848	362.190476
3363.034374	364.666667
3364.064208	362.914286
3365.093903	351.085714
3366.120573	351.771429
3367.148550	347.285714
3368.173502	339.828571
3369.201204	345.885714
3370.225883	353.380952
3371.251868	355.257143
3372.276273	349.685714
3373.300542	336.638095
3374.323232	338.552381
3375.345786	341.257143
3376.369646	347.476190
3377.390486	354.904762
3378.411191	347.600000
3379.433201	337.142857
3380.452193	328.714286
3381.471050	315.576190
3382.491212	315.990476
3383.508358	341.123810
