-118.052978	10.328571
-115.383377	8.552381
-112.716712	5.738095
-110.050800	3.152381
-107.387819	2.304762
-104.723409	8.600000
-102.061929	9.095238
-99.399019	15.714286
-96.741217	13.704762
-94.081984	12.676190
-91.423500	4.619048
-88.767941	2.266667
-86.110953	-2.857143
-83.459062	-4.304762
-80.805742	-9.800000
-78.155342	1.276190
-75.503512	5.980952
-72.856773	11.914286
-70.208604	19.209524
-67.561179	12.676190
-64.916667	5.990476
-62.270727	7.342857
-59.629868	4.314286
-56.987579	9.761905
-54.348200	17.952381
-51.707392	11.961905
-49.067323	8.304762
-46.432328	1.485714
-43.795903	-0.276190
-41.162382	5.104762
-38.527432	21.361905
-35.897547	30.266667
-33.264069	29.314286
-30.635654	25.704762
-28.007973	26.590476
-25.378864	33.495238
-22.754811	47.638095
-20.127169	65.257143
-17.504580	67.838095
-14.882722	35.295238
-12.261595	-49.600000
-9.641199	94.295238
-7.023690	2469.761905
-4.404753	8633.600000
-1.788702	15500.523810
0.826621	17311.523810
3.441217	13877.457143
6.052931	6925.285714
8.666072	746.876190
11.274180	-1100.695238
13.885870	-91.123810
16.492529	41.066667
19.100616	45.942857
21.707979	48.028571
24.310317	42.561905
26.916233	38.990476
29.517128	24.847619
32.119450	13.933333
34.716754	8.266667
37.317634	8.952381
39.913500	8.371429
42.510793	28.209524
45.107367	31.685714
47.698932	27.257143
50.291925	18.133333
52.882057	11.847619
55.473617	-0.733333
58.062317	8.828571
60.652445	4.533333
63.237573	2.190476
65.824129	-4.619048
68.409970	2.914286
70.992958	3.980952
73.577373	8.742857
76.154658	12.971429
78.735510	14.923810
81.313513	6.266667
83.890806	6.438095
86.469525	2.238095
89.043263	-7.752381
91.618427	-3.209524
94.190748	-6.276190
96.762362	-5.495238
99.331135	-0.019048
101.901335	7.295238
104.468696	15.533333
107.037484	21.933333
109.603434	14.295238
112.166550	15.123810
114.733223	17.742857
117.290673	21.266667
119.853809	38.390476
122.411986	46.619048
124.973716	57.714286
127.530491	86.790476
130.088691	124.676190
132.641939	196.790476
135.194488	303.266667
137.750589	418.561905
140.301741	528.780952
142.852195	637.704762
145.401953	704.057143
147.948891	754.380952
150.495133	791.657143
153.042802	813.504762
155.589774	814.904762
158.131810	813.428571
160.673153	795.085714
163.213804	783.942857
165.755879	776.028571
168.295144	769.733333
170.831599	768.952381
173.367364	758.561905
175.904554	748.771429
178.441052	749.304762
180.974745	739.114286
183.505635	726.257143
186.035836	720.780952
188.567462	715.942857
191.096287	718.247619
193.622314	726.276190
196.147654	735.361905
198.674419	738.714286
201.198388	728.161905
203.721671	724.428571
206.244270	726.009524
208.764076	737.685714
211.283199	751.323810
213.801639	763.609524
216.321503	763.352381
218.834366	772.304762
221.350760	790.504762
223.866472	823.647619
226.377295	849.695238
228.889542	873.209524
231.399006	875.933333
233.907792	876.419048
236.415900	892.800000
238.925432	901.857143
241.430083	898.409524
243.934058	888.380952
246.439457	881.990476
248.939981	884.457143
251.444028	911.361905
253.941105	927.714286
256.441704	922.609524
258.939532	913.723810
261.436687	916.666667
263.933169	911.533333
266.424789	918.000000
268.919927	927.971429
271.412300	925.361905
273.904002	930.895238
276.392941	948.057143
278.883303	952.742857
281.370904	968.190476
283.855745	977.266667
286.344100	990.609524
288.825516	1014.695238
291.310447	1044.238095
293.790531	1076.542857
296.274128	1117.285714
298.752883	1147.247619
301.233060	1167.904762
303.710486	1165.276190
306.187248	1138.885714
308.663346	1118.152381
311.136696	1081.790476
313.609385	1062.923810
316.081411	1073.123810
318.552777	1092.019048
321.021399	1103.380952
323.489361	1107.676190
325.958746	1065.390476
328.423308	1016.104762
330.891373	977.152381
333.354619	956.114286
335.817208	939.409524
338.279139	938.952381
340.740414	930.666667
343.198955	928.990476
345.658918	919.219048
348.116149	911.314286
350.572725	911.352381
353.028646	902.733333
355.481839	890.619048
357.936454	892.419048
360.386267	881.885714
362.839576	882.352381
365.288086	884.914286
367.735946	875.247619
370.185227	864.361905
372.629715	855.800000
375.075625	847.942857
377.520886	856.504762
379.963428	855.561905
382.405322	847.571429
384.846568	832.733333
387.285099	817.971429
389.725052	816.847619
392.162291	814.019048
394.596818	818.400000
397.034833	813.038095
399.468071	815.942857
401.902731	823.685714
404.332617	829.809524
406.765990	822.057143
409.194591	821.209524
411.622552	817.571429
414.051933	818.047619
416.476550	812.485714
418.902587	806.971429
421.327985	792.628571
423.752742	794.085714
426.172740	795.485714
428.594160	801.723810
431.012883	824.209524
433.433027	831.285714
435.850476	821.447619
438.269345	810.266667
440.685521	793.085714
443.096950	769.447619
445.511855	774.704762
447.924070	758.561905
450.335651	738.485714
452.746598	724.609524
455.154859	711.161905
457.562488	693.914286
459.969484	694.409524
462.375848	701.200000
464.779531	705.276190
467.182583	722.047619
469.585005	733.742857
471.986797	751.304762
474.385911	757.847619
476.786445	778.476190
479.186350	793.152381
481.581532	827.533333
483.980181	862.666667
486.374110	902.733333
488.767413	934.228571
491.160090	986.361905
493.552142	1035.104762
495.945613	1110.171429
498.334371	1216.028571
500.720463	1376.066667
503.107975	1637.180952
505.494863	2058.761905
507.879088	2784.704762
510.264732	4457.961905
512.647713	9060.114286
515.028034	17694.876190
517.409774	27583.904762
519.788855	33291.009524
522.169355	31481.390476
524.547197	23215.780952
526.922384	13338.723810
529.296953	6601.323810
531.672941	3867.095238
534.046275	3017.876190
536.421028	2507.038095
538.791094	2115.619048
541.160545	1819.942857
543.531415	1613.390476
545.897603	1444.152381
548.265210	1303.200000
550.630171	1189.523810
552.994519	1113.247619
555.358255	1034.219048
557.723408	993.114286
560.083889	948.800000
562.445787	908.019048
564.805046	869.780952
567.161666	848.019048
569.521732	811.552381
571.875106	790.380952
574.231925	760.104762
576.586109	739.647619
578.939684	710.142857
581.292651	692.542857
583.642987	684.009524
585.994739	679.114286
588.339815	667.933333
590.690355	664.047619
593.034222	660.190476
595.383549	661.685714
597.728229	670.657143
600.070284	672.723810
602.413756	664.733333
604.754604	661.457143
607.094851	662.019048
609.432477	663.876190
611.773538	674.914286
614.109962	681.590476
616.447802	681.400000
618.783024	674.914286
621.115631	659.009524
623.449655	637.514286
625.781064	615.142857
628.111875	600.647619
630.442088	593.104762
632.771703	587.695238
635.096696	582.695238
637.427130	580.209524
639.752942	572.142857
642.076148	563.657143
644.400770	562.171429
646.722786	565.123810
649.044208	568.123810
651.363027	576.514286
653.683262	574.200000
656.002904	572.190476
658.319945	573.323810
660.636395	571.695238
662.950246	576.419048
665.265512	577.323810
667.578182	568.180952
669.892267	568.171429
672.201753	559.809524
674.512653	546.647619
676.820961	551.761905
679.128681	555.238095
681.437816	549.333333
683.742358	545.161905
686.046314	531.447619
688.349683	510.571429
690.654467	502.266667
692.954665	496.219048
695.256278	490.085714
697.557305	482.390476
699.853751	480.342857
702.151611	472.533333
704.448888	474.133333
706.745582	462.142857
709.037700	454.628571
711.333229	436.561905
713.624185	439.704762
715.916555	443.219048
718.206349	456.266667
720.495564	455.847619
722.784198	464.076190
725.070261	460.561905
727.357737	455.257143
729.642643	451.390476
731.926970	445.095238
734.208730	436.504762
736.491903	443.266667
738.774499	451.295238
741.052539	456.371429
743.331993	458.371429
745.610872	464.514286
747.889175	468.676190
750.162929	456.476190
752.438097	445.152381
754.712691	448.228571
756.984726	448.257143
759.258174	457.171429
761.529064	475.761905
763.797397	468.047619
766.067145	468.685714
768.334337	473.695238
770.600959	473.800000
772.867012	471.971429
775.130513	482.752381
777.395426	486.942857
779.659771	496.685714
781.919585	497.666667
784.180813	495.076190
786.441473	500.095238
788.699586	498.980952
790.955155	495.800000
793.214115	490.819048
795.466576	483.742857
797.724404	488.819048
799.977713	498.171429
802.228481	517.019048
804.480662	524.666667
806.730305	530.200000
808.981359	521.571429
811.227902	523.457143
813.475858	519.114286
815.721278	532.371429
817.968110	534.933333
820.214381	530.495238
822.456148	520.190476
824.701297	518.809524
826.939974	509.400000
829.182034	508.066667
831.419595	516.409524
833.658567	513.371429
835.895013	511.742857
838.132871	508.285714
840.368203	497.819048
842.601011	492.819048
844.835231	494.219048
847.066929	491.571429
849.298072	487.857143
851.528660	490.647619
853.758694	492.695238
855.988173	496.333333
858.213172	490.580952
860.441544	486.542857
862.665438	485.533333
864.890742	492.895238
867.111571	497.352381
869.335772	500.161905
871.555500	494.780952
873.776639	500.752381
875.997227	503.847619
878.215306	507.952381
880.434794	509.780952
882.649816	502.142857
884.864290	500.542857
887.078217	500.657143
889.291596	489.390476
891.504429	488.066667
893.716714	492.819048
895.926498	495.428571
898.135736	502.152381
900.344428	495.361905
902.550622	495.228571
904.758225	506.438095
906.963331	509.161905
909.167893	518.609524
911.369959	521.228571
913.573435	522.066667
915.774418	533.066667
917.974858	552.895238
920.176707	556.942857
922.372164	584.657143
924.570981	626.800000
926.765360	675.495238
928.963096	763.685714
931.156396	862.866667
933.351104	994.390476
935.543327	1135.142857
937.735012	1253.828571
939.926159	1340.647619
942.114823	1397.276190
944.302950	1399.828571
946.488597	1410.057143
948.677596	1398.333333
950.862172	1375.047619
953.046213	1388.666667
955.233604	1392.342857
957.412692	1402.619048
959.595129	1409.580952
961.777033	1410.447619
963.956463	1418.619048
966.133420	1434.161905
968.311785	1444.828571
970.491556	1447.514286
972.664979	1447.666667
974.841748	1440.247619
977.014111	1444.619048
979.187880	1443.038095
981.357247	1437.761905
983.529957	1411.666667
985.700201	1352.723810
987.869917	1257.038095
990.039104	1143.742857
992.203894	1029.885714
994.372025	924.923810
996.535762	855.800000
998.700905	801.400000
1000.863590	779.447619
1003.025749	767.695238
1005.185450	760.980952
1007.344628	745.647619
1009.505212	725.323810
1011.663341	697.933333
1013.820946	660.657143
1015.978028	638.600000
1018.134587	624.057143
1020.286766	620.523810
1022.440352	611.361905
1024.593415	595.933333
1026.744031	569.447619
1028.896052	554.438095
1031.043700	529.333333
1033.194680	523.771429
1035.341289	519.104762
1037.487380	514.104762
1039.632952	518.723810
1041.779928	520.600000
1043.920617	512.171429
1046.064634	509.580952
1048.206211	503.209524
1050.347272	491.142857
1052.489737	496.209524
1054.625923	498.876190
1056.765435	496.466667
1058.900591	488.447619
1061.039072	487.580952
1063.173200	477.990476
1065.306814	483.628571
1067.441832	485.114286
1069.572501	476.247619
1071.704576	462.628571
1073.834220	464.352381
1075.963353	454.742857
1078.091975	451.990476
1080.220085	459.380952
1082.345769	455.066667
1084.470943	453.142857
1086.597520	453.047619
1088.719761	447.066667
1090.843406	436.257143
1092.962716	440.371429
1095.087255	440.971429
1097.205550	441.400000
1099.325248	441.104762
1101.442528	442.742857
1103.559302	440.714286
1105.675569	438.038095
1107.789421	443.123810
1109.904676	438.352381
1112.015609	428.876190
1114.129853	422.361905
1116.239778	421.514286
1118.351105	413.295238
1120.461929	415.314286
1122.568436	409.380952
1124.678252	402.257143
1126.783754	392.352381
1128.890660	391.161905
1130.991349	390.609524
1133.097251	400.771429
1135.198844	400.828571
1137.301840	400.257143
1139.404335	389.676190
1141.500624	391.047619
1143.602119	391.800000
1145.699312	396.980952
1147.796006	395.723810
1149.892203	390.323810
1151.987901	388.085714
1154.083102	394.819048
1156.175906	396.523810
1158.270112	407.504762
1160.358127	411.495238
1162.451340	399.961905
1164.538365	402.561905
1166.628690	401.600000
1168.714726	394.466667
1170.804060	398.028571
1172.887213	398.742857
1174.971769	393.742857
1177.057725	396.038095
1179.139400	388.495238
1181.222477	387.523810
1183.303168	391.933333
1185.383367	390.438095
1187.463076	387.190476
1189.542292	384.771429
1191.619127	378.123810
1193.693581	375.961905
1195.771327	384.866667
1197.844802	376.085714
1199.919679	371.095238
1201.990288	371.523810
1204.062298	370.314286
1206.131932	369.961905
1208.202967	378.352381
1210.273514	377.257143
1212.339800	381.019048
1214.407487	376.323810
1216.472802	366.190476
1218.539517	368.504762
1220.601976	362.552381
1222.667720	354.438095
1224.729211	361.885714
1226.792101	365.085714
1228.852624	362.923810
1230.912664	369.704762
1232.972220	366.733333
1235.029412	371.000000
1237.086121	375.228571
1239.140468	373.295238
1241.198095	370.457143
1243.253360	364.542857
1245.304384	359.609524
1247.356808	367.828571
1249.408753	371.980952
1251.458338	374.666667
1253.507446	374.390476
1255.556074	369.714286
1257.604224	360.333333
1259.651896	358.400000
1261.695337	356.571429
1263.742053	362.542857
1265.786417	355.028571
1267.830303	361.114286
1269.871839	357.438095
1271.911025	360.695238
1273.953483	356.085714
1275.991720	363.619048
1278.031354	360.619048
1280.070514	371.628571
1282.105456	373.047619
1284.141796	373.771429
1286.175791	369.095238
1288.211185	362.314286
1290.242365	360.923810
1292.274944	362.142857
1294.307050	360.904762
1296.336816	362.000000
1298.367980	367.704762
1300.394936	367.514286
1302.423290	374.695238
1304.447440	375.009524
1306.474855	370.761905
1308.498067	364.504762
1310.522676	359.409524
1312.544952	356.933333
1314.568625	356.171429
1316.589965	351.142857
1318.610837	347.809524
1320.631243	348.000000
1322.647454	337.580952
1324.665064	342.180952
1326.680345	341.923810
1328.698885	354.971429
1330.713235	364.514286
1332.725260	374.990476
1334.740543	365.666667
1336.751640	359.323810
1338.764133	346.247619
1340.772444	350.419048
1342.784011	341.257143
1344.789539	341.419048
1346.798321	342.333333
1348.802927	337.828571
1350.810786	337.266667
1352.818182	352.390476
1354.819548	351.104762
1356.822311	351.285714
1358.824614	347.666667
1360.826456	340.276190
1362.827840	341.752381
1364.826909	354.904762
1366.825520	362.419048
1368.823673	365.942857
1370.821368	361.180952
1372.814899	351.361905
1374.809827	340.961905
1376.804298	335.914286
1378.798312	339.780952
1380.790019	346.133333
1382.781270	348.933333
1384.770216	351.428571
1386.760557	351.190476
1388.750443	352.876190
1390.738026	350.752381
1392.725155	352.600000
1394.709982	347.238095
1396.696204	346.447619
1398.680125	341.504762
1400.663594	341.685714
1402.646611	340.057143
1404.627330	347.885714
1406.609443	351.761905
1408.589259	358.371429
1410.568625	351.723810
1412.543852	357.780952
1414.522317	354.219048
1416.498489	352.952381
1418.474211	345.952381
1420.449484	343.561905
1422.422466	339.580952
1424.395001	342.495238
1426.367087	343.761905
1428.338725	356.990476
1430.306236	358.676190
1432.278820	357.400000
1434.243598	359.266667
1436.213449	355.247619
1438.179175	353.466667
1440.146295	363.895238
1442.111131	366.466667
1444.071847	362.990476
1446.037631	364.523810
1447.997460	359.819048
1449.958682	355.600000
1451.921297	359.752381
1453.879797	358.619048
1455.837855	366.428571
1457.795470	372.380952
1459.752644	374.171429
1461.707542	373.200000
1463.663832	372.971429
1465.617848	374.457143
1467.571424	377.428571
1469.522727	367.419048
1471.475422	357.000000
1473.425846	339.971429
1475.375831	336.657143
1477.325376	346.352381
1479.272653	348.866667
1481.217663	354.123810
1483.164065	356.828571
1485.110029	358.933333
1487.055555	363.914286
1488.998817	363.333333
1490.941642	349.457143
1492.882204	340.628571
1494.824157	345.104762
1496.763849	351.866667
1498.703105	343.980952
1500.641927	346.590476
1502.578489	345.466667
1504.516441	347.761905
1506.452136	358.638095
1508.387397	366.380952
1510.320401	350.695238
1512.252973	352.847619
1514.185113	354.647619
1516.116821	356.695238
1518.046275	350.409524
1519.977120	352.152381
1521.907534	348.504762
1523.833875	346.171429
1525.761606	352.828571
1527.687087	355.171429
1529.612139	342.066667
1531.536762	346.504762
1533.460956	352.057143
1535.382903	341.876190
1537.306239	343.133333
1539.227330	339.247619
1541.146176	336.600000
1543.066412	348.723810
1544.984404	357.323810
1546.901970	358.676190
1548.817294	354.247619
1550.734008	357.847619
1552.646667	360.657143
1554.562530	365.314286
1556.476154	363.438095
1558.387539	365.714286
1560.300313	362.466667
1562.209038	357.123810
1564.119153	346.828571
1566.028844	345.990476
1567.938111	341.714286
1569.845145	355.942857
1571.749946	362.876190
1573.656136	358.914286
1575.560094	350.761905
1577.463632	349.447619
1579.366748	345.152381
1581.267636	353.457143
1583.169911	352.028571
1585.069959	345.971429
1586.971395	347.609524
1588.868796	354.457143
1590.765780	355.666667
1592.662345	359.171429
1594.560297	355.895238
1596.452415	347.009524
1598.347727	349.561905
1600.242620	350.504762
1602.135292	348.304762
1604.027548	351.000000
1605.917584	343.504762
1607.807204	340.590476
1609.696409	343.114286
1611.585198	350.066667
1613.471771	352.361905
1615.359730	358.628571
1617.243674	349.914286
1619.129004	345.695238
1621.013920	344.000000
1622.896624	347.571429
1624.780713	345.561905
1626.660792	345.371429
1628.542257	337.723810
1630.421512	334.352381
1632.302153	340.771429
1634.176990	346.971429
1636.056809	344.457143
1637.932622	341.000000
1639.808026	343.580952
1641.684815	343.047619
1643.555807	341.990476
1645.429981	342.752381
1647.300157	336.247619
1649.173513	337.142857
1651.044666	356.219048
1652.913617	366.504762
1654.783954	363.780952
1656.650297	361.952381
1658.518026	343.304762
1660.383557	332.952381
1662.250472	329.057143
1664.113399	332.704762
1665.977711	331.019048
1667.839828	338.361905
1669.701539	339.704762
1671.564635	344.961905
1673.425537	352.038095
1675.284245	349.876190
1677.142550	345.085714
1679.002240	347.695238
1680.856163	342.333333
1682.713258	339.561905
1684.569951	341.952381
1686.422668	336.371429
1688.278556	344.676190
1690.130470	347.457143
1691.981982	339.361905
1693.833095	334.066667
1695.683806	336.495238
1697.534117	333.600000
1699.382244	337.171429
1701.231754	340.542857
1703.075516	341.704762
1704.924228	347.704762
1706.767193	343.695238
1708.613324	338.295238
1710.455494	332.876190
1712.300828	330.685714
1714.140422	336.542857
1715.981400	343.676190
1717.823761	337.257143
1719.662166	337.371429
1721.501954	337.723810
1723.339567	332.552381
1725.176784	330.933333
1727.011828	332.342857
1728.848255	338.152381
1730.682510	344.971429
1732.516371	353.019048
1734.349837	349.390476
1736.179357	339.828571
1738.012036	334.276190
1739.840771	334.638095
1741.672664	330.561905
1743.500614	320.742857
1745.328172	317.733333
1747.155339	312.609524
1748.982113	316.247619
1750.808497	319.733333
1752.630944	324.190476
1754.456545	328.333333
1756.278212	335.180952
1758.101261	334.257143
1759.922149	330.561905
1761.742647	322.761905
1763.564527	324.076190
1765.380707	331.933333
1767.200039	330.904762
1769.015444	328.104762
1770.833999	331.942857
1772.648630	331.447619
1774.462873	324.057143
1776.276730	321.476190
1778.090200	318.857143
1779.901516	315.428571
1781.714214	319.380952
1783.526525	324.019048
1785.334919	315.400000
1787.144694	309.447619
1788.950553	310.114286
1790.759559	307.247619
1792.564651	303.542857
1794.371123	308.723810
1796.177212	312.000000
1797.979391	318.171429
1799.784713	316.628571
1801.586127	317.514286
1803.388921	320.790476
1805.187810	321.552381
1806.988078	325.019048
1808.787966	329.771429
1810.585711	327.933333
1812.383076	318.990476
1814.180060	314.600000
1815.976664	308.571429
1817.771129	306.723810
1819.566974	312.485714
1821.357163	321.714286
1823.152249	327.971429
1824.941682	326.257143
1826.734253	321.028571
1828.524688	320.400000
1830.312988	314.276190
1832.104424	303.409524
1833.890214	308.238095
1835.677384	309.285714
1837.462422	305.285714
1839.250594	313.961905
1841.034880	315.828571
1842.817037	312.561905
1844.600572	315.066667
1846.381980	317.942857
1848.164765	313.619048
1849.943671	315.161905
1851.723955	312.971429
1853.502114	316.580952
1855.281650	323.828571
1857.059062	324.133333
1858.834350	320.771429
1860.611017	314.247619
1862.385561	310.019048
1864.161482	312.285714
1865.931784	316.619048
1867.705213	310.314286
1869.476522	303.685714
1871.247460	297.676190
1873.019775	297.085714
1874.786478	310.000000
1876.556305	321.714286
1878.322269	319.095238
1880.091357	321.676190
1881.856583	318.780952
1883.621441	322.371429
1885.387675	330.400000
1887.150051	326.742857
1888.912060	311.923810
1890.673702	303.114286
1892.434976	295.000000
1894.195884	306.866667
1895.956424	311.771429
1897.714855	310.619048
1899.472921	315.104762
1901.228879	312.619048
1902.986213	317.038095
1904.743181	324.571429
1906.498044	322.066667
1908.250801	312.761905
1910.003195	314.238095
1911.756964	309.028571
1913.508630	319.095238
1915.258194	319.000000
1917.009134	313.380952
1918.759710	307.247619
1920.506448	311.504762
1922.254561	318.066667
1924.000575	324.628571
1925.747965	319.038095
1927.493256	307.857143
1929.236450	296.304762
1930.981020	294.257143
1932.723493	299.580952
1934.465606	309.400000
1936.207359	315.514286
1937.948753	317.990476
1939.688053	313.238095
1941.426994	309.933333
1943.165576	307.338095
1944.902066	315.000000
1946.638199	323.290476
1948.375706	324.533333
1950.109392	328.166667
1951.844452	316.419048
1953.577423	308.980952
1955.310038	310.314286
1957.042296	320.219048
1958.774198	317.228571
1960.504014	316.885714
1962.231746	310.885714
1963.960851	309.466667
1965.689602	311.123810
1967.416269	314.942857
1969.142582	309.942857
1970.870268	301.200000
1972.592418	297.780952
1974.317670	301.990476
1976.039114	307.628571
1977.763658	312.114286
1979.486123	324.885714
1981.204784	332.142857
1982.926544	331.771429
1984.644502	331.400000
1986.363834	329.104762
1988.079365	315.361905
1989.799718	306.485714
1991.516271	303.647619
1993.229029	302.866667
1994.944882	303.057143
1996.658662	309.619048
1998.372093	312.809524
2000.083453	318.438095
2001.796186	320.971429
2003.505127	320.409524
2005.217162	315.342857
2006.923687	308.914286
2008.633305	316.733333
2010.340855	321.047619
2012.048058	317.276190
2013.753195	327.076190
2015.457985	325.600000
2017.164147	321.028571
2018.866527	333.628571
2020.570279	327.523810
2022.271968	310.409524
2023.973311	307.609524
2025.674309	297.809524
2027.373247	308.038095
2029.073556	327.885714
2030.770089	342.685714
2032.467994	340.809524
2034.163841	336.104762
2035.862773	319.971429
2037.556218	313.514286
2039.251036	309.990476
2040.945510	309.180952
2042.636216	319.009524
2044.330006	324.209524
2046.020029	316.885714
2047.711423	310.447619
2049.400764	319.552381
2051.091475	309.295238
2052.778424	305.819048
2054.465032	309.276190
2056.153011	307.285714
2057.837230	306.857143
2059.522819	319.409524
2061.208069	316.742857
2062.891271	309.571429
2064.575843	317.666667
2066.254951	316.247619
2067.938845	312.038095
2069.617279	315.371429
2071.298790	320.161905
2072.976549	318.190476
2074.653972	323.923810
2076.332764	319.571429
2078.009513	312.390476
2079.684221	311.752381
2081.360298	304.657143
2083.034335	311.352381
2084.708036	323.533333
2086.381402	323.447619
2088.052730	322.676190
2089.723723	316.200000
2091.394382	301.342857
2093.064707	306.685714
2094.734697	305.285714
2096.402652	307.780952
2098.070274	316.409524
2099.735862	311.485714
2101.402818	311.133333
2103.067741	312.123810
2104.732331	306.314286
2106.394890	311.695238
2108.058818	327.400000
2109.720714	325.457143
2111.382279	326.838095
2113.043514	317.400000
2114.702719	311.019048
2116.361595	312.847619
2118.020140	316.438095
2119.678356	320.819048
2121.332848	315.933333
2122.990406	307.333333
2124.647633	301.914286
2126.301140	301.590476
2127.956014	301.266667
2129.607169	310.171429
2131.261387	320.952381
2132.911887	325.590476
2134.563755	321.495238
2136.210214	315.600000
2137.861427	312.247619
2139.508927	311.019048
2141.157795	320.714286
2142.804643	318.552381
2144.451165	315.333333
2146.097362	318.428571
2147.739851	319.485714
2149.385398	319.247619
2151.027238	319.619048
2152.672135	320.152381
2154.313327	316.942857
2155.954195	317.790476
2157.594740	314.114286
2159.233272	306.695238
2160.873170	309.133333
2162.509368	313.819048
2164.146932	318.009524
2165.784174	316.057143
2167.419406	311.457143
2169.054316	308.371429
2170.688905	304.600000
2172.323173	306.314286
2173.953747	310.466667
2175.587372	316.314286
2177.217306	318.066667
2178.848605	317.438095
2180.477900	309.495238
2182.106874	306.333333
2183.735530	305.619048
2185.363866	304.285714
2186.990199	303.533333
2188.616214	307.609524
2190.240228	309.619048
2191.865607	316.523810
2193.488985	320.666667
2195.113728	315.895238
2196.734789	305.438095
2198.355535	304.876190
2199.977644	301.066667
2201.597756	309.047619
2203.215872	307.047619
2204.833672	303.133333
2206.451156	293.285714
2208.068325	290.180952
2209.685179	292.400000
2211.301718	301.571429
2212.916263	302.952381
2214.528816	292.657143
2216.142734	293.695238
2217.754659	293.838095
2219.367949	304.180952
2220.979247	315.276190
2222.588557	322.438095
2224.199229	313.447619
2225.807913	305.771429
2227.416285	287.704762
2229.022669	287.533333
2230.630417	292.038095
2232.236178	299.885714
2233.841628	315.400000
2235.445094	312.466667
2237.049922	299.047619
2238.652766	301.809524
2240.253627	300.228571
2241.855851	295.533333
2243.456092	305.961905
2245.057697	300.638095
2246.655648	297.057143
2248.254962	302.238095
2249.852296	303.923810
2251.449322	298.009524
2253.047709	293.085714
2254.642448	293.314286
2256.235211	302.161905
2257.829335	302.200000
2259.424821	299.352381
2261.016663	298.457143
2262.608198	294.095238
2264.201094	294.333333
2265.788681	297.266667
2267.380965	294.580952
2268.967941	292.733333
2270.557946	297.495238
2272.142646	301.342857
2273.732040	310.600000
2275.316131	313.885714
2276.901584	317.419048
2278.485068	313.952381
2280.071577	299.552381
2281.654453	292.009524
2283.237025	298.580952
2284.819295	293.752381
2286.397934	294.190476
2287.979597	297.076190
2289.557632	295.728571
2291.138691	296.247619
2292.716122	299.395238
2294.291590	290.952381
2295.870080	282.728571
2297.444945	282.809524
2299.019510	287.914286
2300.593775	292.114286
2302.167739	293.819048
2303.741403	289.095238
2305.314766	280.876190
2306.884511	280.619048
2308.453957	288.342857
2310.026422	294.304762
2311.593611	298.914286
2313.163819	301.685714
2314.730412	296.314286
2316.298365	289.323810
2317.864363	283.485714
2319.430063	275.809524
2320.995465	276.733333
2322.558914	286.571429
2324.123721	290.704762
2325.684921	311.028571
2327.249135	334.523810
2328.808088	348.761905
2330.370054	341.009524
2331.930070	326.552381
2333.489790	300.266667
2335.047561	296.342857
2336.605038	295.952381
2338.162219	303.933333
2339.717454	298.114286
2341.272394	293.038095
2342.827041	297.609524
2344.381394	304.790476
2345.935453	304.733333
2347.489219	302.076190
2349.041040	299.057143
2350.590918	290.095238
2352.143804	297.819048
2353.691448	293.333333
2355.242099	294.152381
2356.789160	289.266667
2358.337578	292.361905
2359.885704	280.323810
2361.430243	273.838095
2362.976139	262.504762
2364.520096	269.219048
2366.065411	282.552381
2367.607141	295.714286
2369.150229	292.104762
2370.691380	290.409524
2372.232242	287.295238
2373.772815	290.761905
2375.313099	295.438095
2376.853094	289.752381
2378.389510	278.495238
2379.928928	270.952381
2381.464769	268.000000
2383.001966	271.219048
2384.535589	279.809524
2386.072211	286.580952
2387.606902	293.295238
2389.139664	290.266667
2390.672140	286.676190
2392.202687	280.571429
2393.736232	282.942857
2395.264566	288.323810
2396.794256	289.809524
2398.323661	291.676190
2399.852781	277.295238
2401.381615	261.057143
2402.905245	266.780952
2404.433510	272.047619
2405.956572	282.523810
2407.484269	296.123810
2409.005125	293.666667
2410.530615	287.542857
2412.052544	289.914286
2413.575829	280.828571
2415.097193	280.580952
2416.616637	276.266667
2418.137436	275.476190
2419.656316	280.371429
2421.174914	285.304762
2422.691595	290.476190
2424.209631	291.514286
2425.727385	282.419048
2427.241587	289.619048
2428.755509	289.742857
2430.269152	294.980952
2431.784148	292.771429
2433.295596	281.342857
2434.808399	264.142857
2436.319289	271.552381
2437.829899	277.133333
2439.338598	283.457143
2440.850284	275.152381
2442.358426	274.104762
2443.866289	272.733333
2445.373875	277.590476
2446.877921	285.485714
2448.384951	285.276190
2449.890073	280.352381
2451.394918	278.428571
2452.897856	276.304762
2454.400517	269.466667
2455.902902	262.561905
2457.403382	262.676190
2458.905215	265.514286
2460.405144	267.419048
2461.904797	276.609524
2463.404175	276.266667
2464.901650	274.600000
2466.397223	273.361905
2467.895776	266.171429
2469.390800	264.009524
2470.887178	269.866667
2472.380029	275.152381
2473.874232	277.923810
2475.368162	279.952381
2476.858569	275.409524
2478.351953	274.009524
2479.843438	267.361905
2481.333027	263.809524
2482.822344	263.333333
2484.309766	264.666667
2485.800163	256.609524
2487.287041	263.809524
2488.775271	267.961905
2490.259985	270.152381
2491.744428	273.723810
2493.230223	274.980952
2494.714125	261.380952
2496.199379	258.190476
2497.679499	251.200000
2499.162591	253.428571
2500.643793	252.342857
2502.124726	257.609524
2503.603770	260.771429
2505.082546	253.066667
2506.561053	254.980952
2508.039291	259.371429
2509.517261	257.971429
2510.991727	253.790476
2512.469161	257.009524
2513.943092	258.657143
2515.418374	261.342857
2516.893388	264.342857
2518.364901	256.400000
2519.837765	250.085714
2521.308745	247.638095
2522.781076	249.952381
2524.248294	250.200000
2525.718478	254.800000
2527.186780	251.819048
2528.654818	256.133333
2530.122591	254.276190
2531.590099	261.371429
2533.057342	269.028571
2534.521094	264.171429
2535.986195	265.095238
2537.449419	260.904762
2538.913992	252.780952
2540.375076	250.800000
2541.837511	251.114286
2543.299682	244.209524
2544.758366	248.114286
2546.221623	249.647619
2547.679783	258.942857
2549.139292	269.380952
2550.593708	277.952381
2552.052694	274.200000
2553.509807	273.314286
2554.965050	268.076190
2556.420032	264.438095
2557.873144	268.447619
2559.327605	266.819048
2560.780197	262.133333
2562.232529	261.247619
2563.682993	260.228571
2565.136413	256.057143
2566.584751	259.580952
2568.036045	255.723810
2569.485472	250.380952
2570.931428	252.933333
2572.380338	251.809524
2573.825777	256.190476
2575.272565	258.161905
2576.717489	260.247619
2578.162156	263.590476
2579.608170	266.352381
2581.050717	260.514286
2582.494612	257.409524
2583.935042	250.028571
2585.376820	249.457143
2586.816738	253.333333
2588.258003	252.447619
2589.695806	254.342857
2591.136559	255.276190
2592.572249	250.123810
2594.010889	247.752381
2595.447672	250.123810
2596.882598	251.257143
2598.320473	250.971429
2599.753290	248.447619
2601.187454	247.628571
2602.619763	251.009524
2604.053419	257.447619
2605.485222	254.323810
2606.916772	251.714286
2608.348068	246.457143
2609.777513	252.914286
2611.206705	253.104762
2612.634046	253.742857
2614.062734	248.371429
2615.491169	257.438095
2616.916158	259.819048
2618.342492	260.200000
2619.766978	249.085714
2621.192810	236.438095
2622.615198	232.800000
2624.038932	241.876190
2625.460820	244.304762
2626.882457	243.904762
2628.302249	242.314286
2629.723387	246.161905
2631.144275	253.123810
2632.561725	252.209524
2633.982114	243.561905
2635.399066	244.895238
2636.815770	247.380952
2638.232225	252.714286
2639.648432	268.247619
2641.064390	266.847619
2642.478508	259.923810
2643.892379	255.676190
2645.304410	250.619048
2646.717786	241.219048
2648.127732	254.780952
2649.540614	255.304762
2650.950067	251.628571
2652.359274	246.152381
2653.766645	240.600000
2655.176950	234.152381
2656.585419	240.457143
2657.992053	242.333333
2659.398442	241.123810
2660.802997	254.971429
2662.208896	262.933333
2663.612962	265.466667
2665.016784	261.971429
2666.420361	256.047619
2667.822106	249.247619
2669.225195	247.314286
2670.624867	247.733333
2672.025882	250.028571
2673.423480	246.428571
2674.824009	251.361905
2676.221123	253.923810
2677.619580	243.323810
2679.016209	241.161905
2680.412597	236.961905
2681.808742	235.933333
2683.203061	244.047619
2684.598723	249.942857
2685.990975	250.076190
2687.384571	253.123810
2688.776342	239.952381
2690.169455	235.123810
2691.560745	228.257143
2692.950212	231.438095
2694.339440	238.104762
2695.728427	245.438095
2697.118757	240.057143
2698.504102	237.971429
2699.892372	230.152381
2701.278820	231.419048
2702.665031	233.380952
2704.051002	239.228571
2705.433575	234.419048
2706.817489	239.895238
2708.201166	239.171429
2709.584605	241.133333
2710.964648	241.123810
2712.346033	245.409524
2713.725602	243.352381
2715.106513	250.657143
2716.485609	246.533333
2717.862890	242.923810
2719.241513	234.780952
2720.618323	231.580952
2721.994897	227.942857
2723.371235	227.733333
2724.745761	219.161905
2726.121628	216.057143
2727.494108	224.361905
2728.869505	235.123810
2730.239940	240.819048
2731.611717	243.552381
2732.983260	236.733333
2734.352994	233.876190
2735.724068	231.028571
2737.093335	233.504762
2738.462368	236.085714
2739.829594	233.857143
2741.196588	231.961905
2742.563349	227.285714
2743.929877	215.047619
2745.294600	221.761905
2746.659092	229.152381
2748.023351	228.504762
2749.387379	233.219048
2750.751174	231.409524
2752.111596	231.961905
2753.474929	240.361905
2754.833319	242.352381
2756.194619	239.828571
2757.552548	242.371429
2758.913387	236.742857
2760.272425	242.847619
2761.628095	240.200000
2762.986673	235.676190
2764.341885	231.438095
2765.696867	229.733333
2767.050052	244.085714
2768.406144	254.771429
2769.758872	255.704762
2771.111371	248.371429
2772.463642	235.504762
2773.817252	225.542857
2775.167500	221.609524
2776.515955	222.200000
2777.867314	220.066667
2779.215314	220.723810
2780.564653	232.466667
2781.912199	244.400000
2783.259518	242.057143
2784.606611	240.380952
2785.951913	233.847619
2787.296989	225.485714
2788.641839	225.304762
2789.986463	231.809524
2791.327734	239.200000
2792.670344	241.666667
2794.012729	246.152381
2795.354888	245.771429
2796.693698	235.133333
2798.035408	233.400000
2799.373769	224.142857
2800.713468	220.142857
2802.051381	217.628571
2803.387510	226.533333
2804.723416	229.542857
2806.060658	240.914286
2807.396117	239.133333
2808.731353	239.066667
2810.064807	239.009524
2811.399597	235.180952
2812.731046	230.476190
2814.065391	233.104762
2815.394838	236.609524
2816.725622	237.000000
2818.056184	242.219048
2819.384967	238.619048
2820.715087	234.514286
2822.043427	235.438095
2823.371547	232.533333
2824.697890	224.333333
2826.025568	226.380952
2827.349914	223.161905
2828.675595	229.247619
2829.999502	229.266667
2831.323188	226.361905
2832.648210	227.847619
2833.969903	230.200000
2835.291376	232.590476
2836.612631	235.114286
2837.933667	229.761905
2839.252931	230.857143
2840.573530	232.723810
2841.892357	226.990476
2843.210966	226.980952
2844.527805	217.085714
2845.844426	211.619048
2847.160829	218.142857
2848.475464	218.647619
2849.791433	217.171429
2851.104082	230.657143
2852.418067	232.409524
2853.731835	230.400000
2855.045386	229.876190
2856.357170	219.400000
2857.667189	208.438095
2858.978542	217.504762
2860.286579	224.304762
2861.595952	235.276190
2862.905109	239.028571
2864.214051	232.257143
2865.521230	218.733333
2866.826645	209.552381
2868.133395	207.104762
2869.438382	219.580952
2870.743156	218.980952
2872.046168	231.428571
2873.352062	238.285714
2874.653101	241.209524
2875.955473	245.390476
2877.256086	249.400000
2878.558033	236.333333
2879.859767	241.266667
2881.158197	232.600000
2882.457960	232.152381
2883.755966	236.990476
2885.053760	246.695238
2886.349797	240.419048
2887.647168	244.838095
2888.942783	236.066667
2890.238188	238.942857
2891.533381	237.828571
2892.825276	237.428571
2894.120048	227.780952
2895.411523	229.428571
2896.704332	229.552381
2897.996930	230.990476
2899.286233	221.942857
2900.576869	218.657143
2901.865754	212.590476
2903.155972	219.514286
2904.442898	224.704762
2905.731156	223.123810
2907.017665	217.028571
2908.303965	218.800000
2909.590057	210.342857
2910.874401	213.980952
2912.161617	213.552381
2913.444006	214.980952
2914.727727	219.657143
2916.009701	229.952381
2917.291469	237.276190
2918.571491	240.571429
2919.854383	235.314286
2921.135530	223.047619
2922.413395	215.980952
2923.694129	223.190476
2924.971582	232.847619
2926.248830	237.828571
2927.524335	239.790476
2928.802708	227.457143
2930.076266	216.019048
2931.352692	222.057143
2932.627377	225.952381
2933.900322	234.904762
2935.174597	236.790476
2936.447133	229.247619
2937.719465	216.819048
2938.988524	217.209524
2940.260448	214.276190
2941.530633	214.704762
2942.800616	206.933333
2944.070395	202.809524
2945.338437	193.419048
2946.604744	197.704762
2947.870848	200.447619
2949.138283	200.504762
2950.403982	205.561905
2951.669479	215.314286
2952.934774	217.190476
2954.196805	220.580952
2955.460165	219.571429
2956.723324	214.695238
2957.984750	210.419048
2959.247506	210.923810
2960.508531	213.257143
2961.767825	215.180952
2963.026918	217.038095
2964.285811	222.009524
2965.544504	214.161905
2966.802997	207.247619
2968.059761	208.742857
2969.316325	210.561905
2970.571162	222.600000
2971.827328	227.323810
2973.080238	222.980952
2974.334478	217.638095
2975.588519	204.761905
2976.840834	195.038095
2978.092951	198.771429
2979.343343	197.447619
2980.596590	205.942857
2981.845060	208.285714
2983.096384	204.714286
2984.344460	201.476190
2985.592338	197.857143
2986.840019	204.352381
2988.087504	210.695238
2989.333267	206.961905
2990.578833	207.371429
2991.825728	205.580952
2993.069377	197.457143
2994.314355	197.019048
2995.556090	201.723810
2996.800676	201.704762
2998.043543	203.866667
2999.283168	204.971429
3000.525645	194.000000
3001.764881	196.476190
3003.005445	202.600000
3004.244292	196.942857
3005.482945	201.723810
3006.719882	199.914286
3007.958146	198.371429
3009.194696	203.542857
3010.431052	201.533333
3011.667214	196.914286
3012.901662	200.047619
3014.135917	199.723810
3015.369979	194.704762
3016.602329	190.638095
3017.832967	183.876190
3019.066451	188.476190
3020.298224	193.809524
3021.528285	189.809524
3022.758155	190.790476
3023.986315	190.790476
3025.215802	188.447619
3026.443579	194.914286
3027.671165	193.190476
3028.900077	191.876190
3030.124247	194.580952
3031.351260	192.361905
3032.575050	190.600000
3033.800165	193.114286
3035.023574	185.923810
3036.246794	194.438095
3037.468308	188.590476
3038.692663	184.800000
3039.912283	181.228571
3041.133229	184.866667
3042.353985	190.038095
3043.573038	197.495238
3044.793417	196.723810
3046.010579	194.619048
3047.229066	193.380952
3048.445852	192.476190
3049.662449	189.533333
3050.878859	185.828571
3052.092055	181.552381
3053.308089	178.419048
3054.520911	186.647619
3055.736570	192.885714
3056.947506	190.676190
3058.159768	193.333333
3059.371842	189.828571
3060.583730	184.257143
3061.793920	187.752381
3063.003925	190.342857
3064.213743	189.419048
3065.421865	194.752381
3066.629801	195.523810
3067.836043	193.052381
3069.043609	186.485714
3070.249480	182.109524
3071.455166	177.219048
3072.660667	176.633333
3073.864476	179.628571
3075.069608	183.400000
3076.273047	181.085714
3077.474794	185.123810
3078.676358	187.704762
3079.877738	187.942857
3081.078934	189.733333
3082.278440	184.028571
3083.477762	177.742857
3084.678408	177.628571
3085.877365	172.638095
3087.073126	176.104762
3088.271717	182.400000
3089.467114	186.714286
3090.663835	186.400000
3091.857363	179.314286
3093.053719	172.104762
3094.248388	167.257143
3095.439867	172.866667
3096.635677	180.409524
3097.826794	173.761905
3099.019234	174.561905
3100.208485	181.266667
3101.400563	175.895238
3102.590957	181.104762
3103.778164	175.038095
3104.966695	155.828571
3106.156548	166.238095
3107.343216	175.066667
3108.529705	177.552381
3109.716014	185.742857
3110.903646	176.076190
3112.088095	177.923810
3113.270864	192.085714
3114.456457	192.028571
3115.640369	180.714286
3116.822603	169.609524
3118.004659	152.980952
3119.186536	156.666667
3120.368235	165.780952
3121.548257	168.733333
3122.726601	166.257143
3123.907767	168.866667
3125.085757	170.504762
3126.263570	170.933333
3127.441206	171.285714
3128.617167	176.923810
3129.792952	176.866667
3130.970057	185.971429
3132.145489	188.723810
3133.319247	182.390476
3134.491332	169.638095
3135.664738	164.800000
3136.837969	164.085714
3138.009527	179.590476
3139.182407	177.438095
3140.352119	177.304762
3141.523152	172.990476
3142.692514	168.704762
3143.860207	171.342857
3145.030715	178.428571
3146.196564	168.123810
3147.366723	168.647619
3148.532224	164.819048
3149.697552	166.990476
3150.862706	168.371429
3152.027687	165.228571
3153.193987	164.428571
3154.355634	163.942857
3155.518602	159.828571
3156.681396	170.495238
3157.844018	173.123810
3159.004975	168.209524
3160.165759	171.314286
3161.326371	166.533333
3162.485320	160.428571
3163.644096	166.542857
3164.802701	165.714286
3165.961134	162.761905
3167.119395	163.238095
3168.275994	166.428571
3169.430932	165.704762
3170.587189	165.114286
3171.741786	163.047619
3172.896211	155.228571
3174.048977	151.085714
3175.201573	153.057143
3176.353999	154.800000
3177.506254	169.552381
3178.658340	164.304762
3179.807279	164.885714
3180.959025	161.485714
3182.109114	155.323810
3183.257545	157.114286
3184.405808	165.600000
3185.553902	165.457143
3186.701826	174.400000
3187.848096	168.476190
3188.994197	166.047619
3190.138644	164.409524
3191.282922	153.780952
3192.427033	155.866667
3193.572462	157.895238
3194.714752	158.019048
3195.856874	165.209524
3196.998830	165.638095
3198.140618	156.800000
3199.282239	153.104762
3200.420724	155.076190
3201.560528	158.914286
3202.701648	161.628571
3203.839634	163.752381
3204.975971	166.295238
3206.112142	163.657143
3207.249631	162.809524
3208.385471	159.400000
3209.522627	154.552381
3210.655171	153.361905
3211.791997	150.257143
3212.924211	153.190476
3214.057743	151.257143
3215.191109	148.609524
3216.321348	143.038095
3217.454385	149.657143
3218.584296	151.257143
3219.715524	159.142857
3220.843626	156.485714
3221.974526	153.676190
3223.103781	147.314286
3224.231392	151.485714
3225.355882	155.476190
3226.484647	154.009524
3227.610290	158.828571
3228.735770	158.647619
3229.859609	150.866667
3230.986243	146.285714
3232.108278	148.638095
3233.231630	151.952381
3234.354820	155.866667
3235.477848	155.819048
3236.599236	142.285714
3237.720463	136.361905
3238.840051	136.390476
3239.959478	146.685714
3241.077267	151.428571
3242.197849	155.742857
3243.315317	160.342857
3244.432624	158.247619
3245.549770	150.200000
3246.665281	150.904762
3247.782107	146.590476
3248.895822	144.342857
3250.012328	148.961905
3251.127198	145.923810
3252.238960	143.247619
3253.350563	144.704762
3254.463481	148.209524
3255.576239	151.847619
3256.685891	150.447619
3257.796858	144.161905
3258.907666	146.819048
3260.016842	143.476190
3261.124387	146.676190
3262.233247	143.933333
3263.341948	147.542857
3264.447547	169.380952
3265.554461	189.238095
3266.659745	192.447619
3267.766343	188.419048
3268.869841	166.542857
3269.974653	153.714286
3271.079308	154.742857
3272.180865	147.409524
3273.282265	142.038095
3274.384979	138.590476
3275.487536	134.219048
3276.586998	138.295238
3277.689242	150.304762
3278.788392	156.076190
3279.885916	157.504762
3280.983285	158.657143
3282.083437	151.733333
3283.180495	147.409524
3284.277399	155.933333
3285.374147	149.866667
3286.466336	150.190476
3287.562775	148.904762
3288.657591	151.533333
3289.752252	150.714286
3290.845292	152.990476
3291.938178	144.504762
3293.029443	149.219048
3294.122021	151.361905
3295.212979	160.028571
3296.302317	154.542857
3297.391502	154.047619
3298.481999	149.066667
3299.569412	150.304762
3300.656673	148.752381
3301.745246	144.980952
3302.833666	137.495238
3303.917539	132.152381
3305.005654	134.638095
3306.090688	139.666667
3307.174106	143.885714
3308.258836	149.228571
3309.341950	147.314286
3310.426376	143.400000
3311.507724	138.685714
3312.590384	138.057143
3313.671430	142.866667
3314.752325	150.057143
3315.831607	150.152381
3316.910738	141.447619
3317.991180	131.990476
3319.068549	121.952381
3320.147229	120.257143
3321.224297	122.828571
3322.301215	133.533333
3323.376523	139.638095
3324.451681	144.685714
3325.528150	144.419048
3326.601548	142.180952
3327.674798	134.838095
3328.749359	131.466667
3329.822310	132.923810
3330.893654	130.361905
3331.966308	133.723810
3333.035895	137.914286
3334.106793	139.733333
3335.176084	134.066667
3336.246686	135.361905
3337.315681	140.495238
3338.383070	140.942857
3339.448854	138.057143
3340.518864	143.009524
3341.585811	145.133333
3342.649696	140.076190
3343.716349	146.752381
3344.781398	141.952381
3345.844843	139.961905
3346.908141	138.666667
3347.971294	133.304762
3349.034300	123.657143
3350.097159	119.914286
3351.158417	117.038095
3352.216618	118.895238
3353.279040	125.457143
3354.338405	126.342857
3355.397626	129.047619
3356.458155	127.238095
3357.514175	128.219048
3358.572960	124.819048
3359.627237	134.714286
3360.684278	136.190476
3361.739720	129.933333
3362.796471	120.657143
3363.851625	113.114286
3364.905181	109.047619
3365.957140	118.542857
3367.011861	128.200000
3368.063534	133.895238
3369.115062	129.942857
3370.167900	124.266667
3371.217690	116.419048
3372.268789	120.123810
3373.316841	120.847619
3374.367654	124.047619
3375.415421	121.123810
3376.463046	128.485714
3377.510529	136.447619
3378.556418	142.485714
3379.603617	135.780952
3380.647772	128.838095
3381.694686	127.752381
3382.740008	133.980952
3383.782290	134.161905
3384.824430	137.542857
3385.867879	126.647619
3386.911186	126.476190
3387.952903	127.247619
3388.994479	117.876190
3390.035915	110.685714
3391.075762	115.180952
3392.114020	121.914286
3393.153586	133.676190
3394.193012	135.590476
3395.230850	136.380952
3396.267101	132.961905
3397.303212	128.590476
3398.340631	122.695238
3399.375017	118.295238
3400.410711	122.666667
3401.446265	123.809524
3402.478787	122.514286
3403.514063	124.495238
3404.546308	118.123810
3405.578415	119.352381
3406.608938	123.419048
3407.640769	123.571429
3408.672461	124.647619
3409.701125	125.542857
3410.729651	123.095238
3411.759485	125.504762
3412.789180	120.419048
3413.815850	121.942857
3414.843827	116.361905
3415.868779	117.476190
3416.896481	116.485714
3417.921160	120.533333
3418.947145	121.171429
3419.971551	129.219048
3420.995819	124.828571
3422.018509	130.733333
3423.041063	130.038095
3424.064923	125.142857
3425.085763	116.619048
3426.106468	110.942857
3427.128478	104.333333
3428.147470	113.647619
3429.166327	125.876190
3430.186489	127.076190
3431.203635	106.214286
