-118.052978	5.466667
-115.383377	4.409524
-112.716712	5.509524
-110.050800	6.733333
-107.387819	1.180952
-104.723409	1.666667
-102.061929	3.000000
-99.399019	2.342857
-96.741217	1.980952
-94.081984	10.076190
-91.423500	7.857143
-88.767941	13.733333
-86.110953	15.485714
-83.459062	5.752381
-80.805742	-0.171429
-78.155342	-1.638095
-75.503512	0.009524
-72.856773	5.980952
-70.208604	10.228571
-67.561179	10.371429
-64.916667	5.123810
-62.270727	0.447619
-59.629868	1.485714
-56.987579	2.304762
-54.348200	4.800000
-51.707392	6.638095
-49.067323	2.904762
-46.432328	0.057143
-43.795903	7.276190
-41.162382	10.952381
-38.527432	17.704762
-35.897547	28.600000
-33.264069	28.790476
-30.635654	31.333333
-28.007973	36.266667
-25.378864	39.285714
-22.754811	38.704762
-20.127169	48.666667
-17.504580	52.885714
-14.882722	32.247619
-12.261595	-123.942857
-9.641199	-217.809524
-7.023690	2724.304762
-4.404753	9835.609524
-1.788702	16133.895238
0.826621	17189.276190
3.441217	13001.400000
6.052931	5476.066667
8.666072	-68.295238
11.274180	-845.638095
13.885870	-37.609524
16.492529	33.400000
19.100616	27.361905
21.707979	21.495238
24.310317	23.476190
26.916233	23.361905
29.517128	21.742857
32.119450	8.285714
34.716754	4.133333
37.317634	1.904762
39.913500	10.685714
42.510793	27.676190
45.107367	35.333333
47.698932	27.838095
50.291925	19.923810
52.882057	9.838095
55.473617	1.228571
58.062317	16.819048
60.652445	19.447619
63.237573	17.980952
65.824129	10.295238
68.409970	6.409524
70.992958	2.361905
73.577373	14.019048
76.154658	14.923810
78.735510	15.066667
81.313513	6.247619
83.890806	0.952381
86.469525	-4.933333
89.043263	0.066667
91.618427	4.580952
94.190748	10.695238
96.762362	7.695238
99.331135	8.895238
101.901335	12.685714
104.468696	20.066667
107.037484	19.542857
109.603434	15.590476
112.166550	14.285714
114.733223	18.952381
117.290673	30.466667
119.853809	48.961905
122.411986	63.647619
124.973716	83.609524
127.530491	119.866667
130.088691	181.380952
132.641939	283.200000
135.194488	417.314286
137.750589	578.476190
140.301741	752.961905
142.852195	916.590476
145.401953	1067.171429
147.948891	1197.400000
150.495133	1262.657143
153.042802	1294.885714
155.589774	1293.133333
158.131810	1274.619048
160.673153	1262.390476
163.213804	1272.971429
165.755879	1278.085714
168.295144	1281.133333
170.831599	1266.780952
173.367364	1246.114286
175.904554	1220.295238
178.441052	1208.980952
180.974745	1197.085714
183.505635	1203.552381
186.035836	1204.971429
188.567462	1212.295238
191.096287	1228.742857
193.622314	1222.580952
196.147654	1209.095238
198.674419	1218.038095
201.198388	1208.733333
203.721671	1214.666667
206.244270	1249.666667
208.764076	1249.714286
211.283199	1262.742857
213.801639	1269.428571
216.321503	1264.304762
218.834366	1259.152381
221.350760	1295.752381
223.866472	1320.628571
226.377295	1361.733333
228.889542	1386.504762
231.399006	1410.990476
233.907792	1403.552381
236.415900	1417.200000
238.925432	1419.752381
241.430083	1411.190476
243.934058	1415.038095
246.439457	1428.066667
248.939981	1434.676190
251.444028	1442.609524
253.941105	1442.514286
256.441704	1433.238095
258.939532	1444.961905
261.436687	1451.723810
263.933169	1466.409524
266.424789	1465.200000
268.919927	1465.571429
271.412300	1467.447619
273.904002	1463.666667
276.392941	1476.571429
278.883303	1492.780952
281.370904	1502.580952
283.855745	1516.790476
286.344100	1529.371429
288.825516	1538.352381
291.310447	1579.514286
293.790531	1606.876190
296.274128	1626.914286
298.752883	1669.000000
301.233060	1696.657143
303.710486	1705.771429
306.187248	1699.342857
308.663346	1658.428571
311.136696	1615.819048
313.609385	1613.952381
316.081411	1624.961905
318.552777	1646.790476
321.021399	1664.028571
323.489361	1655.390476
325.958746	1618.219048
328.423308	1568.771429
330.891373	1526.161905
333.354619	1507.485714
335.817208	1497.238095
338.279139	1502.238095
340.740414	1486.304762
343.198955	1486.152381
345.658918	1473.523810
348.116149	1458.990476
350.572725	1447.666667
353.028646	1447.600000
355.481839	1428.809524
357.936454	1431.657143
360.386267	1423.085714
362.839576	1417.638095
365.288086	1411.076190
367.735946	1413.238095
370.185227	1414.019048
372.629715	1411.123810
375.075625	1413.142857
377.520886	1415.914286
379.963428	1408.076190
382.405322	1399.295238
384.846568	1387.476190
387.285099	1361.114286
389.725052	1352.219048
392.162291	1338.571429
394.596818	1349.885714
397.034833	1347.028571
399.468071	1351.704762
401.902731	1354.533333
404.332617	1358.752381
406.765990	1345.485714
409.194591	1347.247619
411.622552	1348.085714
414.051933	1360.057143
416.476550	1372.980952
418.902587	1375.400000
421.327985	1375.104762
423.752742	1373.790476
426.172740	1375.266667
428.594160	1372.590476
431.012883	1374.485714
433.433027	1370.780952
435.850476	1380.571429
438.269345	1382.971429
440.685521	1369.552381
443.096950	1350.409524
445.511855	1338.066667
447.924070	1331.380952
450.335651	1329.628571
452.746598	1325.952381
455.154859	1315.276190
457.562488	1303.990476
459.969484	1308.752381
462.375848	1317.800000
464.779531	1311.028571
467.182583	1310.457143
469.585005	1329.047619
471.986797	1349.219048
474.385911	1371.847619
476.786445	1383.780952
479.186350	1410.000000
481.581532	1434.304762
483.980181	1463.971429
486.374110	1516.485714
488.767413	1569.333333
491.160090	1608.790476
493.552142	1677.704762
495.945613	1752.219048
498.334371	1865.666667
500.720463	2053.047619
503.107975	2327.695238
505.494863	2764.209524
507.879088	3501.361905
510.264732	5115.504762
512.647713	9489.371429
515.028034	18353.666667
517.409774	29213.533333
519.788855	36043.228571
522.169355	34736.257143
524.547197	26132.114286
526.922384	15097.733333
529.296953	7376.695238
531.672941	4338.590476
534.046275	3533.085714
536.421028	3055.619048
538.791094	2707.152381
541.160545	2444.380952
543.531415	2234.704762
545.897603	2049.885714
548.265210	1908.980952
550.630171	1791.790476
552.994519	1701.228571
555.358255	1636.809524
557.723408	1569.819048
560.083889	1519.990476
562.445787	1496.609524
564.805046	1467.904762
567.161666	1448.590476
569.521732	1415.419048
571.875106	1389.476190
574.231925	1359.942857
576.586109	1342.257143
578.939684	1318.238095
581.292651	1313.447619
583.642987	1308.457143
585.994739	1315.123810
588.339815	1308.733333
590.690355	1302.904762
593.034222	1287.047619
595.383549	1280.952381
597.728229	1278.942857
600.070284	1282.561905
602.413756	1277.561905
604.754604	1277.666667
607.094851	1280.990476
609.432477	1295.685714
611.773538	1304.628571
614.109962	1308.733333
616.447802	1300.504762
618.783024	1288.333333
621.115631	1293.342857
623.449655	1283.990476
625.781064	1277.885714
628.111875	1256.133333
630.442088	1232.590476
632.771703	1215.561905
635.096696	1225.742857
637.427130	1228.638095
639.752942	1236.752381
642.076148	1226.009524
644.400770	1216.971429
646.722786	1209.571429
649.044208	1212.685714
651.363027	1209.133333
653.683262	1200.190476
656.002904	1196.933333
658.319945	1203.780952
660.636395	1194.828571
662.950246	1208.828571
665.265512	1219.247619
667.578182	1224.304762
669.892267	1220.961905
672.201753	1216.952381
674.512653	1196.057143
676.820961	1193.495238
679.128681	1202.123810
681.437816	1200.523810
683.742358	1196.380952
686.046314	1190.619048
688.349683	1176.390476
690.654467	1167.533333
692.954665	1163.676190
695.256278	1153.933333
697.557305	1153.104762
699.853751	1144.238095
702.151611	1127.190476
704.448888	1124.371429
706.745582	1123.809524
709.037700	1112.800000
711.333229	1107.304762
713.624185	1103.247619
715.916555	1090.038095
718.206349	1090.180952
720.495564	1095.942857
722.784198	1103.476190
725.070261	1126.076190
727.357737	1141.752381
729.642643	1131.114286
731.926970	1126.980952
734.208730	1114.142857
736.491903	1121.447619
738.774499	1125.142857
741.052539	1128.504762
743.331993	1123.876190
745.610872	1132.400000
747.889175	1137.114286
750.162929	1148.085714
752.438097	1151.314286
754.712691	1151.323810
756.984726	1157.380952
759.258174	1153.628571
761.529064	1152.190476
763.797397	1146.219048
766.067145	1156.971429
768.334337	1159.371429
770.600959	1175.476190
772.867012	1161.514286
775.130513	1161.380952
777.395426	1161.238095
779.659771	1176.780952
781.919585	1203.800000
784.180813	1224.752381
786.441473	1211.152381
788.699586	1210.961905
790.955155	1204.933333
793.214115	1207.304762
795.466576	1224.285714
797.724404	1242.133333
799.977713	1240.933333
802.228481	1257.371429
804.480662	1264.609524
806.730305	1258.114286
808.981359	1247.838095
811.227902	1259.323810
813.475858	1261.828571
815.721278	1270.085714
817.968110	1265.276190
820.214381	1249.200000
822.456148	1245.438095
824.701297	1262.600000
826.939974	1259.038095
829.182034	1241.495238
831.419595	1223.123810
833.658567	1207.914286
835.895013	1220.238095
838.132871	1226.400000
840.368203	1217.133333
842.601011	1209.771429
844.835231	1213.647619
847.066929	1215.295238
849.298072	1237.342857
851.528660	1237.828571
853.758694	1232.076190
855.988173	1237.028571
858.213172	1234.200000
860.441544	1226.066667
862.665438	1227.847619
864.890742	1231.123810
867.111571	1229.038095
869.335772	1234.152381
871.555500	1230.590476
873.776639	1223.342857
875.997227	1231.342857
878.215306	1233.676190
880.434794	1244.219048
882.649816	1251.085714
884.864290	1257.980952
887.078217	1250.895238
889.291596	1244.171429
891.504429	1225.266667
893.716714	1223.971429
895.926498	1218.695238
898.135736	1221.247619
900.344428	1233.304762
902.550622	1240.457143
904.758225	1247.190476
906.963331	1243.133333
909.167893	1243.076190
911.369959	1240.552381
913.573435	1263.247619
915.774418	1275.904762
917.974858	1289.066667
920.176707	1296.761905
922.372164	1326.933333
924.570981	1361.857143
926.765360	1420.666667
928.963096	1493.866667
931.156396	1586.923810
933.351104	1708.000000
935.543327	1845.133333
937.735012	1981.638095
939.926159	2099.247619
942.114823	2158.409524
944.302950	2170.485714
946.488597	2164.057143
948.677596	2151.390476
950.862172	2150.752381
953.046213	2173.295238
955.233604	2173.809524
957.412692	2162.409524
959.595129	2157.495238
961.777033	2167.047619
963.956463	2164.752381
966.133420	2177.619048
968.311785	2184.619048
970.491556	2198.076190
972.664979	2212.561905
974.841748	2232.133333
977.014111	2234.495238
979.187880	2229.695238
981.357247	2206.609524
983.529957	2190.142857
985.700201	2135.628571
987.869917	2048.523810
990.039104	1951.219048
992.203894	1841.038095
994.372025	1742.828571
996.535762	1674.733333
998.700905	1624.095238
1000.863590	1581.733333
1003.025749	1566.933333
1005.185450	1538.057143
1007.344628	1520.371429
1009.505212	1502.457143
1011.663341	1487.371429
1013.820946	1472.466667
1015.978028	1479.533333
1018.134587	1467.838095
1020.286766	1450.523810
1022.440352	1430.961905
1024.593415	1394.076190
1026.744031	1359.019048
1028.896052	1339.561905
1031.043700	1331.228571
1033.194680	1315.380952
1035.341289	1325.209524
1037.487380	1316.942857
1039.632952	1310.380952
1041.779928	1291.866667
1043.920617	1284.561905
1046.064634	1281.628571
1048.206211	1289.304762
1050.347272	1280.942857
1052.489737	1277.447619
1054.625923	1259.552381
1056.765435	1252.761905
1058.900591	1259.447619
1061.039072	1265.161905
1063.173200	1264.028571
1065.306814	1270.504762
1067.441832	1269.485714
1069.572501	1267.657143
1071.704576	1264.542857
1073.834220	1261.771429
1075.963353	1263.095238
1078.091975	1257.133333
1080.220085	1247.447619
1082.345769	1246.638095
1084.470943	1227.847619
1086.597520	1220.980952
1088.719761	1241.476190
1090.843406	1244.400000
1092.962716	1241.742857
1095.087255	1234.942857
1097.205550	1221.257143
1099.325248	1209.038095
1101.442528	1220.419048
1103.559302	1239.285714
1105.675569	1239.790476
1107.789421	1234.276190
1109.904676	1241.723810
1112.015609	1231.952381
1114.129853	1217.219048
1116.239778	1225.647619
1118.351105	1213.047619
1120.461929	1213.047619
1122.568436	1212.504762
1124.678252	1213.733333
1126.783754	1202.533333
1128.890660	1203.676190
1130.991349	1199.190476
1133.097251	1195.419048
1135.198844	1191.123810
1137.301840	1184.780952
1139.404335	1178.552381
1141.500624	1185.180952
1143.602119	1193.085714
1145.699312	1196.419048
1147.796006	1195.628571
1149.892203	1192.409524
1151.987901	1172.619048
1154.083102	1176.447619
1156.175906	1185.866667
1158.270112	1195.838095
1160.358127	1196.600000
1162.451340	1192.190476
1164.538365	1171.171429
1166.628690	1172.571429
1168.714726	1173.542857
1170.804060	1182.419048
1172.887213	1184.323810
1174.971769	1181.152381
1177.057725	1173.533333
1179.139400	1171.514286
1181.222477	1169.866667
1183.303168	1187.876190
1185.383367	1201.400000
1187.463076	1212.647619
1189.542292	1204.209524
1191.619127	1194.800000
1193.693581	1185.171429
1195.771327	1187.895238
1197.844802	1192.200000
1199.919679	1199.866667
1201.990288	1204.104762
1204.062298	1202.704762
1206.131932	1193.790476
1208.202967	1184.704762
1210.273514	1176.552381
1212.339800	1181.857143
1214.407487	1190.419048
1216.472802	1192.390476
1218.539517	1200.114286
1220.601976	1201.704762
1222.667720	1204.200000
1224.729211	1206.771429
1226.792101	1204.238095
1228.852624	1191.466667
1230.912664	1196.057143
1232.972220	1200.895238
1235.029412	1201.533333
1237.086121	1199.285714
1239.140468	1210.123810
1241.198095	1207.552381
1243.253360	1213.761905
1245.304384	1206.600000
1247.356808	1186.723810
1249.408753	1175.723810
1251.458338	1191.219048
1253.507446	1198.542857
1255.556074	1220.495238
1257.604224	1228.523810
1259.651896	1229.847619
1261.695337	1220.904762
1263.742053	1213.514286
1265.786417	1198.104762
1267.830303	1202.133333
1269.871839	1197.152381
1271.911025	1210.952381
1273.953483	1212.161905
1275.991720	1215.800000
1278.031354	1227.323810
1280.070514	1228.447619
1282.105456	1221.038095
1284.141796	1224.161905
1286.175791	1222.704762
1288.211185	1216.914286
1290.242365	1222.495238
1292.274944	1227.400000
1294.307050	1230.895238
1296.336816	1235.323810
1298.367980	1239.304762
1300.394936	1234.028571
1302.423290	1240.200000
1304.447440	1242.866667
1306.474855	1232.390476
1308.498067	1234.952381
1310.522676	1238.409524
1312.544952	1239.361905
1314.568625	1250.533333
1316.589965	1246.485714
1318.610837	1226.238095
1320.631243	1220.057143
1322.647454	1214.923810
1324.665064	1218.342857
1326.680345	1218.857143
1328.698885	1226.914286
1330.713235	1222.180952
1332.725260	1234.200000
1334.740543	1236.104762
1336.751640	1244.180952
1338.764133	1225.219048
1340.772444	1208.961905
1342.784011	1187.638095
1344.789539	1185.247619
1346.798321	1194.152381
1348.802927	1206.038095
1350.810786	1205.295238
1352.818182	1205.380952
1354.819548	1194.304762
1356.822311	1190.933333
1358.824614	1207.428571
1360.826456	1218.704762
1362.827840	1229.923810
1364.826909	1228.380952
1366.825520	1215.009524
1368.823673	1194.828571
1370.821368	1194.685714
1372.814899	1193.857143
1374.809827	1197.838095
1376.804298	1198.333333
1378.798312	1210.980952
1380.790019	1209.980952
1382.781270	1211.457143
1384.770216	1214.400000
1386.760557	1216.771429
1388.750443	1213.838095
1390.738026	1214.238095
1392.725155	1214.228571
1394.709982	1198.066667
1396.696204	1199.857143
1398.680125	1203.276190
1400.663594	1203.980952
1402.646611	1223.361905
1404.627330	1225.257143
1406.609443	1223.409524
1408.589259	1214.380952
1410.568625	1193.866667
1412.543852	1195.019048
1414.522317	1202.057143
1416.498489	1198.047619
1418.474211	1203.257143
1420.449484	1205.400000
1422.422466	1198.342857
1424.395001	1218.847619
1426.367087	1216.990476
1428.338725	1223.895238
1430.306236	1227.285714
1432.278820	1230.019048
1434.243598	1228.923810
1436.213449	1240.733333
1438.179175	1230.895238
1440.146295	1236.019048
1442.111131	1241.447619
1444.071847	1235.780952
1446.037631	1233.923810
1447.997460	1235.352381
1449.958682	1227.809524
1451.921297	1250.219048
1453.879797	1263.371429
1455.837855	1265.209524
1457.795470	1254.838095
1459.752644	1234.257143
1461.707542	1222.219048
1463.663832	1229.780952
1465.617848	1237.361905
1467.571424	1249.057143
1469.522727	1246.638095
1471.475422	1231.628571
1473.425846	1233.142857
1475.375831	1232.914286
1477.325376	1229.580952
1479.272653	1224.819048
1481.217663	1212.990476
1483.164065	1202.276190
1485.110029	1216.523810
1487.055555	1233.266667
1488.998817	1239.561905
1490.941642	1235.790476
1492.882204	1229.076190
1494.824157	1223.514286
1496.763849	1222.571429
1498.703105	1207.685714
1500.641927	1190.676190
1502.578489	1178.238095
1504.516441	1173.847619
1506.452136	1182.790476
1508.387397	1188.723810
1510.320401	1183.657143
1512.252973	1188.285714
1514.185113	1178.380952
1516.116821	1177.971429
1518.046275	1187.266667
1519.977120	1198.066667
1521.907534	1205.028571
1523.833875	1223.295238
1525.761606	1205.857143
1527.687087	1201.457143
1529.612139	1189.761905
1531.536762	1191.457143
1533.460956	1190.295238
1535.382903	1204.152381
1537.306239	1209.533333
1539.227330	1225.371429
1541.146176	1234.761905
1543.066412	1232.838095
1544.984404	1231.438095
1546.901970	1221.933333
1548.817294	1221.580952
1550.734008	1231.723810
1552.646667	1238.704762
1554.562530	1222.028571
1556.476154	1211.790476
1558.387539	1189.590476
1560.300313	1191.533333
1562.209038	1194.390476
1564.119153	1210.619048
1566.028844	1219.857143
1567.938111	1213.180952
1569.845145	1209.095238
1571.749946	1210.809524
1573.656136	1202.000000
1575.560094	1205.561905
1577.463632	1212.619048
1579.366748	1209.714286
1581.267636	1208.123810
1583.169911	1204.323810
1585.069959	1193.380952
1586.971395	1191.266667
1588.868796	1203.819048
1590.765780	1206.685714
1592.662345	1200.114286
1594.560297	1198.790476
1596.452415	1185.876190
1598.347727	1192.352381
1600.242620	1208.447619
1602.135292	1214.723810
1604.027548	1216.428571
1605.917584	1230.628571
1607.807204	1231.276190
1609.696409	1229.438095
1611.585198	1232.914286
1613.471771	1233.790476
1615.359730	1225.485714
1617.243674	1235.000000
1619.129004	1224.190476
1621.013920	1205.085714
1622.896624	1187.190476
1624.780713	1185.571429
1626.660792	1188.980952
1628.542257	1217.161905
1630.421512	1230.276190
1632.302153	1229.990476
1634.176990	1218.561905
1636.056809	1204.838095
1637.932622	1210.295238
1639.808026	1223.628571
1641.684815	1230.571429
1643.555807	1222.200000
1645.429981	1212.342857
1647.300157	1203.571429
1649.173513	1213.066667
1651.044666	1215.980952
1652.913617	1214.457143
1654.783954	1208.990476
1656.650297	1197.171429
1658.518026	1198.428571
1660.383557	1203.142857
1662.250472	1181.847619
1664.113399	1170.914286
1665.977711	1171.400000
1667.839828	1171.723810
1669.701539	1184.257143
1671.564635	1188.304762
1673.425537	1166.514286
1675.284245	1154.371429
1677.142550	1157.247619
1679.002240	1167.752381
1680.856163	1177.904762
1682.713258	1177.714286
1684.569951	1174.361905
1686.422668	1172.657143
1688.278556	1169.533333
1690.130470	1169.933333
1691.981982	1153.504762
1693.833095	1139.590476
1695.683806	1137.447619
1697.534117	1142.009524
1699.382244	1146.295238
1701.231754	1165.371429
1703.075516	1158.085714
1704.924228	1158.047619
1706.767193	1149.114286
1708.613324	1140.352381
1710.455494	1136.733333
1712.300828	1156.714286
1714.140422	1172.371429
1715.981400	1187.085714
1717.823761	1183.438095
1719.662166	1172.666667
1721.501954	1159.114286
1723.339567	1153.209524
1725.176784	1151.904762
1727.011828	1152.142857
1728.848255	1147.419048
1730.682510	1141.171429
1732.516371	1131.933333
1734.349837	1113.904762
1736.179357	1110.561905
1738.012036	1116.390476
1739.840771	1123.847619
1741.672664	1126.495238
1743.500614	1111.790476
1745.328172	1091.980952
1747.155339	1091.457143
1748.982113	1095.980952
1750.808497	1111.657143
1752.630944	1129.161905
1754.456545	1132.457143
1756.278212	1118.333333
1758.101261	1107.980952
1759.922149	1087.571429
1761.742647	1068.904762
1763.564527	1073.142857
1765.380707	1073.752381
1767.200039	1075.123810
1769.015444	1084.571429
1770.833999	1090.752381
1772.648630	1073.371429
1774.462873	1073.933333
1776.276730	1076.495238
1778.090200	1081.485714
1779.901516	1086.971429
1781.714214	1092.752381
1783.526525	1082.904762
1785.334919	1083.638095
1787.144694	1097.038095
1788.950553	1097.009524
1790.759559	1093.657143
1792.564651	1084.580952
1794.371123	1075.257143
1796.177212	1061.247619
1797.979391	1065.504762
1799.784713	1071.438095
1801.586127	1075.542857
1803.388921	1088.228571
1805.187810	1086.790476
1806.988078	1085.780952
1808.787966	1102.704762
1810.585711	1110.542857
1812.383076	1112.952381
1814.180060	1110.409524
1815.976664	1087.361905
1817.771129	1072.190476
1819.566974	1088.942857
1821.357163	1092.238095
1823.152249	1104.676190
1824.941682	1102.495238
1826.734253	1094.171429
1828.524688	1089.838095
1830.312988	1102.038095
1832.104424	1090.780952
1833.890214	1083.123810
1835.677384	1077.990476
1837.462422	1072.390476
1839.250594	1074.333333
1841.034880	1081.152381
1842.817037	1072.609524
1844.600572	1084.495238
1846.381980	1094.009524
1848.164765	1093.009524
1849.943671	1094.990476
1851.723955	1089.380952
1853.502114	1070.866667
1855.281650	1077.428571
1857.059062	1076.857143
1858.834350	1073.066667
1860.611017	1084.666667
1862.385561	1080.828571
1864.161482	1071.971429
1865.931784	1081.800000
1867.705213	1083.371429
1869.476522	1076.114286
1871.247460	1079.638095
1873.019775	1065.476190
1874.786478	1060.161905
1876.556305	1064.542857
1878.322269	1067.800000
1880.091357	1072.057143
1881.856583	1088.085714
1883.621441	1095.571429
1885.387675	1093.409524
1887.150051	1079.619048
1888.912060	1066.609524
1890.673702	1057.790476
1892.434976	1068.352381
1894.195884	1085.276190
1895.956424	1082.352381
1897.714855	1075.019048
1899.472921	1068.190476
1901.228879	1053.495238
1902.986213	1061.761905
1904.743181	1071.190476
1906.498044	1071.133333
1908.250801	1069.647619
1910.003195	1059.380952
1911.756964	1048.314286
1913.508630	1042.523810
1915.258194	1041.647619
1917.009134	1045.866667
1918.759710	1038.561905
1920.506448	1031.200000
1922.254561	1036.209524
1924.000575	1034.895238
1925.747965	1041.971429
1927.493256	1058.257143
1929.236450	1052.152381
1930.981020	1052.961905
1932.723493	1048.190476
1934.465606	1050.580952
1936.207359	1052.152381
1937.948753	1050.876190
1939.688053	1046.247619
1941.426994	1050.438095
1943.165576	1053.190476
1944.902066	1066.628571
1946.638199	1075.047619
1948.375706	1068.514286
1950.109392	1072.533333
1951.844452	1067.276190
1953.577423	1077.238095
1955.310038	1082.238095
1957.042296	1087.847619
1958.774198	1080.238095
1960.504014	1070.800000
1962.231746	1058.923810
1963.960851	1061.057143
1965.689602	1066.714286
1967.416269	1070.857143
1969.142582	1068.038095
1970.870268	1054.333333
1972.592418	1054.733333
1974.317670	1061.000000
1976.039114	1069.276190
1977.763658	1068.161905
1979.486123	1080.419048
1981.204784	1077.819048
1982.926544	1080.171429
1984.644502	1081.447619
1986.363834	1081.380952
1988.079365	1074.895238
1989.799718	1083.257143
1991.516271	1076.971429
1993.229029	1080.695238
1994.944882	1077.276190
1996.658662	1078.542857
1998.372093	1079.190476
2000.083453	1078.485714
2001.796186	1083.009524
2003.505127	1095.704762
2005.217162	1084.104762
2006.923687	1083.457143
2008.633305	1088.304762
2010.340855	1091.000000
2012.048058	1084.009524
2013.753195	1084.580952
2015.457985	1074.133333
2017.164147	1085.171429
2018.866527	1096.466667
2020.570279	1107.990476
2022.271968	1095.733333
2023.973311	1082.933333
2025.674309	1077.847619
2027.373247	1083.390476
2029.073556	1092.066667
2030.770089	1105.647619
2032.467994	1108.609524
2034.163841	1096.504762
2035.862773	1098.685714
2037.556218	1092.009524
2039.251036	1095.266667
2040.945510	1105.695238
2042.636216	1104.514286
2044.330006	1095.780952
2046.020029	1088.866667
2047.711423	1077.600000
2049.400764	1081.600000
2051.091475	1090.047619
2052.778424	1091.400000
2054.465032	1078.380952
2056.153011	1079.009524
2057.837230	1076.600000
2059.522819	1076.676190
2061.208069	1075.628571
2062.891271	1074.504762
2064.575843	1067.828571
2066.254951	1059.819048
2067.938845	1048.600000
2069.617279	1048.228571
2071.298790	1061.200000
2072.976549	1068.523810
2074.653972	1071.723810
2076.332764	1062.952381
2078.009513	1050.076190
2079.684221	1050.295238
2081.360298	1054.285714
2083.034335	1057.971429
2084.708036	1062.038095
2086.381402	1060.657143
2088.052730	1053.276190
2089.723723	1050.333333
2091.394382	1041.295238
2093.064707	1038.238095
2094.734697	1033.200000
2096.402652	1040.352381
2098.070274	1048.752381
2099.735862	1058.552381
2101.402818	1079.266667
2103.067741	1085.771429
2104.732331	1076.342857
2106.394890	1075.504762
2108.058818	1071.304762
2109.720714	1065.847619
2111.382279	1073.476190
2113.043514	1077.523810
2114.702719	1068.104762
2116.361595	1066.704762
2118.020140	1078.038095
2119.678356	1083.361905
2121.332848	1079.933333
2122.990406	1089.038095
2124.647633	1080.428571
2126.301140	1077.114286
2127.956014	1073.019048
2129.607169	1068.200000
2131.261387	1077.533333
2132.911887	1093.780952
2134.563755	1101.980952
2136.210214	1097.200000
2137.861427	1079.409524
2139.508927	1063.400000
2141.157795	1063.276190
2142.804643	1060.619048
2144.451165	1070.695238
2146.097362	1062.057143
2147.739851	1065.761905
2149.385398	1072.028571
2151.027238	1065.609524
2152.672135	1070.961905
2154.313327	1071.714286
2155.954195	1061.790476
2157.594740	1054.676190
2159.233272	1054.352381
2160.873170	1051.504762
2162.509368	1068.019048
2164.146932	1067.428571
2165.784174	1073.847619
2167.419406	1077.257143
2169.054316	1072.819048
2170.688905	1062.733333
2172.323173	1054.847619
2173.953747	1034.352381
2175.587372	1040.085714
2177.217306	1050.819048
2178.848605	1048.257143
2180.477900	1046.552381
2182.106874	1053.161905
2183.735530	1045.504762
2185.363866	1051.980952
2186.990199	1050.390476
2188.616214	1038.990476
2190.240228	1029.533333
2191.865607	1040.371429
2193.488985	1037.504762
2195.113728	1039.380952
2196.734789	1042.419048
2198.355535	1048.009524
2199.977644	1046.847619
2201.597756	1055.619048
2203.215872	1049.523810
2204.833672	1035.333333
2206.451156	1029.095238
2208.068325	1024.638095
2209.685179	1024.295238
2211.301718	1026.990476
2212.916263	1038.257143
2214.528816	1044.876190
2216.142734	1048.409524
2217.754659	1040.933333
2219.367949	1028.447619
2220.979247	1019.485714
2222.588557	1016.866667
2224.199229	1013.695238
2225.807913	1023.285714
2227.416285	1038.952381
2229.022669	1040.590476
2230.630417	1050.819048
2232.236178	1036.828571
2233.841628	1029.247619
2235.445094	1030.495238
2237.049922	1031.580952
2238.652766	1030.961905
2240.253627	1031.819048
2241.855851	1026.619048
2243.456092	1021.380952
2245.057697	1022.028571
2246.655648	1010.238095
2248.254962	1008.361905
2249.852296	1005.742857
2251.449322	1018.904762
2253.047709	1031.780952
2254.642448	1052.752381
2256.235211	1048.828571
2257.829335	1047.171429
2259.424821	1029.361905
2261.016663	1027.304762
2262.608198	1033.342857
2264.201094	1026.171429
2265.788681	1011.457143
2267.380965	1000.085714
2268.967941	997.304762
2270.557946	1003.390476
2272.142646	1017.419048
2273.732040	999.771429
2275.316131	989.742857
2276.901584	985.952381
2278.485068	995.276190
2280.071577	1002.380952
2281.654453	1007.600000
2283.237025	1005.761905
2284.819295	1001.676190
2286.397934	1006.057143
2287.979597	1003.266667
2289.557632	999.419048
2291.138691	994.838095
2292.716122	996.219048
2294.291590	994.857143
2295.870080	987.457143
2297.444945	973.714286
2299.019510	972.028571
2300.593775	982.076190
2302.167739	997.485714
2303.741403	1011.057143
2305.314766	997.228571
2306.884511	969.180952
2308.453957	961.247619
2310.026422	956.600000
2311.593611	984.095238
2313.163819	1002.761905
2314.730412	999.266667
2316.298365	973.380952
2317.864363	962.600000
2319.430063	952.895238
2320.995465	968.285714
2322.558914	984.342857
2324.123721	998.361905
2325.684921	1009.733333
2327.249135	1029.800000
2328.808088	1036.323810
2330.370054	1015.180952
2331.930070	1001.790476
2333.489790	988.847619
2335.047561	980.000000
2336.605038	991.676190
2338.162219	994.114286
2339.717454	995.609524
2341.272394	1000.400000
2342.827041	1006.704762
2344.381394	1002.552381
2345.935453	995.409524
2347.489219	972.238095
2349.041040	976.609524
2350.590918	974.657143
2352.143804	984.219048
2353.691448	993.380952
2355.242099	984.676190
2356.789160	961.209524
2358.337578	959.904762
2359.885704	954.666667
2361.430243	960.828571
2362.976139	969.847619
2364.520096	972.209524
2366.065411	976.142857
2367.607141	971.704762
2369.150229	964.114286
2370.691380	971.733333
2372.232242	963.361905
2373.772815	955.876190
2375.313099	953.542857
2376.853094	956.285714
2378.389510	960.333333
2379.928928	963.485714
2381.464769	958.866667
2383.001966	947.085714
2384.535589	944.047619
2386.072211	953.961905
2387.606902	957.685714
2389.139664	945.561905
2390.672140	939.219048
2392.202687	931.000000
2393.736232	952.276190
2395.264566	966.380952
2396.794256	971.771429
2398.323661	955.809524
2399.852781	939.580952
2401.381615	930.504762
2402.905245	947.942857
2404.433510	948.657143
2405.956572	961.123810
2407.484269	960.028571
2409.005125	953.600000
2410.530615	950.276190
2412.052544	946.857143
2413.575829	939.638095
2415.097193	958.123810
2416.616637	970.600000
2418.137436	968.295238
2419.656316	970.028571
2421.174914	950.295238
2422.691595	951.590476
2424.209631	957.523810
2425.727385	957.047619
2427.241587	952.009524
2428.755509	953.447619
2430.269152	934.885714
2431.784148	927.114286
2433.295596	931.352381
2434.808399	926.885714
2436.319289	927.714286
2437.829899	924.047619
2439.338598	912.809524
2440.850284	908.923810
2442.358426	925.228571
2443.866289	936.200000
2445.373875	949.095238
2446.877921	943.923810
2448.384951	939.809524
2449.890073	935.247619
2451.394918	927.457143
2452.897856	919.523810
2454.400517	920.342857
2455.902902	915.638095
2457.403382	926.771429
2458.905215	920.371429
2460.405144	918.609524
2461.904797	921.238095
2463.404175	912.314286
2464.901650	902.533333
2466.397223	901.885714
2467.895776	885.828571
2469.390800	893.476190
2470.887178	911.590476
2472.380029	915.790476
2473.874232	917.133333
2475.368162	920.990476
2476.858569	904.057143
2478.351953	905.219048
2479.843438	911.952381
2481.333027	916.352381
2482.822344	917.314286
2484.309766	908.809524
2485.800163	887.276190
2487.287041	895.342857
2488.775271	909.323810
2490.259985	921.323810
2491.744428	931.933333
2493.230223	920.228571
2494.714125	909.590476
2496.199379	915.314286
2497.679499	913.600000
2499.162591	909.428571
2500.643793	904.638095
2502.124726	905.266667
2503.603770	910.580952
2505.082546	912.476190
2506.561053	919.333333
2508.039291	924.638095
2509.517261	916.304762
2510.991727	911.666667
2512.469161	901.914286
2513.943092	897.914286
2515.418374	908.209524
2516.893388	910.419048
2518.364901	905.647619
2519.837765	897.514286
2521.308745	888.819048
2522.781076	889.552381
2524.248294	899.123810
2525.718478	904.771429
2527.186780	911.123810
2528.654818	903.285714
2530.122591	901.314286
2531.590099	896.904762
2533.057342	892.942857
2534.521094	897.723810
2535.986195	895.476190
2537.449419	897.266667
2538.913992	908.771429
2540.375076	917.219048
2541.837511	916.114286
2543.299682	916.619048
2544.758366	911.219048
2546.221623	908.580952
2547.679783	905.190476
2549.139292	910.638095
2550.593708	914.552381
2552.052694	917.857143
2553.509807	920.304762
2554.965050	921.904762
2556.420032	919.952381
2557.873144	920.828571
2559.327605	913.019048
2560.780197	903.209524
2562.232529	898.066667
2563.682993	912.504762
2565.136413	909.142857
2566.584751	903.152381
2568.036045	889.066667
2569.485472	872.704762
2570.931428	876.552381
2572.380338	894.866667
2573.825777	903.800000
2575.272565	905.714286
2576.717489	899.790476
2578.162156	891.876190
2579.608170	893.485714
2581.050717	899.133333
2582.494612	890.200000
2583.935042	882.438095
2585.376820	881.628571
2586.816738	875.352381
2588.258003	875.695238
2589.695806	888.752381
2591.136559	882.161905
2592.572249	884.914286
2594.010889	901.314286
2595.447672	893.485714
2596.882598	899.761905
2598.320473	901.066667
2599.753290	892.923810
2601.187454	885.942857
2602.619763	886.580952
2604.053419	877.838095
2605.485222	873.095238
2606.916772	880.114286
2608.348068	882.542857
2609.777513	887.047619
2611.206705	882.723810
2612.634046	870.333333
2614.062734	859.104762
2615.491169	875.695238
2616.916158	890.819048
2618.342492	898.352381
2619.766978	889.619048
2621.192810	870.609524
2622.615198	863.552381
2624.038932	852.990476
2625.460820	850.009524
2626.882457	849.076190
2628.302249	845.209524
2629.723387	836.876190
2631.144275	853.819048
2632.561725	860.085714
2633.982114	864.523810
2635.399066	875.390476
2636.815770	872.980952
2638.232225	857.228571
2639.648432	866.152381
2641.064390	868.504762
2642.478508	864.171429
2643.892379	869.980952
2645.304410	864.571429
2646.717786	852.704762
2648.127732	863.266667
2649.540614	865.914286
2650.950067	863.180952
2652.359274	861.371429
2653.766645	855.580952
2655.176950	846.285714
2656.585419	853.438095
2657.992053	857.200000
2659.398442	855.476190
2660.802997	851.114286
2662.208896	853.390476
2663.612962	868.076190
2665.016784	877.609524
2666.420361	882.809524
2667.822106	885.238095
2669.225195	873.752381
2670.624867	862.533333
2672.025882	868.019048
2673.423480	858.219048
2674.824009	857.238095
2676.221123	855.457143
2677.619580	852.400000
2679.016209	850.714286
2680.412597	850.904762
2681.808742	846.933333
2683.203061	859.152381
2684.598723	858.504762
2685.990975	865.409524
2687.384571	855.514286
2688.776342	837.923810
2690.169455	831.685714
2691.560745	837.142857
2692.950212	829.638095
2694.339440	834.104762
2695.728427	836.780952
2697.118757	839.952381
2698.504102	848.304762
2699.892372	857.800000
2701.278820	839.171429
2702.665031	831.104762
2704.051002	826.123810
2705.433575	821.047619
2706.817489	823.171429
2708.201166	832.466667
2709.584605	827.609524
2710.964648	832.152381
2712.346033	826.704762
2713.725602	823.123810
2715.106513	827.542857
2716.485609	835.219048
2717.862890	842.171429
2719.241513	841.476190
2720.618323	831.971429
2721.994897	812.428571
2723.371235	818.323810
2724.745761	822.342857
2726.121628	837.028571
2727.494108	837.761905
2728.869505	832.809524
2730.239940	816.276190
2731.611717	820.019048
2732.983260	813.219048
2734.352994	823.142857
2735.724068	820.238095
2737.093335	824.904762
2738.462368	830.742857
2739.829594	831.647619
2741.196588	824.104762
2742.563349	821.609524
2743.929877	810.695238
2745.294600	815.314286
2746.659092	825.809524
2748.023351	843.047619
2749.387379	850.561905
2750.751174	846.371429
2752.111596	833.723810
2753.474929	819.495238
2754.833319	818.828571
2756.194619	832.447619
2757.552548	836.657143
2758.913387	835.780952
2760.272425	826.638095
2761.628095	808.371429
2762.986673	797.971429
2764.341885	803.647619
2765.696867	806.238095
2767.050052	839.742857
2768.406144	841.638095
2769.758872	833.161905
2771.111371	809.161905
2772.463642	792.676190
2773.817252	782.361905
2775.167500	790.104762
2776.515955	784.657143
2777.867314	783.780952
2779.215314	779.819048
2780.564653	791.761905
2781.912199	812.142857
2783.259518	818.361905
2784.606611	822.857143
2785.951913	811.085714
2787.296989	792.228571
2788.641839	775.561905
2789.986463	768.476190
2791.327734	774.647619
2792.670344	787.047619
2794.012729	787.980952
2795.354888	794.076190
2796.693698	788.723810
2798.035408	792.942857
2799.373769	800.580952
2800.713468	802.695238
2802.051381	790.352381
2803.387510	783.180952
2804.723416	780.238095
2806.060658	791.333333
2807.396117	796.390476
2808.731353	796.114286
2810.064807	797.257143
2811.399597	789.942857
2812.731046	791.628571
2814.065391	795.247619
2815.394838	791.000000
2816.725622	786.000000
2818.056184	789.180952
2819.384967	781.695238
2820.715087	786.723810
2822.043427	794.704762
2823.371547	800.457143
2824.697890	796.628571
2826.025568	784.171429
2827.349914	771.819048
2828.675595	771.361905
2829.999502	761.552381
2831.323188	756.666667
2832.648210	757.342857
2833.969903	760.895238
2835.291376	783.285714
2836.612631	798.790476
2837.933667	803.342857
2839.252931	788.742857
2840.573530	779.780952
2841.892357	769.876190
2843.210966	769.495238
2844.527805	769.666667
2845.844426	778.752381
2847.160829	762.047619
2848.475464	757.457143
2849.791433	757.238095
2851.104082	767.352381
2852.418067	783.276190
2853.731835	796.723810
2855.045386	788.990476
2856.357170	782.333333
2857.667189	767.666667
2858.978542	757.704762
2860.286579	760.542857
2861.595952	773.219048
2862.905109	779.304762
2864.214051	786.390476
2865.521230	792.438095
2866.826645	786.961905
2868.133395	780.180952
2869.438382	782.380952
2870.743156	781.352381
2872.046168	781.571429
2873.352062	785.428571
2874.653101	784.019048
2875.955473	783.771429
2877.256086	784.285714
2878.558033	785.323810
2879.859767	784.371429
2881.158197	782.942857
2882.457960	782.685714
2883.755966	794.971429
2885.053760	796.123810
2886.349797	798.333333
2887.647168	792.790476
2888.942783	784.952381
2890.238188	780.676190
2891.533381	784.228571
2892.825276	784.647619
2894.120048	780.152381
2895.411523	775.752381
2896.704332	781.866667
2897.996930	787.657143
2899.286233	785.552381
2900.576869	776.761905
2901.865754	766.704762
2903.155972	774.533333
2904.442898	785.342857
2905.731156	783.447619
2907.017665	778.771429
2908.303965	769.114286
2909.590057	757.038095
2910.874401	763.800000
2912.161617	755.438095
2913.444006	753.695238
2914.727727	761.038095
2916.009701	764.238095
2917.291469	764.447619
2918.571491	778.895238
2919.854383	775.133333
2921.135530	771.352381
2922.413395	772.980952
2923.694129	779.695238
2924.971582	780.990476
2926.248830	791.847619
2927.524335	786.123810
2928.802708	767.504762
2930.076266	759.142857
2931.352692	763.857143
2932.627377	765.457143
2933.900322	762.228571
2935.174597	757.400000
2936.447133	760.609524
2937.719465	763.438095
2938.988524	768.552381
2940.260448	772.476190
2941.530633	757.971429
2942.800616	749.771429
2944.070395	745.238095
2945.338437	736.352381
2946.604744	747.704762
2947.870848	746.000000
2949.138283	749.019048
2950.403982	759.019048
2951.669479	755.857143
2952.934774	745.352381
2954.196805	744.676190
2955.460165	733.171429
2956.723324	731.180952
2957.984750	740.933333
2959.247506	734.819048
2960.508531	728.561905
2961.767825	726.857143
2963.026918	727.276190
2964.285811	720.161905
2965.544504	719.857143
2966.802997	713.114286
2968.059761	713.523810
2969.316325	720.514286
2970.571162	736.590476
2971.827328	737.771429
2973.080238	734.171429
2974.334478	725.876190
2975.588519	713.904762
2976.840834	704.438095
2978.092951	716.000000
2979.343343	713.533333
2980.596590	716.447619
2981.845060	715.371429
2983.096384	726.361905
2984.344460	722.209524
2985.592338	724.085714
2986.840019	722.409524
2988.087504	716.142857
2989.333267	719.580952
2990.578833	723.333333
2991.825728	719.866667
2993.069377	715.704762
2994.314355	715.171429
2995.556090	703.152381
2996.800676	711.609524
2998.043543	698.752381
2999.283168	696.857143
3000.525645	695.219048
3001.764881	704.066667
3003.005445	708.571429
3004.244292	715.638095
3005.482945	705.628571
3006.719882	698.085714
3007.958146	690.123810
3009.194696	687.885714
3010.431052	686.733333
3011.667214	690.257143
3012.901662	692.276190
3014.135917	699.552381
3015.369979	700.790476
3016.602329	686.009524
3017.832967	679.876190
3019.066451	670.333333
3020.298224	671.114286
3021.528285	678.771429
3022.758155	693.438095
3023.986315	695.847619
3025.215802	697.790476
3026.443579	696.142857
3027.671165	689.952381
3028.900077	692.895238
3030.124247	694.590476
3031.351260	694.609524
3032.575050	693.771429
3033.800165	691.552381
3035.023574	676.771429
3036.246794	685.247619
3037.468308	691.219048
3038.692663	693.866667
3039.912283	691.476190
3041.133229	681.523810
3042.353985	677.028571
3043.573038	678.971429
3044.793417	679.542857
3046.010579	677.009524
3047.229066	679.200000
3048.445852	673.771429
3049.662449	681.200000
3050.878859	682.504762
3052.092055	672.676190
3053.308089	665.161905
3054.520911	662.161905
3055.736570	664.514286
3056.947506	681.761905
3058.159768	699.495238
3059.371842	691.638095
3060.583730	677.685714
3061.793920	663.723810
3063.003925	657.704762
3064.213743	660.638095
3065.421865	666.485714
3066.629801	659.771429
3067.836043	658.380952
3069.043609	654.971429
3070.249480	657.666667
3071.455166	668.361905
3072.660667	675.904762
3073.864476	685.200000
3075.069608	691.466667
3076.273047	673.085714
3077.474794	667.419048
3078.676358	662.980952
3079.877738	659.428571
3081.078934	654.247619
3082.278440	657.533333
3083.477762	649.552381
3084.678408	646.247619
3085.877365	642.628571
3087.073126	651.885714
3088.271717	643.657143
3089.467114	645.647619
3090.663835	643.104762
3091.857363	639.104762
3093.053719	637.228571
3094.248388	642.866667
3095.439867	637.495238
3096.635677	639.190476
3097.826794	627.523810
3099.019234	623.790476
3100.208485	628.009524
3101.400563	629.542857
3102.590957	629.866667
3103.778164	634.942857
3104.966695	623.152381
3106.156548	625.161905
3107.343216	630.714286
3108.529705	635.257143
3109.716014	629.247619
3110.903646	626.800000
3112.088095	632.257143
3113.270864	635.133333
3114.456457	637.314286
3115.640369	632.961905
3116.822603	619.580952
3118.004659	610.209524
3119.186536	619.142857
3120.368235	619.400000
3121.548257	624.619048
3122.726601	627.142857
3123.907767	630.600000
3125.085757	625.571429
3126.263570	619.676190
3127.441206	608.152381
3128.617167	606.380952
3129.792952	604.342857
3130.970057	616.428571
3132.145489	617.352381
3133.319247	623.485714
3134.491332	624.200000
3135.664738	624.657143
3136.837969	622.009524
3138.009527	628.428571
3139.182407	622.876190
3140.352119	625.523810
3141.523152	618.552381
3142.692514	615.761905
3143.860207	620.704762
3145.030715	620.409524
3146.196564	612.866667
3147.366723	608.961905
3148.532224	607.161905
3149.697552	616.666667
3150.862706	623.638095
3152.027687	610.857143
3153.193987	604.600000
3154.355634	602.485714
3155.518602	601.257143
3156.681396	607.304762
3157.844018	608.228571
3159.004975	599.942857
3160.165759	596.323810
3161.326371	597.419048
3162.485320	586.828571
3163.644096	583.047619
3164.802701	583.171429
3165.961134	587.342857
3167.119395	577.895238
3168.275994	583.019048
3169.430932	581.695238
3170.587189	575.000000
3171.741786	584.114286
3172.896211	591.838095
3174.048977	590.142857
3175.201573	589.742857
3176.353999	585.952381
3177.506254	578.819048
3178.658340	581.133333
3179.807279	583.380952
3180.959025	587.561905
3182.109114	584.723810
3183.257545	583.190476
3184.405808	573.409524
3185.553902	573.590476
3186.701826	569.533333
3187.848096	571.914286
3188.994197	570.247619
3190.138644	577.866667
3191.282922	575.885714
3192.427033	580.428571
3193.572462	586.971429
3194.714752	591.514286
3195.856874	591.942857
3196.998830	591.647619
3198.140618	588.580952
3199.282239	578.723810
3200.420724	576.390476
3201.560528	577.352381
3202.701648	575.895238
3203.839634	576.628571
3204.975971	585.904762
3206.112142	587.371429
3207.249631	590.123810
3208.385471	591.485714
3209.522627	581.847619
3210.655171	577.019048
3211.791997	571.790476
3212.924211	564.885714
3214.057743	564.504762
3215.191109	553.723810
3216.321348	555.457143
3217.454385	560.333333
3218.584296	562.114286
3219.715524	563.819048
3220.843626	558.047619
3221.974526	551.457143
3223.103781	551.333333
3224.231392	555.885714
3225.355882	556.000000
3226.484647	552.733333
3227.610290	548.352381
3228.735770	552.695238
3229.859609	541.542857
3230.986243	537.495238
3232.108278	539.057143
3233.231630	543.142857
3234.354820	554.019048
3235.477848	555.942857
3236.599236	542.761905
3237.720463	534.238095
3238.840051	533.600000
3239.959478	528.752381
3241.077267	534.780952
3242.197849	531.619048
3243.315317	540.485714
3244.432624	559.276190
3245.549770	565.257143
3246.665281	560.714286
3247.782107	553.533333
3248.895822	548.485714
3250.012328	550.790476
3251.127198	560.409524
3252.238960	557.742857
3253.350563	545.133333
3254.463481	537.361905
3255.576239	538.361905
3256.685891	537.028571
3257.796858	541.009524
3258.907666	551.476190
3260.016842	542.904762
3261.124387	542.780952
3262.233247	537.019048
3263.341948	536.571429
3264.447547	554.161905
3265.554461	579.628571
3266.659745	579.066667
3267.766343	563.257143
3268.869841	536.723810
3269.974653	527.104762
3271.079308	533.200000
3272.180865	541.076190
3273.282265	540.961905
3274.384979	535.542857
3275.487536	538.685714
3276.586998	551.561905
3277.689242	559.085714
3278.788392	561.885714
3279.885916	549.209524
3280.983285	538.447619
3282.083437	537.038095
3283.180495	535.019048
3284.277399	527.038095
3285.374147	521.257143
3286.466336	519.980952
3287.562775	520.771429
3288.657591	539.780952
3289.752252	545.923810
3290.845292	534.914286
3291.938178	519.476190
3293.029443	513.876190
3294.122021	511.676190
3295.212979	522.247619
3296.302317	524.771429
3297.391502	531.800000
3298.481999	533.371429
3299.569412	527.857143
3300.656673	522.885714
3301.745246	508.361905
3302.833666	491.333333
3303.917539	493.628571
3305.005654	498.942857
3306.090688	498.980952
3307.174106	496.323810
3308.258836	504.495238
3309.341950	503.304762
3310.426376	507.209524
3311.507724	500.247619
3312.590384	501.571429
3313.671430	497.276190
3314.752325	503.285714
3315.831607	506.990476
3316.910738	509.342857
3317.991180	501.238095
3319.068549	507.647619
3320.147229	504.152381
3321.224297	502.600000
3322.301215	502.723810
3323.376523	501.200000
3324.451681	494.990476
3325.528150	498.038095
3326.601548	493.590476
3327.674798	487.542857
3328.749359	490.009524
3329.822310	492.028571
3330.893654	502.619048
3331.966308	505.590476
3333.035895	502.152381
3334.106793	494.333333
3335.176084	495.352381
3336.246686	496.838095
3337.315681	500.790476
3338.383070	494.714286
3339.448854	491.190476
3340.518864	494.885714
3341.585811	495.323810
3342.649696	483.266667
3343.716349	485.895238
3344.781398	482.600000
3345.844843	487.323810
3346.908141	491.314286
3347.971294	485.990476
3349.034300	474.514286
3350.097159	471.857143
3351.158417	463.390476
3352.216618	464.676190
3353.279040	477.200000
3354.338405	475.247619
3355.397626	480.628571
3356.458155	481.590476
3357.514175	481.600000
3358.572960	472.638095
3359.627237	481.371429
3360.684278	467.923810
3361.739720	459.819048
3362.796471	449.685714
3363.851625	444.780952
3364.905181	442.038095
3365.957140	452.876190
3367.011861	469.295238
3368.063534	481.657143
3369.115062	469.161905
3370.167900	463.457143
3371.217690	455.295238
3372.268789	456.333333
3373.316841	461.895238
3374.367654	470.638095
3375.415421	458.314286
3376.463046	478.009524
3377.510529	485.209524
3378.556418	483.323810
3379.603617	482.104762
3380.647772	484.104762
3381.694686	471.819048
3382.740008	487.495238
3383.782290	489.409524
3384.824430	479.161905
3385.867879	472.504762
3386.911186	476.495238
3387.952903	478.561905
3388.994479	480.333333
3390.035915	478.285714
3391.075762	473.523810
3392.114020	472.076190
3393.153586	472.695238
3394.193012	475.638095
3395.230850	470.409524
3396.267101	473.066667
3397.303212	464.047619
3398.340631	460.209524
3399.375017	457.314286
3400.410711	454.380952
3401.446265	458.647619
3402.478787	464.761905
3403.514063	459.638095
3404.546308	455.657143
3405.578415	457.047619
3406.608938	454.161905
3407.640769	460.504762
3408.672461	455.466667
3409.701125	455.542857
3410.729651	452.523810
3411.759485	454.209524
3412.789180	456.304762
3413.815850	463.590476
3414.843827	463.685714
3415.868779	460.619048
3416.896481	460.304762
3417.921160	458.866667
3418.947145	455.914286
3419.971551	458.904762
3420.995819	449.914286
3422.018509	445.980952
3423.041063	458.790476
3424.064923	453.771429
3425.085763	453.352381
3426.106468	451.676190
3427.128478	441.352381
3428.147470	433.771429
3429.166327	435.676190
3430.186489	436.704762
3431.203635	432.423810
