-118.052978	-19.800000
-115.383377	-6.600000
-112.716712	27.600000
-110.050800	-20.600000
-107.387819	-10.600000
-104.723409	-0.600000
-102.061929	-2.000000
-99.399019	10.800000
-96.741217	-0.600000
-94.081984	20.200000
-91.423500	-4.600000
-88.767941	-4.400000
-86.110953	2.400000
-83.459062	16.000000
-80.805742	-1.000000
-78.155342	-7.000000
-75.503512	15.600000
-72.856773	9.800000
-70.208604	7.800000
-67.561179	-6.000000
-64.916667	34.200000
-62.270727	6.000000
-59.629868	10.000000
-56.987579	2.800000
-54.348200	28.000000
-51.707392	4.600000
-49.067323	0.200000
-46.432328	15.200000
-43.795903	3.600000
-41.162382	-3.200000
-38.527432	26.600000
-35.897547	-9.200000
-33.264069	56.400000
-30.635654	33.600000
-28.007973	19.200000
-25.378864	43.200000
-22.754811	51.200000
-20.127169	59.200000
-17.504580	73.000000
-14.882722	98.600000
-12.261595	211.000000
-9.641199	453.800000
-7.023690	1555.400000
-4.404753	5278.800000
-1.788702	15081.800000
0.826621	20694.000000
3.441217	11027.800000
6.052931	1197.200000
8.666072	171.600000
11.274180	103.800000
13.885870	73.200000
16.492529	42.000000
19.100616	29.200000
21.707979	17.000000
24.310317	17.400000
26.916233	9.200000
29.517128	7.000000
32.119450	12.200000
34.716754	-2.200000
37.317634	16.200000
39.913500	6.000000
42.510793	25.600000
45.107367	34.000000
47.698932	46.600000
50.291925	7.000000
52.882057	-4.400000
55.473617	10.200000
58.062317	23.200000
60.652445	3.200000
63.237573	7.200000
65.824129	-11.400000
68.409970	21.800000
70.992958	-0.200000
73.577373	23.000000
76.154658	6.800000
78.735510	0.800000
81.313513	29.200000
83.890806	4.600000
86.469525	3.000000
89.043263	-0.200000
91.618427	5.600000
94.190748	-1.800000
96.762362	8.000000
99.331135	-6.400000
101.901335	-4.400000
104.468696	3.200000
107.037484	8.400000
109.603434	1.400000
112.166550	8.200000
114.733223	20.000000
117.290673	41.000000
119.853809	19.200000
122.411986	62.800000
124.973716	69.600000
127.530491	99.600000
130.088691	152.600000
132.641939	244.000000
135.194488	367.600000
137.750589	520.000000
140.301741	638.000000
142.852195	780.000000
145.401953	832.800000
147.948891	956.400000
150.495133	999.400000
153.042802	1012.800000
155.589774	1056.600000
158.131810	1052.000000
160.673153	1022.600000
163.213804	987.400000
165.755879	1022.400000
168.295144	1014.000000
170.831599	1000.200000
173.367364	1022.200000
175.904554	1019.200000
178.441052	971.400000
180.974745	957.200000
183.505635	972.600000
186.035836	933.200000
188.567462	951.400000
191.096287	951.400000
193.622314	946.000000
196.147654	985.800000
198.674419	986.200000
201.198388	979.000000
203.721671	987.400000
206.244270	949.600000
208.764076	959.400000
211.283199	974.000000
213.801639	1024.800000
216.321503	978.000000
218.834366	1028.200000
221.350760	1031.400000
223.866472	1088.000000
226.377295	1128.600000
228.889542	1110.400000
231.399006	1149.400000
233.907792	1109.400000
236.415900	1164.000000
238.925432	1138.400000
241.430083	1154.400000
243.934058	1190.800000
246.439457	1144.200000
248.939981	1155.800000
251.444028	1161.400000
253.941105	1159.000000
256.441704	1182.000000
258.939532	1176.600000
261.436687	1186.000000
263.933169	1184.600000
266.424789	1199.600000
268.919927	1189.800000
271.412300	1172.800000
273.904002	1227.200000
276.392941	1221.200000
278.883303	1279.800000
281.370904	1241.000000
283.855745	1292.000000
286.344100	1318.400000
288.825516	1285.400000
291.310447	1329.800000
293.790531	1375.600000
296.274128	1410.000000
298.752883	1443.000000
301.233060	1491.200000
303.710486	1532.400000
306.187248	1472.400000
308.663346	1423.800000
311.136696	1368.000000
313.609385	1339.400000
316.081411	1369.600000
318.552777	1374.000000
321.021399	1392.400000
323.489361	1410.800000
325.958746	1332.800000
328.423308	1310.200000
330.891373	1264.000000
333.354619	1284.400000
335.817208	1238.400000
338.279139	1214.200000
340.740414	1228.800000
343.198955	1249.000000
345.658918	1204.000000
348.116149	1222.600000
350.572725	1205.200000
353.028646	1175.800000
355.481839	1244.600000
357.936454	1186.600000
360.386267	1190.000000
362.839576	1203.200000
365.288086	1182.200000
367.735946	1151.600000
370.185227	1162.400000
372.629715	1160.200000
375.075625	1131.200000
377.520886	1137.400000
379.963428	1144.600000
382.405322	1130.000000
384.846568	1128.600000
387.285099	1095.000000
389.725052	1086.000000
392.162291	1116.000000
394.596818	1125.400000
397.034833	1086.400000
399.468071	1106.000000
401.902731	1130.000000
404.332617	1118.000000
406.765990	1116.800000
409.194591	1115.000000
411.622552	1115.200000
414.051933	1072.800000
416.476550	1119.200000
418.902587	1119.800000
421.327985	1092.200000
423.752742	1135.800000
426.172740	1145.400000
428.594160	1133.000000
431.012883	1126.400000
433.433027	1151.000000
435.850476	1113.800000
438.269345	1095.000000
440.685521	1074.600000
443.096950	1047.000000
445.511855	1076.800000
447.924070	1020.600000
450.335651	1043.400000
452.746598	1005.800000
455.154859	1035.600000
457.562488	988.200000
459.969484	1009.400000
462.375848	987.600000
464.779531	1026.200000
467.182583	1029.000000
469.585005	1070.400000
471.986797	1042.800000
474.385911	1045.600000
476.786445	1083.200000
479.186350	1102.200000
481.581532	1151.000000
483.980181	1158.400000
486.374110	1207.800000
488.767413	1215.400000
491.160090	1333.200000
493.552142	1370.600000
495.945613	1438.200000
498.334371	1570.800000
500.720463	1761.800000
503.107975	2093.800000
505.494863	2556.400000
507.879088	3470.400000
510.264732	5101.400000
512.647713	8647.000000
515.028034	16130.600000
517.409774	29393.000000
519.788855	40611.400000
522.169355	38134.200000
524.547197	24406.400000
526.922384	12424.800000
529.296953	7239.800000
531.672941	4904.800000
534.046275	3778.400000
536.421028	3020.200000
538.791094	2589.800000
541.160545	2244.200000
543.531415	2033.400000
545.897603	1799.000000
548.265210	1701.800000
550.630171	1566.600000
552.994519	1498.600000
555.358255	1418.200000
557.723408	1358.600000
560.083889	1323.200000
562.445787	1276.200000
564.805046	1231.600000
567.161666	1204.400000
569.521732	1163.400000
571.875106	1122.200000
574.231925	1076.200000
576.586109	1076.000000
578.939684	1036.000000
581.292651	1048.600000
583.642987	1040.200000
585.994739	1018.600000
588.339815	1012.600000
590.690355	1001.600000
593.034222	970.400000
595.383549	991.800000
597.728229	997.000000
600.070284	998.600000
602.413756	990.600000
604.754604	988.600000
607.094851	987.400000
609.432477	1017.800000
611.773538	1022.000000
614.109962	1008.600000
616.447802	1004.000000
618.783024	1055.000000
621.115631	984.200000
623.449655	974.800000
625.781064	997.600000
628.111875	956.000000
630.442088	916.400000
632.771703	913.400000
635.096696	922.800000
637.427130	938.800000
639.752942	953.000000
642.076148	941.600000
644.400770	914.800000
646.722786	906.200000
649.044208	918.000000
651.363027	910.400000
653.683262	951.400000
656.002904	928.200000
658.319945	919.000000
660.636395	950.600000
662.950246	924.800000
665.265512	885.400000
667.578182	941.600000
669.892267	926.400000
672.201753	917.000000
674.512653	961.400000
676.820961	937.600000
679.128681	932.000000
681.437816	882.200000
683.742358	902.400000
686.046314	887.400000
688.349683	881.800000
690.654467	872.600000
692.954665	852.200000
695.256278	849.800000
697.557305	825.800000
699.853751	849.800000
702.151611	837.400000
704.448888	821.000000
706.745582	798.400000
709.037700	804.800000
711.333229	805.800000
713.624185	846.000000
715.916555	822.200000
718.206349	804.400000
720.495564	781.000000
722.784198	808.200000
725.070261	807.200000
727.357737	810.600000
729.642643	826.800000
731.926970	780.200000
734.208730	839.800000
736.491903	818.400000
738.774499	818.600000
741.052539	794.800000
743.331993	791.400000
745.610872	814.600000
747.889175	784.600000
750.162929	857.800000
752.438097	832.200000
754.712691	843.000000
756.984726	824.400000
759.258174	844.400000
761.529064	825.800000
763.797397	833.800000
766.067145	829.200000
768.334337	849.200000
770.600959	841.200000
772.867012	859.400000
775.130513	837.800000
777.395426	891.800000
779.659771	870.000000
781.919585	863.600000
784.180813	856.200000
786.441473	880.600000
788.699586	863.000000
790.955155	879.200000
793.214115	890.000000
795.466576	892.600000
797.724404	894.400000
799.977713	869.800000
802.228481	899.800000
804.480662	920.600000
806.730305	914.800000
808.981359	901.600000
811.227902	889.400000
813.475858	877.600000
815.721278	929.000000
817.968110	916.400000
820.214381	938.000000
822.456148	884.000000
824.701297	926.000000
826.939974	927.600000
829.182034	916.000000
831.419595	923.200000
833.658567	911.800000
835.895013	893.600000
838.132871	898.000000
840.368203	883.600000
842.601011	898.800000
844.835231	877.400000
847.066929	843.000000
849.298072	922.400000
851.528660	882.600000
853.758694	894.800000
855.988173	924.800000
858.213172	880.400000
860.441544	885.800000
862.665438	872.200000
864.890742	911.200000
867.111571	875.600000
869.335772	897.800000
871.555500	880.800000
873.776639	890.200000
875.997227	897.000000
878.215306	917.000000
880.434794	884.200000
882.649816	867.200000
884.864290	879.000000
887.078217	944.600000
889.291596	872.800000
891.504429	895.000000
893.716714	900.400000
895.926498	924.000000
898.135736	899.800000
900.344428	894.200000
902.550622	905.200000
904.758225	893.400000
906.963331	940.800000
909.167893	883.200000
911.369959	918.800000
913.573435	987.400000
915.774418	916.000000
917.974858	957.400000
920.176707	981.800000
922.372164	967.600000
924.570981	1061.000000
926.765360	1102.000000
928.963096	1203.000000
931.156396	1298.400000
933.351104	1416.600000
935.543327	1545.400000
937.735012	1694.200000
939.926159	1796.200000
942.114823	1871.600000
944.302950	1881.800000
946.488597	1841.000000
948.677596	1854.000000
950.862172	1860.600000
953.046213	1809.000000
955.233604	1879.600000
957.412692	1899.000000
959.595129	1864.400000
961.777033	1882.400000
963.956463	1918.200000
966.133420	1945.200000
968.311785	1988.600000
970.491556	1980.600000
972.664979	1957.400000
974.841748	1988.800000
977.014111	2001.600000
979.187880	1974.000000
981.357247	1934.800000
983.529957	1917.000000
985.700201	1804.400000
987.869917	1727.000000
990.039104	1689.600000
992.203894	1477.800000
994.372025	1440.600000
996.535762	1323.800000
998.700905	1273.800000
1000.863590	1241.800000
1003.025749	1219.400000
1005.185450	1184.200000
1007.344628	1140.800000
1009.505212	1127.400000
1011.663341	1109.400000
1013.820946	1101.400000
1015.978028	1089.600000
1018.134587	1036.600000
1020.286766	1081.200000
1022.440352	1015.200000
1024.593415	1052.000000
1026.744031	967.600000
1028.896052	999.800000
1031.043700	966.800000
1033.194680	950.600000
1035.341289	915.200000
1037.487380	948.400000
1039.632952	930.400000
1041.779928	945.400000
1043.920617	889.200000
1046.064634	919.000000
1048.206211	938.600000
1050.347272	876.600000
1052.489737	904.600000
1054.625923	906.800000
1056.765435	924.600000
1058.900591	891.000000
1061.039072	918.800000
1063.173200	874.000000
1065.306814	885.400000
1067.441832	889.600000
1069.572501	954.600000
1071.704576	896.000000
1073.834220	900.600000
1075.963353	878.800000
1078.091975	871.400000
1080.220085	919.200000
1082.345769	867.600000
1084.470943	880.600000
1086.597520	876.000000
1088.719761	892.400000
1090.843406	859.000000
1092.962716	880.400000
1095.087255	867.000000
1097.205550	877.200000
1099.325248	874.600000
1101.442528	893.600000
1103.559302	880.200000
1105.675569	854.600000
1107.789421	883.400000
1109.904676	826.400000
1112.015609	881.400000
1114.129853	860.600000
1116.239778	847.600000
1118.351105	848.800000
1120.461929	872.800000
1122.568436	837.600000
1124.678252	848.400000
1126.783754	889.600000
1128.890660	857.800000
1130.991349	857.800000
1133.097251	861.400000
1135.198844	841.400000
1137.301840	830.200000
1139.404335	845.000000
1141.500624	802.400000
1143.602119	821.200000
1145.699312	830.800000
1147.796006	841.600000
1149.892203	828.800000
1151.987901	854.200000
1154.083102	829.600000
1156.175906	831.200000
1158.270112	820.600000
1160.358127	852.600000
1162.451340	847.400000
1164.538365	838.000000
1166.628690	821.200000
1168.714726	819.400000
1170.804060	821.000000
1172.887213	831.400000
1174.971769	840.000000
1177.057725	814.400000
1179.139400	808.800000
1181.222477	811.800000
1183.303168	817.800000
1185.383367	814.600000
1187.463076	817.600000
1189.542292	848.400000
1191.619127	825.600000
1193.693581	822.600000
1195.771327	848.600000
1197.844802	800.400000
1199.919679	848.600000
1201.990288	833.400000
1204.062298	816.600000
1206.131932	821.200000
1208.202967	838.400000
1210.273514	824.400000
1212.339800	820.400000
1214.407487	858.200000
1216.472802	805.600000
1218.539517	824.800000
1220.601976	839.600000
1222.667720	846.000000
1224.729211	844.400000
1226.792101	794.000000
1228.852624	815.600000
1230.912664	845.200000
1232.972220	800.400000
1235.029412	848.000000
1237.086121	837.200000
1239.140468	832.000000
1241.198095	808.400000
1243.253360	819.400000
1245.304384	839.800000
1247.356808	817.400000
1249.408753	799.600000
1251.458338	818.800000
1253.507446	830.400000
1255.556074	818.000000
1257.604224	833.000000
1259.651896	822.400000
1261.695337	819.400000
1263.742053	823.800000
1265.786417	804.000000
1267.830303	823.000000
1269.871839	799.400000
1271.911025	812.200000
1273.953483	810.600000
1275.991720	818.600000
1278.031354	818.200000
1280.070514	822.600000
1282.105456	807.400000
1284.141796	811.800000
1286.175791	795.800000
1288.211185	798.400000
1290.242365	800.800000
1292.274944	793.600000
1294.307050	839.200000
1296.336816	825.200000
1298.367980	846.000000
1300.394936	829.800000
1302.423290	833.600000
1304.447440	791.400000
1306.474855	844.800000
1308.498067	799.000000
1310.522676	818.600000
1312.544952	825.400000
1314.568625	804.600000
1316.589965	827.200000
1318.610837	835.000000
1320.631243	823.400000
1322.647454	820.600000
1324.665064	831.800000
1326.680345	803.000000
1328.698885	850.600000
1330.713235	788.200000
1332.725260	867.200000
1334.740543	829.600000
1336.751640	788.400000
1338.764133	803.400000
1340.772444	807.000000
1342.784011	809.400000
1344.789539	802.400000
1346.798321	796.600000
1348.802927	823.200000
1350.810786	790.800000
1352.818182	802.400000
1354.819548	837.400000
1356.822311	825.600000
1358.824614	794.200000
1360.826456	814.000000
1362.827840	816.200000
1364.826909	834.200000
1366.825520	819.200000
1368.823673	801.800000
1370.821368	816.600000
1372.814899	813.000000
1374.809827	797.800000
1376.804298	788.800000
1378.798312	830.800000
1380.790019	797.200000
1382.781270	809.200000
1384.770216	817.600000
1386.760557	796.000000
1388.750443	797.600000
1390.738026	812.200000
1392.725155	800.800000
1394.709982	791.800000
1396.696204	818.000000
1398.680125	794.400000
1400.663594	795.000000
1402.646611	792.000000
1404.627330	824.400000
1406.609443	806.400000
1408.589259	823.800000
1410.568625	809.800000
1412.543852	830.200000
1414.522317	794.600000
1416.498489	796.000000
1418.474211	781.800000
1420.449484	836.400000
1422.422466	792.800000
1424.395001	856.400000
1426.367087	797.800000
1428.338725	835.800000
1430.306236	834.600000
1432.278820	807.400000
1434.243598	808.000000
1436.213449	805.800000
1438.179175	864.000000
1440.146295	832.800000
1442.111131	812.600000
1444.071847	842.600000
1446.037631	811.800000
1447.997460	824.600000
1449.958682	840.400000
1451.921297	850.400000
1453.879797	822.400000
1455.837855	823.200000
1457.795470	846.200000
1459.752644	842.800000
1461.707542	820.200000
1463.663832	848.000000
1465.617848	806.600000
1467.571424	861.200000
1469.522727	849.600000
1471.475422	843.600000
1473.425846	828.000000
1475.375831	814.600000
1477.325376	823.200000
1479.272653	828.600000
1481.217663	862.000000
1483.164065	795.000000
1485.110029	806.200000
1487.055555	832.400000
1488.998817	823.200000
1490.941642	799.800000
1492.882204	784.000000
1494.824157	828.800000
1496.763849	818.000000
1498.703105	802.600000
1500.641927	782.800000
1502.578489	803.800000
1504.516441	846.000000
1506.452136	812.000000
1508.387397	780.400000
1510.320401	794.400000
1512.252973	802.200000
1514.185113	806.000000
1516.116821	828.600000
1518.046275	809.600000
1519.977120	788.200000
1521.907534	820.400000
1523.833875	815.600000
1525.761606	807.200000
1527.687087	823.400000
1529.612139	825.800000
1531.536762	786.400000
1533.460956	796.200000
1535.382903	838.200000
1537.306239	786.200000
1539.227330	811.200000
1541.146176	837.600000
1543.066412	778.600000
1544.984404	866.800000
1546.901970	786.000000
1548.817294	791.000000
1550.734008	831.600000
1552.646667	799.000000
1554.562530	827.600000
1556.476154	801.400000
1558.387539	809.200000
1560.300313	790.000000
1562.209038	776.800000
1564.119153	840.800000
1566.028844	801.000000
1567.938111	840.000000
1569.845145	776.000000
1571.749946	815.600000
1573.656136	835.000000
1575.560094	832.200000
1577.463632	812.600000
1579.366748	812.400000
1581.267636	830.000000
1583.169911	795.200000
1585.069959	784.600000
1586.971395	791.000000
1588.868796	803.800000
1590.765780	822.200000
1592.662345	775.000000
1594.560297	804.000000
1596.452415	803.600000
1598.347727	823.200000
1600.242620	806.000000
1602.135292	839.800000
1604.027548	770.000000
1605.917584	805.400000
1607.807204	833.600000
1609.696409	817.400000
1611.585198	798.600000
1613.471771	850.800000
1615.359730	794.800000
1617.243674	806.400000
1619.129004	811.600000
1621.013920	819.200000
1622.896624	819.600000
1624.780713	793.600000
1626.660792	816.400000
1628.542257	845.600000
1630.421512	792.800000
1632.302153	787.800000
1634.176990	790.200000
1636.056809	820.400000
1637.932622	811.600000
1639.808026	824.800000
1641.684815	795.000000
1643.555807	818.800000
1645.429981	799.400000
1647.300157	831.200000
1649.173513	816.400000
1651.044666	810.800000
1652.913617	792.600000
1654.783954	811.400000
1656.650297	756.400000
1658.518026	805.600000
1660.383557	811.400000
1662.250472	815.800000
1664.113399	779.800000
1665.977711	739.800000
1667.839828	827.000000
1669.701539	777.400000
1671.564635	793.400000
1673.425537	758.000000
1675.284245	806.800000
1677.142550	792.600000
1679.002240	822.800000
1680.856163	808.400000
1682.713258	815.600000
1684.569951	795.400000
1686.422668	803.600000
1688.278556	774.400000
1690.130470	774.600000
1691.981982	780.800000
1693.833095	780.000000
1695.683806	790.000000
1697.534117	798.600000
1699.382244	823.200000
1701.231754	780.200000
1703.075516	773.600000
1704.924228	794.000000
1706.767193	751.400000
1708.613324	797.800000
1710.455494	781.000000
1712.300828	805.000000
1714.140422	772.800000
1715.981400	770.000000
1717.823761	777.400000
1719.662166	774.200000
1721.501954	761.000000
1723.339567	748.000000
1725.176784	755.600000
1727.011828	782.600000
1728.848255	759.800000
1730.682510	791.800000
1732.516371	765.800000
1734.349837	789.400000
1736.179357	790.800000
1738.012036	746.400000
1739.840771	767.800000
1741.672664	754.400000
1743.500614	778.800000
1745.328172	759.000000
1747.155339	761.400000
1748.982113	776.000000
1750.808497	728.800000
1752.630944	748.600000
1754.456545	748.400000
1756.278212	755.200000
1758.101261	750.600000
1759.922149	750.000000
1761.742647	756.800000
1763.564527	755.200000
1765.380707	747.200000
1767.200039	746.200000
1769.015444	773.200000
1770.833999	748.400000
1772.648630	763.000000
1774.462873	786.600000
1776.276730	756.400000
1778.090200	754.000000
1779.901516	740.200000
1781.714214	764.600000
1783.526525	764.200000
1785.334919	753.000000
1787.144694	753.200000
1788.950553	724.200000
1790.759559	769.600000
1792.564651	757.400000
1794.371123	758.200000
1796.177212	730.600000
1797.979391	764.600000
1799.784713	755.400000
1801.586127	772.600000
1803.388921	767.600000
1805.187810	726.200000
1806.988078	767.600000
1808.787966	749.400000
1810.585711	729.400000
1812.383076	784.600000
1814.180060	768.000000
1815.976664	737.000000
1817.771129	775.600000
1819.566974	731.800000
1821.357163	743.200000
1823.152249	759.200000
1824.941682	755.000000
1826.734253	788.800000
1828.524688	774.200000
1830.312988	750.400000
1832.104424	758.000000
1833.890214	742.200000
1835.677384	749.600000
1837.462422	765.400000
1839.250594	742.200000
1841.034880	764.200000
1842.817037	758.000000
1844.600572	773.400000
1846.381980	719.600000
1848.164765	734.000000
1849.943671	730.200000
1851.723955	761.200000
1853.502114	720.800000
1855.281650	758.600000
1857.059062	731.600000
1858.834350	734.400000
1860.611017	749.200000
1862.385561	779.400000
1864.161482	742.600000
1865.931784	732.600000
1867.705213	729.600000
1869.476522	783.200000
1871.247460	727.000000
1873.019775	745.800000
1874.786478	732.200000
1876.556305	753.600000
1878.322269	726.200000
1880.091357	771.200000
1881.856583	730.800000
1883.621441	772.600000
1885.387675	742.800000
1887.150051	750.200000
1888.912060	755.400000
1890.673702	765.400000
1892.434976	763.400000
1894.195884	749.800000
1895.956424	716.200000
1897.714855	753.800000
1899.472921	769.600000
1901.228879	735.200000
1902.986213	745.600000
1904.743181	719.600000
1906.498044	760.000000
1908.250801	725.200000
1910.003195	716.600000
1911.756964	728.000000
1913.508630	730.800000
1915.258194	723.200000
1917.009134	712.600000
1918.759710	717.200000
1920.506448	740.200000
1922.254561	765.000000
1924.000575	695.800000
1925.747965	746.000000
1927.493256	759.400000
1929.236450	742.800000
1930.981020	751.400000
1932.723493	725.400000
1934.465606	746.600000
1936.207359	749.400000
1937.948753	726.000000
1939.688053	717.200000
1941.426994	754.400000
1943.165576	731.400000
1944.902066	715.000000
1946.638199	714.900000
1948.375706	714.800000
1950.109392	746.200000
1951.844452	714.200000
1953.577423	751.200000
1955.310038	727.600000
1957.042296	743.400000
1958.774198	724.400000
1960.504014	745.800000
1962.231746	707.200000
1963.960851	767.600000
1965.689602	755.000000
1967.416269	728.400000
1969.142582	746.400000
1970.870268	768.200000
1972.592418	724.000000
1974.317670	704.600000
1976.039114	754.800000
1977.763658	760.000000
1979.486123	737.200000
1981.204784	741.600000
1982.926544	756.400000
1984.644502	734.000000
1986.363834	708.000000
1988.079365	723.800000
1989.799718	756.600000
1991.516271	726.200000
1993.229029	721.600000
1994.944882	732.200000
1996.658662	733.000000
1998.372093	735.200000
2000.083453	750.800000
2001.796186	738.200000
2003.505127	736.200000
2005.217162	731.800000
2006.923687	763.400000
2008.633305	739.000000
2010.340855	720.200000
2012.048058	774.400000
2013.753195	780.000000
2015.457985	726.200000
2017.164147	821.200000
2018.866527	767.800000
2020.570279	745.000000
2022.271968	740.600000
2023.973311	722.200000
2025.674309	750.800000
2027.373247	792.800000
2029.073556	758.400000
2030.770089	810.400000
2032.467994	795.800000
2034.163841	760.600000
2035.862773	737.800000
2037.556218	792.800000
2039.251036	743.800000
2040.945510	761.200000
2042.636216	779.600000
2044.330006	741.800000
2046.020029	752.600000
2047.711423	765.400000
2049.400764	750.400000
2051.091475	756.000000
2052.778424	735.400000
2054.465032	726.600000
2056.153011	754.800000
2057.837230	798.600000
2059.522819	739.600000
2061.208069	728.200000
2062.891271	733.600000
2064.575843	758.400000
2066.254951	729.200000
2067.938845	738.600000
2069.617279	710.800000
2071.298790	722.800000
2072.976549	745.600000
2074.653972	732.400000
2076.332764	754.200000
2078.009513	725.200000
2079.684221	732.600000
2081.360298	751.400000
2083.034335	744.000000
2084.708036	734.400000
2086.381402	738.000000
2088.052730	726.000000
2089.723723	743.000000
2091.394382	760.800000
2093.064707	739.800000
2094.734697	735.800000
2096.402652	736.000000
2098.070274	744.800000
2099.735862	736.400000
2101.402818	718.600000
2103.067741	736.800000
2104.732331	735.600000
2106.394890	740.200000
2108.058818	734.200000
2109.720714	734.400000
2111.382279	765.400000
2113.043514	734.800000
2114.702719	738.200000
2116.361595	766.800000
2118.020140	761.000000
2119.678356	760.200000
2121.332848	752.800000
2122.990406	737.600000
2124.647633	731.400000
2126.301140	756.400000
2127.956014	730.200000
2129.607169	734.000000
2131.261387	714.600000
2132.911887	745.000000
2134.563755	774.400000
2136.210214	752.800000
2137.861427	745.600000
2139.508927	732.200000
2141.157795	753.400000
2142.804643	758.200000
2144.451165	753.600000
2146.097362	747.800000
2147.739851	751.800000
2149.385398	754.000000
2151.027238	722.400000
2152.672135	720.400000
2154.313327	741.200000
2155.954195	735.400000
2157.594740	740.200000
2159.233272	745.200000
2160.873170	736.600000
2162.509368	733.000000
2164.146932	716.000000
2165.784174	722.400000
2167.419406	723.200000
2169.054316	743.800000
2170.688905	714.200000
2172.323173	689.600000
2173.953747	753.600000
2175.587372	728.400000
2177.217306	718.800000
2178.848605	726.400000
2180.477900	758.800000
2182.106874	729.000000
2183.735530	739.000000
2185.363866	736.200000
2186.990199	714.400000
2188.616214	721.200000
2190.240228	747.400000
2191.865607	725.600000
2193.488985	727.200000
2195.113728	747.400000
2196.734789	693.000000
2198.355535	741.400000
2199.977644	696.600000
2201.597756	739.200000
2203.215872	746.000000
2204.833672	696.400000
2206.451156	714.400000
2208.068325	715.000000
2209.685179	717.200000
2211.301718	714.000000
2212.916263	680.600000
2214.528816	743.800000
2216.142734	721.400000
2217.754659	711.200000
2219.367949	727.600000
2220.979247	724.000000
2222.588557	734.400000
2224.199229	730.800000
2225.807913	688.200000
2227.416285	740.200000
2229.022669	708.600000
2230.630417	672.200000
2232.236178	748.000000
2233.841628	756.800000
2235.445094	694.200000
2237.049922	713.200000
2238.652766	702.000000
2240.253627	716.800000
2241.855851	735.800000
2243.456092	744.000000
2245.057697	719.800000
2246.655648	732.200000
2248.254962	729.000000
2249.852296	726.400000
2251.449322	709.600000
2253.047709	753.600000
2254.642448	710.800000
2256.235211	742.000000
2257.829335	725.800000
2259.424821	728.600000
2261.016663	690.800000
2262.608198	698.800000
2264.201094	694.000000
2265.788681	699.000000
2267.380965	722.400000
2268.967941	714.400000
2270.557946	713.400000
2272.142646	685.400000
2273.732040	701.000000
2275.316131	708.400000
2276.901584	698.000000
2278.485068	700.600000
2280.071577	655.200000
2281.654453	697.000000
2283.237025	666.400000
2284.819295	665.200000
2286.397934	702.000000
2287.979597	672.000000
2289.557632	674.200000
2291.138691	677.000000
2292.716122	680.100000
2294.291590	683.200000
2295.870080	718.600000
2297.444945	696.000000
2299.019510	672.400000
2300.593775	654.000000
2302.167739	685.400000
2303.741403	671.800000
2305.314766	678.200000
2306.884511	696.800000
2308.453957	665.600000
2310.026422	672.000000
2311.593611	678.000000
2313.163819	663.400000
2314.730412	703.000000
2316.298365	677.600000
2317.864363	682.800000
2319.430063	621.800000
2320.995465	660.400000
2322.558914	703.000000
2324.123721	691.200000
2325.684921	723.600000
2327.249135	727.800000
2328.808088	746.400000
2330.370054	734.200000
2331.930070	725.400000
2333.489790	697.400000
2335.047561	712.400000
2336.605038	706.800000
2338.162219	678.400000
2339.717454	660.800000
2341.272394	672.400000
2342.827041	666.400000
2344.381394	678.800000
2345.935453	743.000000
2347.489219	669.600000
2349.041040	679.200000
2350.590918	672.200000
2352.143804	720.000000
2353.691448	704.600000
2355.242099	673.800000
2356.789160	669.200000
2358.337578	688.000000
2359.885704	675.000000
2361.430243	671.800000
2362.976139	670.200000
2364.520096	664.800000
2366.065411	681.000000
2367.607141	684.800000
2369.150229	680.000000
2370.691380	699.200000
2372.232242	663.600000
2373.772815	666.600000
2375.313099	654.200000
2376.853094	686.600000
2378.389510	665.800000
2379.928928	680.400000
2381.464769	676.600000
2383.001966	677.000000
2384.535589	674.200000
2386.072211	691.000000
2387.606902	666.400000
2389.139664	695.000000
2390.672140	670.600000
2392.202687	688.000000
2393.736232	655.400000
2395.264566	659.200000
2396.794256	680.000000
2398.323661	676.400000
2399.852781	672.600000
2401.381615	678.000000
2402.905245	650.600000
2404.433510	687.200000
2405.956572	681.000000
2407.484269	656.800000
2409.005125	660.000000
2410.530615	648.400000
2412.052544	682.600000
2413.575829	672.800000
2415.097193	663.400000
2416.616637	687.800000
2418.137436	668.400000
2419.656316	665.800000
2421.174914	689.200000
2422.691595	672.200000
2424.209631	673.400000
2425.727385	684.600000
2427.241587	697.400000
2428.755509	701.200000
2430.269152	686.200000
2431.784148	668.400000
2433.295596	671.200000
2434.808399	667.400000
2436.319289	672.000000
2437.829899	684.000000
2439.338598	647.200000
2440.850284	676.800000
2442.358426	646.600000
2443.866289	677.600000
2445.373875	664.000000
2446.877921	687.800000
2448.384951	650.000000
2449.890073	637.000000
2451.394918	675.800000
2452.897856	684.600000
2454.400517	656.400000
2455.902902	629.600000
2457.403382	647.800000
2458.905215	646.400000
2460.405144	666.200000
2461.904797	636.000000
2463.404175	613.400000
2464.901650	675.200000
2466.397223	635.400000
2467.895776	687.800000
2469.390800	653.000000
2470.887178	659.000000
2472.380029	688.400000
2473.874232	675.000000
2475.368162	624.400000
2476.858569	643.400000
2478.351953	660.200000
2479.843438	626.200000
2481.333027	635.400000
2482.822344	647.200000
2484.309766	645.000000
2485.800163	644.400000
2487.287041	652.400000
2488.775271	628.000000
2490.259985	678.600000
2491.744428	667.000000
2493.230223	658.400000
2494.714125	640.800000
2496.199379	651.200000
2497.679499	649.200000
2499.162591	620.000000
2500.643793	625.400000
2502.124726	680.800000
2503.603770	644.200000
2505.082546	644.400000
2506.561053	626.600000
2508.039291	652.400000
2509.517261	658.400000
2510.991727	647.800000
2512.469161	642.400000
2513.943092	664.600000
2515.418374	645.600000
2516.893388	636.600000
2518.364901	629.200000
2519.837765	645.400000
2521.308745	642.800000
2522.781076	680.400000
2524.248294	624.400000
2525.718478	626.200000
2527.186780	646.800000
2528.654818	654.800000
2530.122591	641.000000
2531.590099	627.000000
2533.057342	668.400000
2534.521094	649.800000
2535.986195	642.400000
2537.449419	641.200000
2538.913992	639.600000
2540.375076	633.600000
2541.837511	633.000000
2543.299682	647.800000
2544.758366	639.800000
2546.221623	637.600000
2547.679783	670.400000
2549.139292	659.200000
2550.593708	683.600000
2552.052694	692.400000
2553.509807	666.000000
2554.965050	655.400000
2556.420032	619.600000
2557.873144	669.600000
2559.327605	653.000000
2560.780197	648.600000
2562.232529	630.200000
2563.682993	643.600000
2565.136413	653.000000
2566.584751	622.600000
2568.036045	626.000000
2569.485472	647.000000
2570.931428	626.800000
2572.380338	641.400000
2573.825777	656.000000
2575.272565	660.800000
2576.717489	634.400000
2578.162156	621.200000
2579.608170	626.800000
2581.050717	628.800000
2582.494612	645.400000
2583.935042	581.800000
2585.376820	627.800000
2586.816738	608.400000
2588.258003	633.400000
2589.695806	639.800000
2591.136559	611.000000
2592.572249	643.200000
2594.010889	633.600000
2595.447672	616.400000
2596.882598	631.800000
2598.320473	646.200000
2599.753290	624.600000
2601.187454	618.200000
2602.619763	636.400000
2604.053419	594.400000
2605.485222	636.000000
2606.916772	607.400000
2608.348068	616.800000
2609.777513	607.400000
2611.206705	635.400000
2612.634046	631.000000
2614.062734	613.600000
2615.491169	608.000000
2616.916158	640.000000
2618.342492	628.800000
2619.766978	609.400000
2621.192810	637.400000
2622.615198	628.400000
2624.038932	631.200000
2625.460820	602.400000
2626.882457	614.000000
2628.302249	606.400000
2629.723387	617.600000
2631.144275	611.600000
2632.561725	601.000000
2633.982114	631.200000
2635.399066	614.400000
2636.815770	596.400000
2638.232225	661.600000
2639.648432	605.400000
2641.064390	626.000000
2642.478508	638.200000
2643.892379	632.000000
2645.304410	582.400000
2646.717786	596.000000
2648.127732	623.200000
2649.540614	632.600000
2650.950067	609.200000
2652.359274	619.600000
2653.766645	595.800000
2655.176950	613.600000
2656.585419	581.600000
2657.992053	621.000000
2659.398442	597.000000
2660.802997	623.400000
2662.208896	620.600000
2663.612962	623.600000
2665.016784	621.000000
2666.420361	614.600000
2667.822106	597.600000
2669.225195	631.400000
2670.624867	620.800000
2672.025882	589.400000
2673.423480	606.000000
2674.824009	624.800000
2676.221123	587.800000
2677.619580	618.000000
2679.016209	619.000000
2680.412597	588.000000
2681.808742	611.800000
2683.203061	594.200000
2684.598723	619.000000
2685.990975	622.600000
2687.384571	589.400000
2688.776342	608.600000
2690.169455	583.600000
2691.560745	603.200000
2692.950212	618.600000
2694.339440	607.200000
2695.728427	592.600000
2697.118757	615.400000
2698.504102	575.400000
2699.892372	593.800000
2701.278820	583.600000
2702.665031	609.200000
2704.051002	574.000000
2705.433575	623.800000
2706.817489	616.200000
2708.201166	562.200000
2709.584605	598.400000
2710.964648	604.800000
2712.346033	575.600000
2713.725602	619.400000
2715.106513	596.800000
2716.485609	617.400000
2717.862890	572.200000
2719.241513	564.600000
2720.618323	580.000000
2721.994897	601.200000
2723.371235	616.200000
2724.745761	572.200000
2726.121628	637.600000
2727.494108	571.800000
2728.869505	595.200000
2730.239940	622.600000
2731.611717	588.000000
2732.983260	596.400000
2734.352994	577.600000
2735.724068	587.600000
2737.093335	601.600000
2738.462368	586.000000
2739.829594	592.800000
2741.196588	594.400000
2742.563349	566.800000
2743.929877	603.200000
2745.294600	595.800000
2746.659092	600.400000
2748.023351	561.400000
2749.387379	594.400000
2750.751174	620.000000
2752.111596	620.000000
2753.474929	567.400000
2754.833319	586.800000
2756.194619	575.400000
2757.552548	596.600000
2758.913387	581.200000
2760.272425	563.200000
2761.628095	588.000000
2762.986673	587.000000
2764.341885	576.800000
2765.696867	577.800000
2767.050052	561.800000
2768.406144	567.800000
2769.758872	667.400000
2771.111371	548.600000
2772.463642	548.600000
2773.817252	567.000000
2775.167500	526.000000
2776.515955	574.600000
2777.867314	554.800000
2779.215314	556.800000
2780.564653	554.600000
2781.912199	586.800000
2783.259518	578.800000
2784.606611	549.800000
2785.951913	556.400000
2787.296989	593.800000
2788.641839	549.400000
2789.986463	537.600000
2791.327734	562.000000
2792.670344	586.400000
2794.012729	573.800000
2795.354888	580.800000
2796.693698	564.600000
2798.035408	585.200000
2799.373769	549.400000
2800.713468	552.200000
2802.051381	558.200000
2803.387510	541.000000
2804.723416	531.200000
2806.060658	556.200000
2807.396117	564.000000
2808.731353	542.600000
2810.064807	525.000000
2811.399597	552.200000
2812.731046	546.600000
2814.065391	559.000000
2815.394838	568.200000
2816.725622	567.600000
2818.056184	555.400000
2819.384967	569.800000
2820.715087	530.000000
2822.043427	554.800000
2823.371547	579.200000
2824.697890	600.600000
2826.025568	571.600000
2827.349914	552.000000
2828.675595	539.200000
2829.999502	575.400000
2831.323188	557.200000
2832.648210	533.000000
2833.969903	543.600000
2835.291376	569.000000
2836.612631	586.800000
2837.933667	573.600000
2839.252931	543.400000
2840.573530	585.200000
2841.892357	589.800000
2843.210966	549.800000
2844.527805	576.600000
2845.844426	565.200000
2847.160829	547.400000
2848.475464	530.600000
2849.791433	539.000000
2851.104082	563.200000
2852.418067	544.400000
2853.731835	594.800000
2855.045386	595.000000
2856.357170	547.400000
2857.667189	545.200000
2858.978542	573.200000
2860.286579	560.600000
2861.595952	541.600000
2862.905109	527.600000
2864.214051	530.000000
2865.521230	520.800000
2866.826645	583.800000
2868.133395	559.000000
2869.438382	547.000000
2870.743156	523.600000
2872.046168	570.600000
2873.352062	565.200000
2874.653101	564.400000
2875.955473	577.000000
2877.256086	616.600000
2878.558033	594.000000
2879.859767	561.600000
2881.158197	564.000000
2882.457960	566.800000
2883.755966	580.800000
2885.053760	567.200000
2886.349797	566.200000
2887.647168	558.000000
2888.942783	538.600000
2890.238188	544.600000
2891.533381	554.200000
2892.825276	561.600000
2894.120048	535.400000
2895.411523	567.200000
2896.704332	546.000000
2897.996930	565.600000
2899.286233	548.400000
2900.576869	529.400000
2901.865754	512.000000
2903.155972	567.800000
2904.442898	549.400000
2905.731156	550.400000
2907.017665	517.000000
2908.303965	537.200000
2909.590057	540.400000
2910.874401	515.800000
2912.161617	537.800000
2913.444006	553.800000
2914.727727	523.600000
2916.009701	519.800000
2917.291469	544.400000
2918.571491	537.000000
2919.854383	535.600000
2921.135530	554.800000
2922.413395	521.000000
2923.694129	545.600000
2924.971582	527.800000
2926.248830	544.000000
2927.524335	530.200000
2928.802708	555.200000
2930.076266	546.600000
2931.352692	528.800000
2932.627377	524.600000
2933.900322	536.600000
2935.174597	531.800000
2936.447133	529.200000
2937.719465	523.800000
2938.988524	541.400000
2940.260448	512.400000
2941.530633	510.800000
2942.800616	508.000000
2944.070395	508.200000
2945.338437	518.000000
2946.604744	515.600000
2947.870848	508.000000
2949.138283	533.000000
2950.403982	512.200000
2951.669479	543.000000
2952.934774	502.400000
2954.196805	494.000000
2955.460165	499.600000
2956.723324	509.200000
2957.984750	501.600000
2959.247506	494.400000
2960.508531	492.400000
2961.767825	501.000000
2963.026918	504.400000
2964.285811	489.600000
2965.544504	502.200000
2966.802997	492.200000
2968.059761	487.400000
2969.316325	500.000000
2970.571162	510.800000
2971.827328	491.600000
2973.080238	535.000000
2974.334478	487.000000
2975.588519	499.600000
2976.840834	510.400000
2978.092951	477.600000
2979.343343	502.800000
2980.596590	491.600000
2981.845060	492.800000
2983.096384	497.200000
2984.344460	454.600000
2985.592338	484.200000
2986.840019	509.800000
2988.087504	496.600000
2989.333267	510.800000
2990.578833	467.400000
2991.825728	484.200000
2993.069377	487.000000
2994.314355	477.200000
2995.556090	485.600000
2996.800676	505.200000
2998.043543	477.200000
2999.283168	486.800000
3000.525645	478.400000
3001.764881	476.000000
3003.005445	499.000000
3004.244292	492.000000
3005.482945	462.000000
3006.719882	511.400000
3007.958146	489.800000
3009.194696	480.200000
3010.431052	527.800000
3011.667214	503.200000
3012.901662	481.600000
3014.135917	496.800000
3015.369979	473.800000
3016.602329	482.000000
3017.832967	493.800000
3019.066451	481.800000
3020.298224	452.000000
3021.528285	476.000000
3022.758155	476.400000
3023.986315	466.000000
3025.215802	521.000000
3026.443579	470.600000
3027.671165	487.800000
3028.900077	477.400000
3030.124247	487.600000
3031.351260	485.400000
3032.575050	475.400000
3033.800165	475.000000
3035.023574	452.400000
3036.246794	468.400000
3037.468308	450.200000
3038.692663	479.600000
3039.912283	456.400000
3041.133229	457.200000
3042.353985	474.000000
3043.573038	455.400000
3044.793417	476.000000
3046.010579	493.400000
3047.229066	480.200000
3048.445852	464.800000
3049.662449	488.000000
3050.878859	477.400000
3052.092055	434.800000
3053.308089	469.600000
3054.520911	456.400000
3055.736570	450.200000
3056.947506	485.200000
3058.159768	480.200000
3059.371842	475.400000
3060.583730	473.600000
3061.793920	459.600000
3063.003925	475.200000
3064.213743	449.400000
3065.421865	442.600000
3066.629801	463.000000
3067.836043	442.000000
3069.043609	451.800000
3070.249480	462.800000
3071.455166	473.800000
3072.660667	449.200000
3073.864476	437.400000
3075.069608	443.800000
3076.273047	455.200000
3077.474794	460.200000
3078.676358	439.000000
3079.877738	477.000000
3081.078934	438.800000
3082.278440	434.000000
3083.477762	435.400000
3084.678408	453.200000
3085.877365	470.600000
3087.073126	429.000000
3088.271717	442.000000
3089.467114	458.800000
3090.663835	429.600000
3091.857363	448.800000
3093.053719	450.800000
3094.248388	432.400000
3095.439867	460.200000
3096.635677	443.200000
3097.826794	434.400000
3099.019234	450.800000
3100.208485	451.200000
3101.400563	458.200000
3102.590957	443.400000
3103.778164	453.000000
3104.966695	449.000000
3106.156548	442.800000
3107.343216	410.400000
3108.529705	472.000000
3109.716014	387.000000
3110.903646	413.400000
3112.088095	391.600000
3113.270864	431.000000
3114.456457	449.000000
3115.640369	434.800000
3116.822603	415.600000
3118.004659	406.600000
3119.186536	417.800000
3120.368235	419.400000
3121.548257	422.800000
3122.726601	432.600000
3123.907767	453.400000
3125.085757	458.400000
3126.263570	416.600000
3127.441206	426.800000
3128.617167	435.200000
3129.792952	413.200000
3130.970057	434.600000
3132.145489	435.200000
3133.319247	418.400000
3134.491332	417.600000
3135.664738	414.400000
3136.837969	448.400000
3138.009527	409.000000
3139.182407	435.800000
3140.352119	418.200000
3141.523152	416.600000
3142.692514	437.200000
3143.860207	435.400000
3145.030715	429.600000
3146.196564	422.400000
3147.366723	430.000000
3148.532224	460.600000
3149.697552	431.000000
3150.862706	434.600000
3152.027687	443.800000
3153.193987	429.200000
3154.355634	424.600000
3155.518602	453.600000
3156.681396	411.200000
3157.844018	434.200000
3159.004975	443.400000
3160.165759	391.600000
3161.326371	419.000000
3162.485320	417.400000
3163.644096	422.000000
3164.802701	429.600000
3165.961134	383.200000
3167.119395	428.600000
3168.275994	392.400000
3169.430932	418.200000
3170.587189	406.800000
3171.741786	409.000000
3172.896211	398.800000
3174.048977	400.000000
3175.201573	397.200000
3176.353999	388.000000
3177.506254	410.600000
3178.658340	411.600000
3179.807279	403.800000
3180.959025	391.200000
3182.109114	402.600000
3183.257545	384.200000
3184.405808	382.000000
3185.553902	407.000000
3186.701826	385.800000
3187.848096	438.600000
3188.994197	411.000000
3190.138644	400.000000
3191.282922	370.400000
3192.427033	397.200000
3193.572462	408.200000
3194.714752	396.400000
3195.856874	395.600000
3196.998830	414.000000
3198.140618	392.800000
3199.282239	381.400000
3200.420724	402.000000
3201.560528	415.800000
3202.701648	420.800000
3203.839634	411.400000
3204.975971	420.000000
3206.112142	412.400000
3207.249631	402.800000
3208.385471	397.800000
3209.522627	389.800000
3210.655171	381.400000
3211.791997	400.200000
3212.924211	417.200000
3214.057743	391.000000
3215.191109	400.400000
3216.321348	391.600000
3217.454385	384.000000
3218.584296	389.200000
3219.715524	415.000000
3220.843626	419.800000
3221.974526	368.000000
3223.103781	377.400000
3224.231392	389.200000
3225.355882	407.400000
3226.484647	386.400000
3227.610290	372.800000
3228.735770	378.000000
3229.859609	358.400000
3230.986243	359.400000
3232.108278	358.400000
3233.231630	388.000000
3234.354820	388.800000
3235.477848	385.600000
3236.599236	391.800000
3237.720463	348.800000
3238.840051	378.200000
3239.959478	364.400000
3241.077267	373.800000
3242.197849	373.600000
3243.315317	391.400000
3244.432624	339.600000
3245.549770	428.400000
3246.665281	385.800000
3247.782107	391.800000
3248.895822	380.000000
3250.012328	375.600000
3251.127198	395.200000
3252.238960	372.600000
3253.350563	359.600000
3254.463481	386.200000
3255.576239	359.600000
3256.685891	369.000000
3257.796858	381.400000
3258.907666	380.400000
3260.016842	367.800000
3261.124387	412.800000
3262.233247	361.400000
3263.341948	386.400000
3264.447547	369.600000
3265.554461	388.000000
3266.659745	450.400000
3267.766343	383.200000
3268.869841	374.000000
3269.974653	380.200000
3271.079308	388.600000
3272.180865	390.800000
3273.282265	379.400000
3274.384979	385.200000
3275.487536	388.800000
3276.586998	374.000000
3277.689242	388.200000
3278.788392	374.000000
3279.885916	401.600000
3280.983285	358.800000
3282.083437	356.600000
3283.180495	381.400000
3284.277399	392.200000
3285.374147	361.200000
3286.466336	367.200000
3287.562775	358.000000
3288.657591	368.600000
3289.752252	351.200000
3290.845292	361.800000
3291.938178	361.000000
3293.029443	367.000000
3294.122021	346.400000
3295.212979	356.800000
3296.302317	404.600000
3297.391502	356.200000
3298.481999	352.000000
3299.569412	372.200000
3300.656673	342.000000
3301.745246	355.600000
3302.833666	330.200000
3303.917539	355.000000
3305.005654	350.400000
3306.090688	352.000000
3307.174106	355.200000
3308.258836	356.800000
3309.341950	351.600000
3310.426376	364.800000
3311.507724	354.000000
3312.590384	354.800000
3313.671430	376.200000
3314.752325	352.000000
3315.831607	353.000000
3316.910738	328.800000
3317.991180	336.000000
3319.068549	346.000000
3320.147229	322.600000
3321.224297	341.600000
3322.301215	351.000000
3323.376523	359.400000
3324.451681	344.000000
3325.528150	331.800000
3326.601548	329.000000
3327.674798	355.600000
3328.749359	334.200000
3329.822310	323.200000
3330.893654	323.600000
3331.966308	335.400000
3333.035895	347.400000
3334.106793	360.200000
3335.176084	335.000000
3336.246686	331.400000
3337.315681	327.200000
3338.383070	328.600000
3339.448854	324.800000
3340.518864	314.000000
3341.585811	368.200000
3342.649696	341.200000
3343.716349	334.800000
3344.781398	332.600000
3345.844843	392.400000
3346.908141	328.200000
3347.971294	324.600000
3349.034300	323.000000
3350.097159	341.000000
3351.158417	322.600000
3352.216618	321.000000
3353.279040	325.200000
3354.338405	337.400000
3355.397626	325.000000
3356.458155	337.200000
3357.514175	301.600000
3358.572960	319.800000
3359.627237	315.800000
3360.684278	328.800000
3361.739720	333.000000
3362.796471	339.200000
3363.851625	314.200000
3364.905181	327.800000
3365.957140	332.600000
3367.011861	306.600000
3368.063534	337.800000
3369.115062	326.200000
3370.167900	327.600000
3371.217690	297.400000
3372.268789	350.000000
3373.316841	305.800000
3374.367654	313.800000
3375.415421	310.200000
3376.463046	319.200000
3377.510529	312.200000
3378.556418	355.000000
3379.603617	331.000000
3380.647772	326.400000
3381.694686	316.200000
3382.740008	300.000000
3383.782290	302.200000
3384.824430	305.400000
3385.867879	316.000000
3386.911186	317.600000
3387.952903	293.400000
3388.994479	343.600000
3390.035915	323.000000
3391.075762	309.000000
3392.114020	323.400000
3393.153586	330.000000
3394.193012	325.400000
3395.230850	308.800000
3396.267101	282.800000
3397.303212	321.000000
3398.340631	323.200000
3399.375017	304.000000
3400.410711	299.000000
3401.446265	301.000000
3402.478787	284.800000
3403.514063	282.000000
3404.546308	319.800000
3405.578415	314.400000
3406.608938	310.000000
3407.640769	326.200000
3408.672461	322.200000
3409.701125	292.800000
3410.729651	311.800000
3411.759485	289.800000
3412.789180	295.200000
3413.815850	333.000000
3414.843827	300.800000
3415.868779	288.800000
3416.896481	302.600000
3417.921160	312.800000
3418.947145	312.600000
3419.971551	314.600000
3420.995819	297.400000
3422.018509	316.600000
3423.041063	293.400000
3424.064923	311.200000
3425.085763	287.400000
3426.106468	308.400000
3427.128478	286.600000
3428.147470	296.600000
3429.166327	307.800000
3430.186489	306.600000
3431.203635	304.800000
