-118.052978	4.400000
-115.383377	5.800000
-112.716712	20.200000
-110.050800	-9.800000
-107.387819	-1.400000
-104.723409	23.800000
-102.061929	-10.800000
-99.399019	-8.000000
-96.741217	-7.200000
-94.081984	3.000000
-91.423500	-17.000000
-88.767941	10.400000
-86.110953	-6.800000
-83.459062	12.000000
-80.805742	25.200000
-78.155342	15.600000
-75.503512	-13.000000
-72.856773	25.200000
-70.208604	15.600000
-67.561179	-13.200000
-64.916667	41.200000
-62.270727	21.000000
-59.629868	-14.200000
-56.987579	23.800000
-54.348200	28.600000
-51.707392	19.600000
-49.067323	11.600000
-46.432328	35.400000
-43.795903	-7.400000
-41.162382	19.200000
-38.527432	4.200000
-35.897547	12.400000
-33.264069	-2.200000
-30.635654	15.000000
-28.007973	32.200000
-25.378864	33.200000
-22.754811	54.000000
-20.127169	57.800000
-17.504580	83.000000
-14.882722	141.000000
-12.261595	188.000000
-9.641199	421.600000
-7.023690	1548.400000
-4.404753	4990.400000
-1.788702	15219.800000
0.826621	20426.800000
3.441217	15372.800000
6.052931	2037.600000
8.666072	191.000000
11.274180	102.200000
13.885870	59.400000
16.492529	58.600000
19.100616	41.600000
21.707979	49.200000
24.310317	6.200000
26.916233	50.600000
29.517128	-3.800000
32.119450	69.600000
34.716754	-2.200000
37.317634	25.000000
39.913500	7.000000
42.510793	20.800000
45.107367	-17.800000
47.698932	29.600000
50.291925	-0.600000
52.882057	39.800000
55.473617	27.400000
58.062317	1.000000
60.652445	23.600000
63.237573	28.000000
65.824129	-4.200000
68.409970	17.600000
70.992958	8.600000
73.577373	6.200000
76.154658	23.000000
78.735510	5.600000
81.313513	1.600000
83.890806	27.600000
86.469525	16.600000
89.043263	41.600000
91.618427	-5.200000
94.190748	6.200000
96.762362	2.200000
99.331135	9.200000
101.901335	17.200000
104.468696	33.200000
107.037484	22.600000
109.603434	32.600000
112.166550	13.000000
114.733223	60.600000
117.290673	29.000000
119.853809	59.600000
122.411986	70.400000
124.973716	78.600000
127.530491	93.400000
130.088691	144.200000
132.641939	207.000000
135.194488	336.000000
137.750589	436.600000
140.301741	564.000000
142.852195	660.600000
145.401953	765.800000
147.948891	822.800000
150.495133	851.800000
153.042802	855.400000
155.589774	887.400000
158.131810	870.200000
160.673153	843.600000
163.213804	833.800000
165.755879	836.800000
168.295144	832.200000
170.831599	845.800000
173.367364	808.800000
175.904554	832.800000
178.441052	799.400000
180.974745	807.000000
183.505635	789.000000
186.035836	786.800000
188.567462	784.400000
191.096287	785.200000
193.622314	773.200000
196.147654	764.000000
198.674419	772.200000
201.198388	788.600000
203.721671	804.400000
206.244270	767.000000
208.764076	777.200000
211.283199	806.400000
213.801639	812.800000
216.321503	835.200000
218.834366	850.400000
221.350760	870.400000
223.866472	887.400000
226.377295	890.600000
228.889542	932.400000
231.399006	921.200000
233.907792	920.400000
236.415900	913.600000
238.925432	975.000000
241.430083	943.200000
243.934058	944.200000
246.439457	988.400000
248.939981	950.000000
251.444028	959.000000
253.941105	949.800000
256.441704	951.600000
258.939532	998.800000
261.436687	955.800000
263.933169	977.000000
266.424789	1013.800000
268.919927	1014.600000
271.412300	1006.200000
273.904002	1000.800000
276.392941	1085.800000
278.883303	1057.800000
281.370904	1057.600000
283.855745	1051.600000
286.344100	1103.600000
288.825516	1061.800000
291.310447	1138.600000
293.790531	1146.600000
296.274128	1209.800000
298.752883	1227.800000
301.233060	1280.800000
303.710486	1276.000000
306.187248	1268.600000
308.663346	1196.600000
311.136696	1168.200000
313.609385	1167.800000
316.081411	1141.000000
318.552777	1197.400000
321.021399	1234.400000
323.489361	1215.600000
325.958746	1169.000000
328.423308	1088.600000
330.891373	1023.000000
333.354619	1040.400000
335.817208	1021.800000
338.279139	997.000000
340.740414	978.400000
343.198955	1018.600000
345.658918	984.800000
348.116149	991.000000
350.572725	990.600000
353.028646	954.000000
355.481839	946.000000
357.936454	953.400000
360.386267	989.800000
362.839576	979.400000
365.288086	956.400000
367.735946	969.600000
370.185227	937.000000
372.629715	918.400000
375.075625	929.200000
377.520886	917.000000
379.963428	917.000000
382.405322	927.400000
384.846568	863.600000
387.285099	918.600000
389.725052	881.400000
392.162291	917.200000
394.596818	897.800000
397.034833	891.600000
399.468071	906.400000
401.902731	871.000000
404.332617	892.200000
406.765990	852.400000
409.194591	890.800000
411.622552	856.000000
414.051933	855.600000
416.476550	845.000000
418.902587	866.400000
421.327985	848.600000
423.752742	893.000000
426.172740	882.000000
428.594160	884.200000
431.012883	893.200000
433.433027	897.600000
435.850476	897.400000
438.269345	921.600000
440.685521	878.400000
443.096950	829.000000
445.511855	795.600000
447.924070	809.000000
450.335651	789.000000
452.746598	796.200000
455.154859	753.600000
457.562488	758.400000
459.969484	739.600000
462.375848	807.200000
464.779531	777.000000
467.182583	741.400000
469.585005	812.600000
471.986797	825.400000
474.385911	809.400000
476.786445	864.600000
479.186350	842.800000
481.581532	892.200000
483.980181	922.600000
486.374110	961.000000
488.767413	982.800000
491.160090	1062.200000
493.552142	1080.400000
495.945613	1174.200000
498.334371	1301.200000
500.720463	1534.400000
503.107975	1752.400000
505.494863	2328.400000
507.879088	3165.000000
510.264732	4749.600000
512.647713	8154.600000
515.028034	15151.400000
517.409774	27510.600000
519.788855	38412.000000
522.169355	36238.200000
524.547197	23253.800000
526.922384	12064.000000
529.296953	6807.000000
531.672941	4604.200000
534.046275	3433.800000
536.421028	2692.800000
538.791094	2333.200000
541.160545	1920.600000
543.531415	1721.400000
545.897603	1526.200000
548.265210	1433.200000
550.630171	1279.400000
552.994519	1192.200000
555.358255	1120.600000
557.723408	1076.200000
560.083889	1029.000000
562.445787	943.800000
564.805046	937.000000
567.161666	859.000000
569.521732	905.000000
571.875106	809.200000
574.231925	782.000000
576.586109	754.200000
578.939684	788.400000
581.292651	755.400000
583.642987	720.000000
585.994739	734.000000
588.339815	740.600000
590.690355	746.000000
593.034222	724.400000
595.383549	682.000000
597.728229	689.800000
600.070284	711.600000
602.413756	703.200000
604.754604	754.200000
607.094851	701.400000
609.432477	718.600000
611.773538	722.400000
614.109962	708.600000
616.447802	711.200000
618.783024	743.800000
621.115631	677.600000
623.449655	756.400000
625.781064	672.600000
628.111875	650.200000
630.442088	647.200000
632.771703	620.000000
635.096696	654.200000
637.427130	667.000000
639.752942	612.400000
642.076148	624.200000
644.400770	624.800000
646.722786	629.600000
649.044208	621.400000
651.363027	601.000000
653.683262	606.400000
656.002904	577.400000
658.319945	577.000000
660.636395	626.800000
662.950246	617.800000
665.265512	624.200000
667.578182	607.000000
669.892267	618.800000
672.201753	623.800000
674.512653	621.800000
676.820961	592.000000
679.128681	622.000000
681.437816	601.200000
683.742358	566.000000
686.046314	577.600000
688.349683	553.600000
690.654467	542.800000
692.954665	528.600000
695.256278	533.400000
697.557305	521.400000
699.853751	520.400000
702.151611	508.000000
704.448888	515.200000
706.745582	542.600000
709.037700	504.400000
711.333229	518.200000
713.624185	459.600000
715.916555	501.000000
718.206349	488.600000
720.495564	501.600000
722.784198	496.800000
725.070261	485.800000
727.357737	467.600000
729.642643	487.200000
731.926970	487.000000
734.208730	515.800000
736.491903	512.400000
738.774499	508.200000
741.052539	478.000000
743.331993	526.800000
745.610872	485.000000
747.889175	535.600000
750.162929	474.600000
752.438097	518.800000
754.712691	476.200000
756.984726	523.200000
759.258174	492.400000
761.529064	510.400000
763.797397	477.000000
766.067145	508.400000
768.334337	488.800000
770.600959	559.800000
772.867012	495.800000
775.130513	537.000000
777.395426	519.600000
779.659771	515.800000
781.919585	520.400000
784.180813	541.600000
786.441473	528.800000
788.699586	561.400000
790.955155	516.600000
793.214115	552.600000
795.466576	510.000000
797.724404	557.400000
799.977713	547.800000
802.228481	555.200000
804.480662	537.400000
806.730305	577.600000
808.981359	550.800000
811.227902	558.800000
813.475858	557.400000
815.721278	520.600000
817.968110	582.000000
820.214381	587.800000
822.456148	539.800000
824.701297	552.800000
826.939974	529.400000
829.182034	567.000000
831.419595	541.400000
833.658567	578.200000
835.895013	566.600000
838.132871	557.600000
840.368203	519.000000
842.601011	548.000000
844.835231	547.400000
847.066929	528.200000
849.298072	548.800000
851.528660	563.000000
853.758694	519.600000
855.988173	521.200000
858.213172	512.000000
860.441544	540.000000
862.665438	515.800000
864.890742	550.000000
867.111571	531.600000
869.335772	530.200000
871.555500	524.400000
873.776639	547.400000
875.997227	556.800000
878.215306	562.200000
880.434794	576.600000
882.649816	540.600000
884.864290	529.600000
887.078217	556.400000
889.291596	507.600000
891.504429	558.800000
893.716714	540.200000
895.926498	560.600000
898.135736	524.000000
900.344428	537.000000
902.550622	524.600000
904.758225	551.800000
906.963331	546.200000
909.167893	571.400000
911.369959	555.800000
913.573435	567.400000
915.774418	579.200000
917.974858	599.400000
920.176707	608.400000
922.372164	619.600000
924.570981	656.600000
926.765360	747.200000
928.963096	804.400000
931.156396	956.000000
933.351104	1094.200000
935.543327	1182.400000
937.735012	1343.000000
939.926159	1410.600000
942.114823	1497.800000
944.302950	1500.000000
946.488597	1476.800000
948.677596	1455.400000
950.862172	1408.000000
953.046213	1461.200000
955.233604	1458.000000
957.412692	1490.200000
959.595129	1485.200000
961.777033	1485.400000
963.956463	1499.400000
966.133420	1523.000000
968.311785	1509.000000
970.491556	1530.200000
972.664979	1534.400000
974.841748	1549.400000
977.014111	1530.800000
979.187880	1530.000000
981.357247	1495.800000
983.529957	1510.200000
985.700201	1433.400000
987.869917	1329.400000
990.039104	1189.800000
992.203894	1089.600000
994.372025	1023.800000
996.535762	946.600000
998.700905	891.600000
1000.863590	844.200000
1003.025749	807.400000
1005.185450	802.800000
1007.344628	750.000000
1009.505212	778.000000
1011.663341	702.400000
1013.820946	708.000000
1015.978028	726.400000
1018.134587	677.000000
1020.286766	658.200000
1022.440352	655.800000
1024.593415	639.000000
1026.744031	629.400000
1028.896052	582.400000
1031.043700	608.400000
1033.194680	591.800000
1035.341289	611.000000
1037.487380	549.200000
1039.632952	558.000000
1041.779928	582.000000
1043.920617	525.000000
1046.064634	534.800000
1048.206211	561.000000
1050.347272	542.000000
1052.489737	501.800000
1054.625923	538.600000
1056.765435	518.800000
1058.900591	522.800000
1061.039072	528.600000
1063.173200	504.400000
1065.306814	563.200000
1067.441832	524.600000
1069.572501	515.600000
1071.704576	536.400000
1073.834220	475.400000
1075.963353	505.800000
1078.091975	524.000000
1080.220085	495.600000
1082.345769	517.200000
1084.470943	460.400000
1086.597520	486.000000
1088.719761	455.400000
1090.843406	504.800000
1092.962716	462.800000
1095.087255	474.800000
1097.205550	468.600000
1099.325248	492.400000
1101.442528	466.800000
1103.559302	449.000000
1105.675569	434.600000
1107.789421	478.600000
1109.904676	442.400000
1112.015609	448.200000
1114.129853	470.000000
1116.239778	467.400000
1118.351105	451.200000
1120.461929	449.000000
1122.568436	442.200000
1124.678252	475.400000
1126.783754	470.200000
1128.890660	474.400000
1130.991349	420.400000
1133.097251	447.000000
1135.198844	423.400000
1137.301840	445.000000
1139.404335	410.800000
1141.500624	450.800000
1143.602119	458.600000
1145.699312	448.200000
1147.796006	464.000000
1149.892203	462.200000
1151.987901	414.200000
1154.083102	406.400000
1156.175906	407.800000
1158.270112	436.200000
1160.358127	400.600000
1162.451340	420.000000
1164.538365	435.000000
1166.628690	446.400000
1168.714726	417.600000
1170.804060	432.800000
1172.887213	424.400000
1174.971769	418.000000
1177.057725	407.400000
1179.139400	420.200000
1181.222477	417.400000
1183.303168	401.200000
1185.383367	425.800000
1187.463076	433.600000
1189.542292	420.400000
1191.619127	397.600000
1193.693581	403.600000
1195.771327	391.800000
1197.844802	396.400000
1199.919679	393.800000
1201.990288	447.600000
1204.062298	426.600000
1206.131932	405.400000
1208.202967	401.600000
1210.273514	392.000000
1212.339800	417.600000
1214.407487	388.400000
1216.472802	396.400000
1218.539517	377.600000
1220.601976	420.600000
1222.667720	374.200000
1224.729211	377.600000
1226.792101	403.800000
1228.852624	405.200000
1230.912664	380.400000
1232.972220	396.000000
1235.029412	388.800000
1237.086121	410.800000
1239.140468	395.600000
1241.198095	403.600000
1243.253360	390.800000
1245.304384	369.600000
1247.356808	382.200000
1249.408753	400.400000
1251.458338	355.200000
1253.507446	397.000000
1255.556074	380.200000
1257.604224	400.400000
1259.651896	367.600000
1261.695337	389.400000
1263.742053	366.800000
1265.786417	383.200000
1267.830303	371.400000
1269.871839	383.000000
1271.911025	364.800000
1273.953483	382.000000
1275.991720	405.200000
1278.031354	426.000000
1280.070514	380.400000
1282.105456	413.000000
1284.141796	407.600000
1286.175791	366.600000
1288.211185	399.200000
1290.242365	380.200000
1292.274944	387.000000
1294.307050	399.800000
1296.336816	370.800000
1298.367980	390.600000
1300.394936	387.000000
1302.423290	363.400000
1304.447440	374.600000
1306.474855	369.400000
1308.498067	369.200000
1310.522676	381.400000
1312.544952	364.800000
1314.568625	355.200000
1316.589965	360.800000
1318.610837	397.600000
1320.631243	379.000000
1322.647454	386.200000
1324.665064	375.200000
1326.680345	378.800000
1328.698885	374.800000
1330.713235	356.400000
1332.725260	341.800000
1334.740543	372.400000
1336.751640	360.000000
1338.764133	361.600000
1340.772444	377.400000
1342.784011	367.400000
1344.789539	358.400000
1346.798321	352.400000
1348.802927	341.600000
1350.810786	390.600000
1352.818182	374.600000
1354.819548	375.400000
1356.822311	358.600000
1358.824614	378.600000
1360.826456	391.400000
1362.827840	358.200000
1364.826909	364.200000
1366.825520	369.200000
1368.823673	358.000000
1370.821368	343.600000
1372.814899	350.600000
1374.809827	382.200000
1376.804298	365.000000
1378.798312	357.400000
1380.790019	362.000000
1382.781270	365.200000
1384.770216	350.600000
1386.760557	370.400000
1388.750443	354.400000
1390.738026	366.000000
1392.725155	341.800000
1394.709982	340.800000
1396.696204	377.400000
1398.680125	392.400000
1400.663594	342.800000
1402.646611	368.600000
1404.627330	370.400000
1406.609443	395.400000
1408.589259	367.200000
1410.568625	383.600000
1412.543852	345.400000
1414.522317	389.200000
1416.498489	379.000000
1418.474211	373.600000
1420.449484	360.200000
1422.422466	370.600000
1424.395001	356.600000
1426.367087	384.400000
1428.338725	361.600000
1430.306236	341.000000
1432.278820	364.000000
1434.243598	350.800000
1436.213449	335.000000
1438.179175	359.800000
1440.146295	412.600000
1442.111131	362.800000
1444.071847	353.200000
1446.037631	403.000000
1447.997460	370.400000
1449.958682	361.600000
1451.921297	367.400000
1453.879797	381.800000
1455.837855	380.400000
1457.795470	369.800000
1459.752644	356.200000
1461.707542	375.200000
1463.663832	348.200000
1465.617848	375.400000
1467.571424	343.000000
1469.522727	366.400000
1471.475422	345.400000
1473.425846	353.800000
1475.375831	368.800000
1477.325376	367.400000
1479.272653	339.200000
1481.217663	368.000000
1483.164065	340.600000
1485.110029	348.800000
1487.055555	345.800000
1488.998817	351.800000
1490.941642	343.200000
1492.882204	391.000000
1494.824157	361.600000
1496.763849	349.200000
1498.703105	342.800000
1500.641927	379.000000
1502.578489	339.200000
1504.516441	357.400000
1506.452136	332.000000
1508.387397	339.800000
1510.320401	356.600000
1512.252973	362.800000
1514.185113	341.600000
1516.116821	343.800000
1518.046275	362.400000
1519.977120	347.800000
1521.907534	339.000000
1523.833875	362.600000
1525.761606	364.800000
1527.687087	343.000000
1529.612139	339.800000
1531.536762	344.600000
1533.460956	344.000000
1535.382903	335.400000
1537.306239	358.600000
1539.227330	361.400000
1541.146176	330.600000
1543.066412	364.800000
1544.984404	354.000000
1546.901970	388.800000
1548.817294	337.800000
1550.734008	356.000000
1552.646667	368.400000
1554.562530	397.400000
1556.476154	363.400000
1558.387539	394.200000
1560.300313	327.600000
1562.209038	348.000000
1564.119153	349.600000
1566.028844	339.600000
1567.938111	387.800000
1569.845145	342.600000
1571.749946	336.000000
1573.656136	341.600000
1575.560094	353.400000
1577.463632	315.400000
1579.366748	351.200000
1581.267636	374.000000
1583.169911	344.800000
1585.069959	355.200000
1586.971395	365.800000
1588.868796	343.600000
1590.765780	353.400000
1592.662345	377.800000
1594.560297	358.000000
1596.452415	352.200000
1598.347727	332.200000
1600.242620	372.000000
1602.135292	352.600000
1604.027548	358.000000
1605.917584	334.200000
1607.807204	371.400000
1609.696409	346.200000
1611.585198	398.800000
1613.471771	345.600000
1615.359730	361.600000
1617.243674	334.400000
1619.129004	328.400000
1621.013920	337.200000
1622.896624	348.400000
1624.780713	340.200000
1626.660792	361.000000
1628.542257	341.400000
1630.421512	377.800000
1632.302153	341.400000
1634.176990	349.400000
1636.056809	329.200000
1637.932622	368.200000
1639.808026	347.600000
1641.684815	341.400000
1643.555807	345.600000
1645.429981	338.400000
1647.300157	357.400000
1649.173513	353.400000
1651.044666	375.400000
1652.913617	347.200000
1654.783954	342.200000
1656.650297	350.800000
1658.518026	324.400000
1660.383557	352.200000
1662.250472	311.600000
1664.113399	351.400000
1665.977711	330.600000
1667.839828	342.000000
1669.701539	329.800000
1671.564635	355.000000
1673.425537	336.400000
1675.284245	340.600000
1677.142550	339.000000
1679.002240	326.200000
1680.856163	323.000000
1682.713258	363.600000
1684.569951	332.600000
1686.422668	360.200000
1688.278556	331.200000
1690.130470	339.600000
1691.981982	333.400000
1693.833095	356.800000
1695.683806	338.400000
1697.534117	367.200000
1699.382244	322.400000
1701.231754	335.000000
1703.075516	348.800000
1704.924228	322.800000
1706.767193	319.200000
1708.613324	345.000000
1710.455494	311.200000
1712.300828	319.400000
1714.140422	333.600000
1715.981400	356.200000
1717.823761	323.600000
1719.662166	322.400000
1721.501954	344.400000
1723.339567	371.200000
1725.176784	329.200000
1727.011828	345.400000
1728.848255	334.400000
1730.682510	352.800000
1732.516371	312.800000
1734.349837	322.200000
1736.179357	304.400000
1738.012036	342.000000
1739.840771	330.800000
1741.672664	358.800000
1743.500614	336.800000
1745.328172	347.000000
1747.155339	313.400000
1748.982113	329.600000
1750.808497	312.000000
1752.630944	344.000000
1754.456545	315.800000
1756.278212	350.800000
1758.101261	330.600000
1759.922149	306.200000
1761.742647	333.800000
1763.564527	329.400000
1765.380707	338.400000
1767.200039	348.000000
1769.015444	307.600000
1770.833999	338.600000
1772.648630	341.400000
1774.462873	338.000000
1776.276730	326.000000
1778.090200	323.000000
1779.901516	338.600000
1781.714214	352.200000
1783.526525	331.600000
1785.334919	331.600000
1787.144694	338.200000
1788.950553	333.000000
1790.759559	299.400000
1792.564651	342.800000
1794.371123	327.400000
1796.177212	314.600000
1797.979391	355.000000
1799.784713	351.000000
1801.586127	340.200000
1803.388921	328.600000
1805.187810	310.600000
1806.988078	324.800000
1808.787966	319.800000
1810.585711	324.000000
1812.383076	312.200000
1814.180060	355.800000
1815.976664	317.000000
1817.771129	329.000000
1819.566974	317.800000
1821.357163	346.800000
1823.152249	308.200000
1824.941682	327.600000
1826.734253	363.200000
1828.524688	340.400000
1830.312988	347.000000
1832.104424	343.600000
1833.890214	325.600000
1835.677384	347.400000
1837.462422	293.800000
1839.250594	325.000000
1841.034880	349.600000
1842.817037	303.400000
1844.600572	294.000000
1846.381980	342.000000
1848.164765	308.400000
1849.943671	305.600000
1851.723955	327.400000
1853.502114	311.800000
1855.281650	333.400000
1857.059062	329.000000
1858.834350	326.000000
1860.611017	296.400000
1862.385561	324.800000
1864.161482	301.600000
1865.931784	308.400000
1867.705213	338.400000
1869.476522	304.600000
1871.247460	302.200000
1873.019775	307.200000
1874.786478	312.200000
1876.556305	297.000000
1878.322269	326.000000
1880.091357	333.000000
1881.856583	314.600000
1883.621441	313.000000
1885.387675	315.800000
1887.150051	330.600000
1888.912060	326.200000
1890.673702	347.800000
1892.434976	300.800000
1894.195884	283.800000
1895.956424	351.000000
1897.714855	321.800000
1899.472921	329.200000
1901.228879	326.200000
1902.986213	324.600000
1904.743181	300.800000
1906.498044	313.400000
1908.250801	302.600000
1910.003195	332.000000
1911.756964	313.600000
1913.508630	330.600000
1915.258194	298.000000
1917.009134	335.400000
1918.759710	314.000000
1920.506448	310.200000
1922.254561	315.800000
1924.000575	338.600000
1925.747965	324.000000
1927.493256	319.000000
1929.236450	308.400000
1930.981020	338.800000
1932.723493	326.800000
1934.465606	301.800000
1936.207359	290.600000
1937.948753	344.000000
1939.688053	333.200000
1941.426994	338.600000
1943.165576	305.200000
1944.902066	293.400000
1946.638199	295.200000
1948.375706	297.000000
1950.109392	313.800000
1951.844452	343.000000
1953.577423	326.400000
1955.310038	316.800000
1957.042296	301.400000
1958.774198	304.800000
1960.504014	337.600000
1962.231746	311.200000
1963.960851	304.600000
1965.689602	307.800000
1967.416269	325.000000
1969.142582	333.000000
1970.870268	316.200000
1972.592418	343.600000
1974.317670	288.600000
1976.039114	315.800000
1977.763658	333.000000
1979.486123	314.200000
1981.204784	339.600000
1982.926544	340.800000
1984.644502	336.200000
1986.363834	317.200000
1988.079365	310.800000
1989.799718	349.600000
1991.516271	310.200000
1993.229029	324.400000
1994.944882	326.800000
1996.658662	310.200000
1998.372093	322.000000
2000.083453	300.800000
2001.796186	297.400000
2003.505127	334.800000
2005.217162	316.200000
2006.923687	340.200000
2008.633305	332.400000
2010.340855	320.800000
2012.048058	324.400000
2013.753195	330.200000
2015.457985	292.200000
2017.164147	331.800000
2018.866527	321.000000
2020.570279	318.800000
2022.271968	325.600000
2023.973311	353.000000
2025.674309	320.400000
2027.373247	340.000000
2029.073556	327.000000
2030.770089	318.600000
2032.467994	305.200000
2034.163841	320.200000
2035.862773	320.000000
2037.556218	315.800000
2039.251036	308.000000
2040.945510	324.600000
2042.636216	318.200000
2044.330006	307.000000
2046.020029	336.000000
2047.711423	336.000000
2049.400764	337.000000
2051.091475	316.000000
2052.778424	335.800000
2054.465032	311.600000
2056.153011	334.400000
2057.837230	346.000000
2059.522819	329.800000
2061.208069	316.200000
2062.891271	294.400000
2064.575843	326.600000
2066.254951	288.800000
2067.938845	338.000000
2069.617279	288.000000
2071.298790	323.400000
2072.976549	331.800000
2074.653972	342.000000
2076.332764	299.000000
2078.009513	338.800000
2079.684221	313.600000
2081.360298	314.000000
2083.034335	302.600000
2084.708036	314.000000
2086.381402	314.400000
2088.052730	325.800000
2089.723723	301.000000
2091.394382	320.400000
2093.064707	328.800000
2094.734697	312.800000
2096.402652	315.000000
2098.070274	301.600000
2099.735862	301.600000
2101.402818	331.000000
2103.067741	321.400000
2104.732331	303.400000
2106.394890	308.600000
2108.058818	336.400000
2109.720714	323.800000
2111.382279	334.600000
2113.043514	318.400000
2114.702719	324.000000
2116.361595	301.200000
2118.020140	336.400000
2119.678356	299.000000
2121.332848	345.000000
2122.990406	319.600000
2124.647633	322.200000
2126.301140	322.600000
2127.956014	331.800000
2129.607169	330.200000
2131.261387	303.200000
2132.911887	327.800000
2134.563755	320.200000
2136.210214	282.400000
2137.861427	284.600000
2139.508927	310.600000
2141.157795	308.400000
2142.804643	300.400000
2144.451165	304.800000
2146.097362	307.600000
2147.739851	318.200000
2149.385398	301.200000
2151.027238	308.800000
2152.672135	291.800000
2154.313327	319.000000
2155.954195	327.400000
2157.594740	316.000000
2159.233272	289.600000
2160.873170	301.000000
2162.509368	306.000000
2164.146932	281.600000
2165.784174	325.200000
2167.419406	311.600000
2169.054316	289.200000
2170.688905	317.800000
2172.323173	296.000000
2173.953747	307.000000
2175.587372	301.200000
2177.217306	314.200000
2178.848605	296.200000
2180.477900	267.600000
2182.106874	289.200000
2183.735530	317.600000
2185.363866	303.600000
2186.990199	309.400000
2188.616214	298.400000
2190.240228	306.000000
2191.865607	307.800000
2193.488985	306.000000
2195.113728	297.800000
2196.734789	295.000000
2198.355535	292.800000
2199.977644	294.600000
2201.597756	303.800000
2203.215872	301.400000
2204.833672	290.400000
2206.451156	300.800000
2208.068325	282.800000
2209.685179	296.400000
2211.301718	287.400000
2212.916263	309.600000
2214.528816	285.200000
2216.142734	310.200000
2217.754659	299.400000
2219.367949	280.000000
2220.979247	294.000000
2222.588557	295.200000
2224.199229	304.800000
2225.807913	293.800000
2227.416285	304.800000
2229.022669	315.400000
2230.630417	291.000000
2232.236178	292.600000
2233.841628	306.000000
2235.445094	296.600000
2237.049922	309.200000
2238.652766	303.200000
2240.253627	291.000000
2241.855851	253.600000
2243.456092	306.200000
2245.057697	309.400000
2246.655648	310.200000
2248.254962	301.000000
2249.852296	292.800000
2251.449322	323.400000
2253.047709	267.000000
2254.642448	287.800000
2256.235211	287.800000
2257.829335	295.200000
2259.424821	279.600000
2261.016663	311.200000
2262.608198	304.000000
2264.201094	292.400000
2265.788681	285.600000
2267.380965	307.600000
2268.967941	304.600000
2270.557946	323.000000
2272.142646	297.000000
2273.732040	291.400000
2275.316131	274.800000
2276.901584	291.800000
2278.485068	307.000000
2280.071577	327.400000
2281.654453	292.200000
2283.237025	299.400000
2284.819295	290.600000
2286.397934	313.400000
2287.979597	292.800000
2289.557632	286.800000
2291.138691	276.400000
2292.716122	286.700000
2294.291590	297.000000
2295.870080	302.400000
2297.444945	276.800000
2299.019510	278.600000
2300.593775	304.800000
2302.167739	307.800000
2303.741403	285.800000
2305.314766	276.800000
2306.884511	285.800000
2308.453957	272.600000
2310.026422	289.000000
2311.593611	267.000000
2313.163819	296.000000
2314.730412	303.600000
2316.298365	305.600000
2317.864363	298.200000
2319.430063	273.200000
2320.995465	282.200000
2322.558914	304.600000
2324.123721	310.800000
2325.684921	316.600000
2327.249135	319.400000
2328.808088	334.600000
2330.370054	347.800000
2331.930070	295.600000
2333.489790	304.200000
2335.047561	247.200000
2336.605038	282.400000
2338.162219	294.000000
2339.717454	269.000000
2341.272394	289.200000
2342.827041	290.200000
2344.381394	274.200000
2345.935453	265.000000
2347.489219	275.000000
2349.041040	300.800000
2350.590918	277.000000
2352.143804	299.600000
2353.691448	280.400000
2355.242099	257.600000
2356.789160	296.400000
2358.337578	299.000000
2359.885704	290.000000
2361.430243	305.800000
2362.976139	293.800000
2364.520096	283.800000
2366.065411	258.600000
2367.607141	276.600000
2369.150229	272.600000
2370.691380	293.000000
2372.232242	290.600000
2373.772815	290.000000
2375.313099	281.200000
2376.853094	298.000000
2378.389510	261.600000
2379.928928	286.400000
2381.464769	262.800000
2383.001966	261.200000
2384.535589	284.800000
2386.072211	267.200000
2387.606902	280.400000
2389.139664	284.800000
2390.672140	258.800000
2392.202687	240.000000
2393.736232	260.000000
2395.264566	292.000000
2396.794256	249.600000
2398.323661	274.400000
2399.852781	288.400000
2401.381615	264.200000
2402.905245	246.400000
2404.433510	278.200000
2405.956572	274.800000
2407.484269	262.800000
2409.005125	288.200000
2410.530615	311.600000
2412.052544	256.400000
2413.575829	273.800000
2415.097193	292.800000
2416.616637	263.000000
2418.137436	275.600000
2419.656316	288.200000
2421.174914	288.400000
2422.691595	276.600000
2424.209631	253.200000
2425.727385	280.600000
2427.241587	293.200000
2428.755509	278.200000
2430.269152	260.400000
2431.784148	283.400000
2433.295596	270.000000
2434.808399	287.600000
2436.319289	286.800000
2437.829899	259.200000
2439.338598	273.000000
2440.850284	261.800000
2442.358426	257.200000
2443.866289	315.800000
2445.373875	243.200000
2446.877921	273.800000
2448.384951	289.600000
2449.890073	287.200000
2451.394918	255.000000
2452.897856	281.200000
2454.400517	266.600000
2455.902902	276.800000
2457.403382	259.800000
2458.905215	261.600000
2460.405144	272.600000
2461.904797	272.800000
2463.404175	260.200000
2464.901650	254.000000
2466.397223	269.800000
2467.895776	279.400000
2469.390800	259.000000
2470.887178	247.000000
2472.380029	276.600000
2473.874232	269.600000
2475.368162	262.400000
2476.858569	265.400000
2478.351953	250.200000
2479.843438	267.600000
2481.333027	268.200000
2482.822344	258.200000
2484.309766	261.200000
2485.800163	281.800000
2487.287041	266.200000
2488.775271	254.000000
2490.259985	275.400000
2491.744428	267.200000
2493.230223	247.400000
2494.714125	269.200000
2496.199379	259.000000
2497.679499	264.000000
2499.162591	250.200000
2500.643793	271.000000
2502.124726	252.600000
2503.603770	307.000000
2505.082546	241.600000
2506.561053	251.600000
2508.039291	257.000000
2509.517261	270.600000
2510.991727	286.600000
2512.469161	251.800000
2513.943092	263.600000
2515.418374	266.600000
2516.893388	267.600000
2518.364901	252.200000
2519.837765	240.000000
2521.308745	249.000000
2522.781076	275.200000
2524.248294	284.400000
2525.718478	245.800000
2527.186780	272.800000
2528.654818	225.000000
2530.122591	267.600000
2531.590099	247.400000
2533.057342	268.200000
2534.521094	245.000000
2535.986195	281.800000
2537.449419	260.600000
2538.913992	266.400000
2540.375076	257.200000
2541.837511	249.600000
2543.299682	234.200000
2544.758366	276.200000
2546.221623	263.800000
2547.679783	230.600000
2549.139292	261.000000
2550.593708	287.600000
2552.052694	249.000000
2553.509807	255.600000
2554.965050	246.600000
2556.420032	268.200000
2557.873144	249.200000
2559.327605	244.600000
2560.780197	246.200000
2562.232529	244.800000
2563.682993	291.800000
2565.136413	251.400000
2566.584751	257.800000
2568.036045	270.200000
2569.485472	248.400000
2570.931428	239.200000
2572.380338	251.000000
2573.825777	264.000000
2575.272565	265.000000
2576.717489	269.200000
2578.162156	283.400000
2579.608170	254.200000
2581.050717	262.000000
2582.494612	272.000000
2583.935042	256.400000
2585.376820	249.600000
2586.816738	245.400000
2588.258003	244.200000
2589.695806	246.000000
2591.136559	261.400000
2592.572249	256.400000
2594.010889	269.000000
2595.447672	234.400000
2596.882598	280.200000
2598.320473	219.000000
2599.753290	255.400000
2601.187454	250.200000
2602.619763	225.600000
2604.053419	252.800000
2605.485222	234.200000
2606.916772	251.000000
2608.348068	242.800000
2609.777513	229.000000
2611.206705	249.800000
2612.634046	260.800000
2614.062734	221.600000
2615.491169	230.200000
2616.916158	243.400000
2618.342492	247.400000
2619.766978	255.600000
2621.192810	213.600000
2622.615198	219.400000
2624.038932	235.400000
2625.460820	246.800000
2626.882457	234.200000
2628.302249	252.000000
2629.723387	231.600000
2631.144275	272.000000
2632.561725	230.400000
2633.982114	268.400000
2635.399066	225.800000
2636.815770	232.200000
2638.232225	239.800000
2639.648432	230.200000
2641.064390	237.600000
2642.478508	249.800000
2643.892379	241.200000
2645.304410	262.800000
2646.717786	236.400000
2648.127732	247.200000
2649.540614	227.800000
2650.950067	240.800000
2652.359274	249.800000
2653.766645	214.200000
2655.176950	235.400000
2656.585419	237.400000
2657.992053	252.000000
2659.398442	247.600000
2660.802997	252.000000
2662.208896	228.800000
2663.612962	232.800000
2665.016784	247.800000
2666.420361	247.400000
2667.822106	226.000000
2669.225195	231.400000
2670.624867	237.400000
2672.025882	243.000000
2673.423480	264.200000
2674.824009	227.000000
2676.221123	262.600000
2677.619580	252.200000
2679.016209	253.800000
2680.412597	225.400000
2681.808742	243.000000
2683.203061	269.000000
2684.598723	240.600000
2685.990975	233.400000
2687.384571	224.200000
2688.776342	251.800000
2690.169455	242.800000
2691.560745	239.400000
2692.950212	217.400000
2694.339440	236.400000
2695.728427	244.800000
2697.118757	234.200000
2698.504102	244.600000
2699.892372	252.000000
2701.278820	217.400000
2702.665031	227.000000
2704.051002	209.400000
2705.433575	194.000000
2706.817489	247.800000
2708.201166	247.200000
2709.584605	247.400000
2710.964648	202.800000
2712.346033	241.400000
2713.725602	242.800000
2715.106513	239.000000
2716.485609	265.200000
2717.862890	248.200000
2719.241513	227.200000
2720.618323	244.000000
2721.994897	238.800000
2723.371235	233.000000
2724.745761	215.600000
2726.121628	222.400000
2727.494108	223.600000
2728.869505	236.000000
2730.239940	224.800000
2731.611717	234.600000
2732.983260	227.200000
2734.352994	252.400000
2735.724068	225.800000
2737.093335	236.200000
2738.462368	212.200000
2739.829594	226.800000
2741.196588	245.000000
2742.563349	242.000000
2743.929877	208.200000
2745.294600	237.600000
2746.659092	228.600000
2748.023351	243.600000
2749.387379	250.600000
2750.751174	240.200000
2752.111596	225.800000
2753.474929	220.800000
2754.833319	236.400000
2756.194619	235.000000
2757.552548	233.400000
2758.913387	247.800000
2760.272425	236.000000
2761.628095	229.200000
2762.986673	217.200000
2764.341885	222.200000
2765.696867	235.600000
2767.050052	224.400000
2768.406144	213.800000
2769.758872	237.200000
2771.111371	215.200000
2772.463642	214.800000
2773.817252	211.800000
2775.167500	248.800000
2776.515955	254.200000
2777.867314	242.000000
2779.215314	230.600000
2780.564653	227.000000
2781.912199	229.400000
2783.259518	242.000000
2784.606611	226.600000
2785.951913	241.800000
2787.296989	216.600000
2788.641839	209.600000
2789.986463	222.600000
2791.327734	230.000000
2792.670344	229.800000
2794.012729	219.200000
2795.354888	204.400000
2796.693698	216.600000
2798.035408	200.800000
2799.373769	238.200000
2800.713468	236.800000
2802.051381	222.400000
2803.387510	190.200000
2804.723416	230.200000
2806.060658	235.000000
2807.396117	242.800000
2808.731353	211.400000
2810.064807	199.000000
2811.399597	225.400000
2812.731046	233.200000
2814.065391	208.400000
2815.394838	259.400000
2816.725622	221.000000
2818.056184	219.200000
2819.384967	188.000000
2820.715087	233.200000
2822.043427	227.800000
2823.371547	217.600000
2824.697890	204.400000
2826.025568	215.400000
2827.349914	210.000000
2828.675595	216.800000
2829.999502	227.000000
2831.323188	248.600000
2832.648210	211.200000
2833.969903	214.000000
2835.291376	215.400000
2836.612631	220.400000
2837.933667	226.800000
2839.252931	223.000000
2840.573530	205.800000
2841.892357	163.200000
2843.210966	199.400000
2844.527805	225.800000
2845.844426	199.400000
2847.160829	208.200000
2848.475464	212.600000
2849.791433	210.800000
2851.104082	226.600000
2852.418067	234.200000
2853.731835	210.400000
2855.045386	215.400000
2856.357170	216.000000
2857.667189	222.200000
2858.978542	214.000000
2860.286579	239.600000
2861.595952	195.200000
2862.905109	214.400000
2864.214051	203.600000
2865.521230	216.600000
2866.826645	219.200000
2868.133395	205.400000
2869.438382	182.600000
2870.743156	229.000000
2872.046168	228.000000
2873.352062	217.800000
2874.653101	237.800000
2875.955473	220.200000
2877.256086	220.800000
2878.558033	204.000000
2879.859767	201.200000
2881.158197	185.800000
2882.457960	199.600000
2883.755966	202.600000
2885.053760	199.800000
2886.349797	217.200000
2887.647168	219.000000
2888.942783	205.400000
2890.238188	191.400000
2891.533381	228.200000
2892.825276	224.400000
2894.120048	193.600000
2895.411523	217.200000
2896.704332	251.600000
2897.996930	196.400000
2899.286233	236.800000
2900.576869	217.800000
2901.865754	213.800000
2903.155972	205.200000
2904.442898	214.000000
2905.731156	214.600000
2907.017665	228.000000
2908.303965	213.000000
2909.590057	228.000000
2910.874401	227.600000
2912.161617	199.600000
2913.444006	200.800000
2914.727727	253.000000
2916.009701	208.800000
2917.291469	231.400000
2918.571491	185.400000
2919.854383	206.200000
2921.135530	205.800000
2922.413395	220.400000
2923.694129	206.600000
2924.971582	210.200000
2926.248830	227.600000
2927.524335	212.200000
2928.802708	209.400000
2930.076266	213.600000
2931.352692	217.600000
2932.627377	200.800000
2933.900322	208.400000
2935.174597	205.000000
2936.447133	213.400000
2937.719465	204.000000
2938.988524	209.600000
2940.260448	202.400000
2941.530633	206.400000
2942.800616	202.400000
2944.070395	220.800000
2945.338437	208.000000
2946.604744	186.800000
2947.870848	242.000000
2949.138283	202.800000
2950.403982	214.800000
2951.669479	205.200000
2952.934774	197.400000
2954.196805	213.600000
2955.460165	199.000000
2956.723324	167.200000
2957.984750	186.600000
2959.247506	176.200000
2960.508531	204.000000
2961.767825	195.200000
2963.026918	211.200000
2964.285811	202.200000
2965.544504	193.000000
2966.802997	193.400000
2968.059761	190.800000
2969.316325	209.600000
2970.571162	172.600000
2971.827328	169.600000
2973.080238	211.000000
2974.334478	204.400000
2975.588519	197.800000
2976.840834	192.400000
2978.092951	187.400000
2979.343343	183.200000
2980.596590	206.400000
2981.845060	188.000000
2983.096384	186.800000
2984.344460	189.400000
2985.592338	182.400000
2986.840019	185.200000
2988.087504	184.600000
2989.333267	175.000000
2990.578833	196.000000
2991.825728	161.800000
2993.069377	210.400000
2994.314355	195.000000
2995.556090	198.400000
2996.800676	177.400000
2998.043543	203.400000
2999.283168	166.400000
3000.525645	199.200000
3001.764881	160.200000
3003.005445	209.600000
3004.244292	168.600000
3005.482945	182.400000
3006.719882	185.000000
3007.958146	175.400000
3009.194696	167.400000
3010.431052	201.800000
3011.667214	177.400000
3012.901662	203.400000
3014.135917	163.600000
3015.369979	186.600000
3016.602329	189.800000
3017.832967	185.000000
3019.066451	204.400000
3020.298224	181.600000
3021.528285	185.800000
3022.758155	168.800000
3023.986315	172.200000
3025.215802	211.000000
3026.443579	176.000000
3027.671165	182.000000
3028.900077	182.000000
3030.124247	172.600000
3031.351260	186.600000
3032.575050	184.800000
3033.800165	182.600000
3035.023574	189.400000
3036.246794	173.400000
3037.468308	163.800000
3038.692663	183.200000
3039.912283	177.400000
3041.133229	196.600000
3042.353985	165.800000
3043.573038	170.000000
3044.793417	187.600000
3046.010579	189.400000
3047.229066	164.800000
3048.445852	174.000000
3049.662449	170.200000
3050.878859	181.800000
3052.092055	143.400000
3053.308089	180.400000
3054.520911	197.200000
3055.736570	179.000000
3056.947506	174.000000
3058.159768	193.400000
3059.371842	187.800000
3060.583730	170.400000
3061.793920	195.800000
3063.003925	165.800000
3064.213743	213.400000
3065.421865	173.000000
3066.629801	151.400000
3067.836043	178.400000
3069.043609	206.800000
3070.249480	202.600000
3071.455166	198.400000
3072.660667	180.400000
3073.864476	191.000000
3075.069608	158.400000
3076.273047	173.800000
3077.474794	171.800000
3078.676358	166.800000
3079.877738	177.800000
3081.078934	190.800000
3082.278440	163.600000
3083.477762	165.800000
3084.678408	161.400000
3085.877365	186.600000
3087.073126	189.200000
3088.271717	186.600000
3089.467114	161.200000
3090.663835	201.200000
3091.857363	179.600000
3093.053719	191.000000
3094.248388	163.800000
3095.439867	160.400000
3096.635677	187.600000
3097.826794	160.200000
3099.019234	172.000000
3100.208485	170.200000
3101.400563	174.400000
3102.590957	182.800000
3103.778164	175.600000
3104.966695	186.600000
3106.156548	161.200000
3107.343216	179.200000
3108.529705	182.000000
3109.716014	187.800000
3110.903646	172.600000
3112.088095	166.800000
3113.270864	168.600000
3114.456457	169.000000
3115.640369	156.200000
3116.822603	179.400000
3118.004659	175.400000
3119.186536	198.000000
3120.368235	144.200000
3121.548257	175.000000
3122.726601	189.800000
3123.907767	134.600000
3125.085757	182.400000
3126.263570	189.600000
3127.441206	186.600000
3128.617167	162.200000
3129.792952	172.200000
3130.970057	172.400000
3132.145489	178.000000
3133.319247	137.400000
3134.491332	178.200000
3135.664738	189.600000
3136.837969	192.200000
3138.009527	169.400000
3139.182407	178.000000
3140.352119	166.600000
3141.523152	176.600000
3142.692514	177.400000
3143.860207	199.600000
3145.030715	157.600000
3146.196564	177.200000
3147.366723	170.200000
3148.532224	183.400000
3149.697552	187.000000
3150.862706	177.800000
3152.027687	183.200000
3153.193987	140.000000
3154.355634	156.400000
3155.518602	147.000000
3156.681396	182.400000
3157.844018	176.200000
3159.004975	175.800000
3160.165759	168.600000
3161.326371	157.800000
3162.485320	175.600000
3163.644096	173.400000
3164.802701	150.000000
3165.961134	187.800000
3167.119395	175.200000
3168.275994	180.000000
3169.430932	171.800000
3170.587189	156.000000
3171.741786	140.600000
3172.896211	156.800000
3174.048977	129.400000
3175.201573	172.400000
3176.353999	179.600000
3177.506254	158.000000
3178.658340	169.000000
3179.807279	167.600000
3180.959025	146.600000
3182.109114	177.800000
3183.257545	163.400000
3184.405808	184.600000
3185.553902	179.800000
3186.701826	195.000000
3187.848096	162.200000
3188.994197	178.200000
3190.138644	171.400000
3191.282922	172.800000
3192.427033	146.200000
3193.572462	172.600000
3194.714752	190.400000
3195.856874	154.600000
3196.998830	176.600000
3198.140618	164.800000
3199.282239	167.800000
3200.420724	177.600000
3201.560528	176.000000
3202.701648	174.000000
3203.839634	165.000000
3204.975971	163.000000
3206.112142	165.400000
3207.249631	175.800000
3208.385471	148.200000
3209.522627	167.800000
3210.655171	158.800000
3211.791997	149.800000
3212.924211	146.000000
3214.057743	175.000000
3215.191109	156.800000
3216.321348	152.800000
3217.454385	164.000000
3218.584296	151.000000
3219.715524	162.800000
3220.843626	176.600000
3221.974526	159.200000
3223.103781	161.800000
3224.231392	148.000000
3225.355882	146.000000
3226.484647	164.800000
3227.610290	172.000000
3228.735770	155.800000
3229.859609	191.600000
3230.986243	155.000000
3232.108278	165.800000
3233.231630	151.600000
3234.354820	199.800000
3235.477848	174.600000
3236.599236	191.400000
3237.720463	139.800000
3238.840051	170.400000
3239.959478	176.200000
3241.077267	163.000000
3242.197849	167.400000
3243.315317	169.600000
3244.432624	160.800000
3245.549770	171.200000
3246.665281	142.600000
3247.782107	182.000000
3248.895822	162.600000
3250.012328	181.000000
3251.127198	165.400000
3252.238960	185.800000
3253.350563	153.400000
3254.463481	152.600000
3255.576239	158.200000
3256.685891	152.600000
3257.796858	152.800000
3258.907666	171.000000
3260.016842	147.200000
3261.124387	184.400000
3262.233247	158.400000
3263.341948	139.200000
3264.447547	150.400000
3265.554461	200.200000
3266.659745	139.400000
3267.766343	140.800000
3268.869841	163.400000
3269.974653	188.400000
3271.079308	150.600000
3272.180865	170.600000
3273.282265	157.400000
3274.384979	177.800000
3275.487536	182.200000
3276.586998	173.800000
3277.689242	157.200000
3278.788392	156.200000
3279.885916	194.400000
3280.983285	160.200000
3282.083437	167.000000
3283.180495	162.200000
3284.277399	161.400000
3285.374147	168.600000
3286.466336	154.600000
3287.562775	172.600000
3288.657591	160.800000
3289.752252	157.200000
3290.845292	151.000000
3291.938178	151.400000
3293.029443	131.200000
3294.122021	170.800000
3295.212979	170.600000
3296.302317	188.600000
3297.391502	171.800000
3298.481999	165.800000
3299.569412	147.200000
3300.656673	170.600000
3301.745246	151.400000
3302.833666	150.200000
3303.917539	171.800000
3305.005654	198.400000
3306.090688	185.200000
3307.174106	130.000000
3308.258836	147.200000
3309.341950	157.800000
3310.426376	166.400000
3311.507724	171.000000
3312.590384	163.800000
3313.671430	159.200000
3314.752325	153.200000
3315.831607	160.400000
3316.910738	171.200000
3317.991180	155.600000
3319.068549	175.600000
3320.147229	186.800000
3321.224297	157.800000
3322.301215	171.400000
3323.376523	140.600000
3324.451681	152.600000
3325.528150	142.800000
3326.601548	166.800000
3327.674798	148.000000
3328.749359	178.000000
3329.822310	165.400000
3330.893654	182.000000
3331.966308	195.200000
3333.035895	168.000000
3334.106793	154.400000
3335.176084	143.600000
3336.246686	144.000000
3337.315681	181.000000
3338.383070	166.200000
3339.448854	159.200000
3340.518864	158.400000
3341.585811	175.000000
3342.649696	169.200000
3343.716349	151.400000
3344.781398	155.000000
3345.844843	162.800000
3346.908141	165.000000
3347.971294	165.000000
3349.034300	144.600000
3350.097159	175.600000
3351.158417	147.400000
3352.216618	157.800000
3353.279040	177.400000
3354.338405	172.200000
3355.397626	150.000000
3356.458155	159.200000
3357.514175	167.600000
3358.572960	141.000000
3359.627237	140.400000
3360.684278	150.800000
3361.739720	151.000000
3362.796471	177.400000
3363.851625	142.200000
3364.905181	151.000000
3365.957140	178.400000
3367.011861	172.400000
3368.063534	132.000000
3369.115062	167.400000
3370.167900	188.000000
3371.217690	161.000000
3372.268789	139.800000
3373.316841	159.600000
3374.367654	159.600000
3375.415421	185.000000
3376.463046	141.400000
3377.510529	161.400000
3378.556418	164.200000
3379.603617	128.800000
3380.647772	153.800000
3381.694686	175.600000
3382.740008	149.600000
3383.782290	162.200000
3384.824430	158.400000
3385.867879	149.600000
3386.911186	175.000000
3387.952903	167.400000
3388.994479	145.000000
3390.035915	182.400000
3391.075762	170.200000
3392.114020	159.200000
3393.153586	178.800000
3394.193012	172.400000
3395.230850	132.800000
3396.267101	157.000000
3397.303212	130.600000
3398.340631	177.800000
3399.375017	135.000000
3400.410711	161.600000
3401.446265	160.800000
3402.478787	178.000000
3403.514063	126.000000
3404.546308	164.000000
3405.578415	170.000000
3406.608938	156.600000
3407.640769	183.600000
3408.672461	176.600000
3409.701125	152.400000
3410.729651	192.800000
3411.759485	158.200000
3412.789180	143.600000
3413.815850	142.800000
3414.843827	153.600000
3415.868779	136.800000
3416.896481	163.600000
3417.921160	156.400000
3418.947145	163.200000
3419.971551	144.600000
3420.995819	142.400000
3422.018509	177.200000
3423.041063	151.200000
3424.064923	160.600000
3425.085763	166.800000
3426.106468	138.800000
3427.128478	162.200000
3428.147470	132.800000
3429.166327	173.200000
3430.186489	152.400000
3431.203635	154.000000
