-116.707459	-3.000000
-114.037859	6.666667
-111.371194	-14.666667
-108.705281	32.666667
-106.042300	-17.000000
-103.377890	-9.000000
-100.716410	5.666667
-98.053501	31.666667
-95.395698	30.666667
-92.736466	3.666667
-90.077982	-5.000000
-87.422422	0.333333
-84.765434	16.666667
-82.113544	16.666667
-79.460224	10.666667
-76.809823	28.666667
-74.157993	6.333333
-71.511254	32.000000
-68.863086	36.666667
-66.215660	13.000000
-63.571148	-4.666667
-60.925208	8.000000
-58.284349	31.333333
-55.642061	7.333333
-53.002682	6.666667
-50.361873	-6.666667
-47.721805	16.666667
-45.086809	10.666667
-42.450385	-0.666667
-39.816863	2.333333
-37.181913	44.000000
-34.552028	10.333333
-31.918551	4.333333
-29.290136	25.333333
-26.662455	25.333333
-24.033345	26.000000
-21.409292	32.000000
-18.781650	50.333333
-16.159061	89.333333
-13.537204	114.333333
-10.916077	197.666667
-8.295680	473.666667
-5.678172	1735.666667
-3.059235	5404.333333
-0.443183	13233.333333
2.172140	21399.000000
4.786736	10823.666667
7.398449	1310.333333
10.011591	171.000000
12.619699	104.333333
15.231389	30.333333
17.838048	35.333333
20.446135	59.666667
23.053498	32.000000
25.655836	43.666667
28.261752	39.666667
30.862646	22.666667
33.464968	52.666667
36.062273	51.666667
38.663153	12.000000
41.259018	-1.000000
43.856312	24.666667
46.452886	33.000000
49.044451	8.666667
51.637444	-7.000000
54.227576	39.000000
56.819136	60.666667
59.407836	12.333333
61.997963	-21.666667
64.583091	-14.000000
67.169647	0.333333
69.755489	26.333333
72.338477	-18.333333
74.922891	37.333333
77.500177	-14.333333
80.081029	23.333333
82.659032	8.666667
85.236325	25.000000
87.815044	37.000000
90.388781	8.666667
92.963946	-10.333333
95.536267	13.000000
98.107880	21.333333
100.676653	15.333333
103.246853	18.666667
105.814215	-6.000000
108.383002	10.000000
110.948953	27.666667
113.512069	28.333333
116.078741	-3.000000
118.636192	24.333333
121.199328	37.666667
123.757504	23.666667
126.319235	41.666667
128.876009	64.666667
131.434210	92.000000
133.987457	125.000000
136.540007	196.666667
139.096107	224.333333
141.647259	330.333333
144.197714	402.666667
146.747471	475.666667
149.294409	509.666667
151.840652	530.333333
154.388320	505.000000
156.935292	488.000000
159.477329	530.000000
162.018672	472.333333
164.559322	475.000000
167.101398	502.000000
169.640662	526.666667
172.177118	515.333333
174.712882	509.666667
177.250072	495.666667
179.786571	510.333333
182.320264	533.000000
184.851153	486.000000
187.381355	552.666667
189.912981	512.333333
192.441806	505.000000
194.967832	525.333333
197.493172	513.000000
200.019937	501.000000
202.543906	521.666667
205.067190	485.000000
207.589789	512.666667
210.109595	480.333333
212.628718	516.666667
215.147158	518.666667
217.667022	508.333333
220.179885	513.333333
222.696279	571.666667
225.211991	558.000000
227.722813	560.666667
230.235060	574.666667
232.744525	537.333333
235.253311	609.333333
237.761418	633.000000
240.270950	564.000000
242.775601	621.333333
245.279576	594.333333
247.784975	601.333333
250.285499	593.000000
252.789547	577.000000
255.286623	606.333333
257.787223	600.000000
260.285051	611.000000
262.782206	604.666667
265.278688	604.333333
267.770307	614.666667
270.265446	595.000000
272.757818	663.666667
275.249520	631.000000
277.738459	633.333333
280.228822	655.333333
282.716422	640.333333
285.201263	638.666667
287.689619	620.333333
290.171035	669.000000
292.655965	664.000000
295.136050	653.666667
297.619647	719.000000
300.098401	721.666667
302.578579	739.000000
305.056004	798.666667
307.532766	753.666667
310.008865	694.000000
312.482215	725.333333
314.954903	679.000000
317.426930	666.666667
319.898296	773.333333
322.366917	715.333333
324.834880	720.000000
327.304264	692.333333
329.768826	684.000000
332.236892	638.666667
334.700138	659.333333
337.162726	659.666667
339.624658	636.333333
342.085933	648.666667
344.544474	609.666667
347.004437	613.000000
349.461667	644.333333
351.918243	618.333333
354.374165	618.666667
356.827357	647.000000
359.281972	630.666667
361.731785	624.333333
364.185094	648.666667
366.633605	593.000000
369.081464	585.000000
371.530746	627.000000
373.975234	624.333333
376.421144	622.666667
378.866404	606.333333
381.308946	616.000000
383.750840	622.333333
386.192087	579.000000
388.630618	598.666667
391.070571	587.333333
393.507810	543.333333
395.942337	592.333333
398.380352	603.000000
400.813590	599.000000
403.248249	601.333333
405.678136	582.333333
408.111508	563.333333
410.540110	579.000000
412.968070	563.333333
415.397452	608.666667
417.822068	616.000000
420.248106	598.666667
422.673503	561.000000
425.098260	562.666667
427.518259	625.666667
429.939679	610.666667
432.358402	603.666667
434.778546	590.000000
437.195995	632.000000
439.614864	585.000000
442.031040	587.000000
444.442468	564.000000
446.857374	548.666667
449.269589	582.000000
451.681170	534.666667
454.092117	584.666667
456.500378	500.000000
458.908006	531.000000
461.315002	537.333333
463.721367	518.666667
466.125049	550.666667
468.528101	530.333333
470.930523	528.000000
473.332315	561.666667
475.731430	560.000000
478.131964	546.333333
480.531869	553.333333
482.927051	564.666667
485.325700	622.000000
487.719629	638.666667
490.112932	653.000000
492.505609	659.000000
494.897661	736.000000
497.291131	756.333333
499.679889	782.666667
502.065981	918.000000
504.453493	1016.333333
506.840382	1263.666667
509.224607	1693.666667
511.610250	2430.000000
513.993232	4106.333333
516.373553	7527.666667
518.755293	13987.333333
521.134374	20174.000000
523.514874	19180.333333
525.892716	12354.666667
528.267903	6394.666667
530.642472	3504.666667
533.018459	2330.666667
535.391794	1768.333333
537.766546	1484.666667
540.136613	1223.666667
542.506064	1074.666667
544.876933	952.000000
547.243122	889.666667
549.610729	791.666667
551.975690	718.666667
554.340038	681.000000
556.703773	691.000000
559.068926	644.000000
561.429407	608.000000
563.791306	589.333333
566.150564	602.333333
568.507185	621.000000
570.867250	581.000000
573.220624	522.000000
575.577443	501.666667
577.931627	503.000000
580.285202	508.333333
582.638170	498.666667
584.988505	507.666667
587.340258	480.666667
589.685334	474.333333
592.035874	496.666667
594.379740	496.666667
596.729068	457.000000
599.073747	489.666667
601.415802	436.000000
603.759274	446.333333
606.100123	482.333333
608.440370	451.666667
610.777996	482.333333
613.119057	463.333333
615.455480	469.333333
617.793320	476.666667
620.128543	456.000000
622.461150	477.333333
624.795173	498.666667
627.126582	486.333333
629.457393	471.666667
631.787607	490.000000
634.117222	478.000000
636.442214	414.333333
638.772648	441.333333
641.098461	436.666667
643.421666	458.666667
645.746288	449.000000
648.068304	425.666667
650.389726	451.333333
652.708546	439.666667
655.028781	403.000000
657.348423	451.666667
659.665464	429.333333
661.981913	437.000000
664.295764	424.666667
666.611031	422.666667
668.923701	416.666667
671.237786	392.333333
673.547271	437.000000
675.858172	445.000000
678.166480	425.333333
680.474200	423.333333
682.783334	427.666667
685.087876	428.666667
687.391832	376.333333
689.695202	436.333333
691.999986	373.666667
694.300184	365.333333
696.601796	374.666667
698.902823	379.333333
701.199269	370.333333
703.497130	384.333333
705.794407	419.666667
708.091101	380.000000
710.383219	403.333333
712.678748	381.000000
714.969703	357.333333
717.262073	389.000000
719.551868	353.333333
721.841082	365.333333
724.129717	392.000000
726.415779	386.000000
728.703256	376.666667
730.988161	366.000000
733.272489	395.666667
735.554248	370.333333
737.837421	382.666667
740.120017	354.333333
742.398057	412.000000
744.677512	371.333333
746.956390	362.666667
749.234694	404.000000
751.508448	384.000000
753.783615	384.666667
756.058209	334.666667
758.330244	429.333333
760.603692	394.666667
762.874582	383.666667
765.142916	401.666667
767.412663	378.000000
769.679856	401.333333
771.946478	391.666667
774.212530	394.666667
776.476031	375.000000
778.740945	407.000000
781.005289	367.666667
783.265104	414.666667
785.526331	408.000000
787.786991	438.333333
790.045105	413.666667
792.300674	379.333333
794.559634	416.333333
796.812095	422.000000
799.069922	395.000000
801.323231	381.666667
803.574000	389.000000
805.826181	448.333333
808.075823	379.000000
810.326878	434.333333
812.573421	450.000000
814.821376	400.000000
817.066797	413.000000
819.313629	398.000000
821.559900	409.000000
823.801666	419.666667
826.046816	423.333333
828.285493	414.333333
830.527552	392.666667
832.765113	423.333333
835.004086	430.000000
837.240532	405.666667
839.478389	412.666667
841.713721	401.000000
843.946530	429.000000
846.180750	403.333333
848.412447	375.333333
850.643590	405.666667
852.874178	375.333333
855.104212	411.000000
857.333692	417.666667
859.558690	394.333333
861.787063	401.333333
864.010956	430.000000
866.236261	396.333333
868.457090	431.666667
870.681291	374.000000
872.901019	369.666667
875.122157	406.333333
877.342745	425.666667
879.560824	457.333333
881.780312	426.333333
883.995334	411.333333
886.209808	375.333333
888.423735	379.000000
890.637115	416.000000
892.849947	441.000000
895.062233	433.666667
897.272016	454.666667
899.481254	397.666667
901.689947	455.666667
903.896141	416.000000
906.103744	403.000000
908.308849	394.666667
910.513411	423.333333
912.715478	422.666667
914.918954	423.666667
917.119936	380.666667
919.320376	447.000000
921.522225	448.333333
923.717683	420.333333
925.916500	486.666667
928.110878	486.666667
930.308614	549.000000
932.501914	604.666667
934.696623	701.000000
936.888846	713.000000
939.080530	835.666667
941.271677	840.666667
943.460341	891.666667
945.648469	890.333333
947.834116	897.000000
950.023115	907.000000
952.207691	898.333333
954.391732	879.000000
956.579123	856.666667
958.758210	903.000000
960.940648	881.333333
963.122552	899.333333
965.301981	888.333333
967.478938	904.000000
969.657303	940.333333
971.837075	942.000000
974.010498	950.000000
976.187267	908.000000
978.359629	916.333333
980.533399	911.000000
982.702765	922.000000
984.875475	914.333333
987.045720	882.000000
989.215436	833.333333
991.384623	788.333333
993.549413	777.000000
995.717544	690.666667
997.881281	657.000000
1000.046424	597.666667
1002.209108	542.333333
1004.371267	540.000000
1006.530969	527.666667
1008.690146	527.333333
1010.850730	515.000000
1013.008859	541.666667
1015.166465	498.333333
1017.323547	540.000000
1019.480105	476.666667
1021.632284	523.666667
1023.785870	484.000000
1025.938934	469.333333
1028.089549	501.333333
1030.241571	434.333333
1032.389219	470.333333
1034.540199	462.000000
1036.686808	429.666667
1038.832898	456.333333
1040.978470	474.000000
1043.125447	429.666667
1045.266135	436.333333
1047.410153	464.333333
1049.551730	460.666667
1051.692791	440.000000
1053.835256	459.666667
1055.971442	412.666667
1058.110953	432.000000
1060.246110	439.000000
1062.384591	446.000000
1064.518718	448.666667
1066.652332	412.000000
1068.787351	394.333333
1070.918020	439.000000
1073.050094	461.000000
1075.179739	406.666667
1077.308872	434.000000
1079.437493	424.000000
1081.565603	421.000000
1083.691287	401.000000
1085.816461	397.000000
1087.943039	445.000000
1090.065279	391.666667
1092.188924	415.666667
1094.308234	394.000000
1096.432774	396.000000
1098.551068	386.000000
1100.670767	417.666667
1102.788047	349.000000
1104.904821	389.666667
1107.021088	387.666667
1109.134939	362.333333
1111.250195	361.000000
1113.361127	328.000000
1115.475372	379.333333
1117.585296	368.666667
1119.696624	398.666667
1121.807447	360.000000
1123.913954	382.000000
1126.023771	370.000000
1128.129273	348.000000
1130.236178	410.000000
1132.336868	390.666667
1134.442770	396.333333
1136.544363	351.666667
1138.647359	379.666667
1140.749854	379.333333
1142.846142	414.666667
1144.947637	390.666667
1147.044830	366.666667
1149.141525	357.333333
1151.237721	374.000000
1153.333420	341.666667
1155.428620	371.000000
1157.521424	354.333333
1159.615631	335.333333
1161.703646	354.000000
1163.796859	377.333333
1165.883884	363.666667
1167.974208	387.000000
1170.060244	383.666667
1172.149579	395.666667
1174.232732	363.666667
1176.317287	390.333333
1178.403244	333.666667
1180.484919	358.000000
1182.567996	378.666667
1184.648687	361.333333
1186.728886	358.666667
1188.808594	356.666667
1190.887811	368.000000
1192.964646	357.000000
1195.039100	377.000000
1197.116845	389.000000
1199.190321	346.000000
1201.265197	349.333333
1203.335806	330.000000
1205.407816	359.333333
1207.477451	352.666667
1209.548486	356.000000
1211.619033	333.333333
1213.685319	356.000000
1215.753006	362.000000
1217.818321	374.333333
1219.885036	365.000000
1221.947495	337.000000
1224.013239	354.333333
1226.074729	337.333333
1228.137620	318.000000
1230.198143	363.333333
1232.258182	370.333333
1234.317739	358.333333
1236.374930	367.000000
1238.431640	324.000000
1240.485986	361.333333
1242.543614	343.333333
1244.598879	353.333333
1246.649903	328.000000
1248.702327	358.000000
1250.754271	329.666667
1252.803857	383.666667
1254.852964	317.000000
1256.901593	359.666667
1258.949743	333.000000
1260.997414	343.666667
1263.040855	330.666667
1265.087572	357.333333
1267.131935	318.000000
1269.175822	343.000000
1271.217357	343.333333
1273.256543	378.000000
1275.299002	348.666667
1277.337238	321.333333
1279.376873	334.666667
1281.416033	342.000000
1283.450974	324.000000
1285.487314	363.333333
1287.521310	329.333333
1289.556703	361.666667
1291.587884	317.000000
1293.620462	358.333333
1295.652569	331.333333
1297.682335	346.000000
1299.713498	348.000000
1301.740455	374.333333
1303.768809	314.333333
1305.792958	345.666667
1307.820373	370.000000
1309.843585	355.333333
1311.868195	349.333333
1313.890471	348.000000
1315.914144	325.666667
1317.935484	350.333333
1319.956356	320.666667
1321.976761	346.333333
1323.992973	363.000000
1326.010582	301.000000
1328.025863	369.666667
1330.044403	335.666667
1332.058754	343.666667
1334.070779	354.000000
1336.086061	366.000000
1338.097158	355.333333
1340.109652	333.333333
1342.117963	343.333333
1344.129529	378.000000
1346.135057	336.000000
1348.143840	375.333333
1350.148445	369.333333
1352.156304	364.000000
1354.163701	310.666667
1356.165067	324.666667
1358.167829	385.666667
1360.170132	350.666667
1362.171975	342.666667
1364.173358	302.333333
1366.172428	341.666667
1368.171039	322.333333
1370.169192	346.666667
1372.166886	344.333333
1374.160418	334.333333
1376.155345	347.000000
1378.149816	358.000000
1380.143830	306.000000
1382.135537	362.000000
1384.126789	359.666667
1386.115735	359.666667
1388.106076	332.333333
1390.095962	341.000000
1392.083544	335.666667
1394.070673	325.000000
1396.055500	375.000000
1398.041722	339.000000
1400.025644	329.666667
1402.009113	310.000000
1403.992129	352.333333
1405.972848	331.000000
1407.954961	340.333333
1409.934778	329.333333
1411.914143	346.000000
1413.889370	328.666667
1415.867835	366.333333
1417.844007	349.666667
1419.819730	370.000000
1421.795003	322.000000
1423.767985	343.333333
1425.740519	346.666667
1427.712605	350.000000
1429.684244	334.000000
1431.651754	359.333333
1433.624338	333.666667
1435.589116	336.333333
1437.558967	328.333333
1439.524694	332.333333
1441.491813	376.333333
1443.456649	338.333333
1445.417365	346.000000
1447.383149	369.666667
1449.342978	373.000000
1451.304201	328.000000
1453.266816	336.000000
1455.225316	356.000000
1457.183373	370.000000
1459.140989	359.333333
1461.098162	340.666667
1463.053060	357.666667
1465.009351	382.666667
1466.963367	308.000000
1468.916942	349.000000
1470.868245	344.333333
1472.820941	391.000000
1474.771364	368.333333
1476.721349	334.666667
1478.670895	354.000000
1480.618172	345.333333
1482.563181	359.000000
1484.509583	329.000000
1486.455547	355.666667
1488.401074	340.666667
1490.344335	383.000000
1492.287161	315.000000
1494.227723	361.000000
1496.169676	315.333333
1498.109367	374.000000
1500.048624	353.000000
1501.987445	327.000000
1503.924007	346.333333
1505.861960	340.000000
1507.797654	349.666667
1509.732915	346.333333
1511.665920	325.000000
1513.598492	330.000000
1515.530632	380.000000
1517.462340	331.666667
1519.391794	329.333333
1521.322639	339.333333
1523.253052	366.000000
1525.179393	360.666667
1527.107125	336.666667
1529.032606	360.000000
1530.957658	362.666667
1532.882281	352.333333
1534.806475	343.666667
1536.728421	308.666667
1538.651758	352.000000
1540.572848	393.333333
1542.491694	371.666667
1544.411930	390.666667
1546.329923	326.000000
1548.247489	361.333333
1550.162813	354.333333
1552.079527	351.666667
1553.992186	357.333333
1555.908049	379.333333
1557.821672	375.333333
1559.733057	368.333333
1561.645832	387.000000
1563.554557	331.000000
1565.464671	343.333333
1567.374362	333.666667
1569.283630	363.666667
1571.190664	355.666667
1573.095465	370.333333
1575.001655	346.000000
1576.905613	354.666667
1578.809150	347.000000
1580.712267	340.000000
1582.613154	348.666667
1584.515430	332.666667
1586.415478	310.333333
1588.316913	338.333333
1590.214315	325.333333
1592.111298	317.333333
1594.007863	334.666667
1595.905816	334.333333
1597.797934	370.666667
1599.693245	337.333333
1601.588139	370.666667
1603.480811	348.666667
1605.373066	326.666667
1607.263102	324.000000
1609.152722	358.333333
1611.041927	360.333333
1612.930717	341.333333
1614.817289	351.000000
1616.705249	357.333333
1618.589192	334.000000
1620.474522	342.333333
1622.359439	324.333333
1624.242142	356.333333
1626.126232	348.000000
1628.006310	318.000000
1629.887776	359.333333
1631.767031	335.000000
1633.647672	312.000000
1635.522509	360.666667
1637.402327	365.333333
1639.278141	351.000000
1641.153544	359.666667
1643.030333	356.666667
1644.901326	323.000000
1646.775500	358.333333
1648.645675	317.000000
1650.519032	342.000000
1652.390184	328.000000
1654.259136	333.000000
1656.129472	376.333333
1657.995816	310.000000
1659.863545	325.000000
1661.729075	322.333333
1663.595991	330.000000
1665.458918	309.333333
1667.323230	327.333333
1669.185346	362.666667
1671.047057	335.333333
1672.910154	301.333333
1674.771055	332.333333
1676.629764	315.666667
1678.488069	337.333333
1680.347759	320.000000
1682.201681	348.000000
1684.058777	328.333333
1685.915470	311.000000
1687.768186	329.000000
1689.624074	318.000000
1691.475988	286.000000
1693.327501	311.333333
1695.178613	325.666667
1697.029325	360.000000
1698.879635	303.666667
1700.727762	336.333333
1702.577273	331.000000
1704.421035	317.666667
1706.269746	284.000000
1708.112711	360.000000
1709.958843	340.333333
1711.801012	301.666667
1713.646347	321.666667
1715.485941	298.000000
1717.326919	366.000000
1719.169280	331.000000
1721.007685	322.000000
1722.847473	330.000000
1724.685086	317.333333
1726.522303	302.666667
1728.357347	334.000000
1730.193774	306.000000
1732.028029	312.666667
1733.861889	322.666667
1735.695355	308.666667
1737.524876	264.333333
1739.357555	282.000000
1741.186290	327.666667
1743.018182	293.333333
1744.846132	287.000000
1746.673691	300.666667
1748.500857	334.000000
1750.327632	304.333333
1752.154015	278.666667
1753.976462	314.000000
1755.802064	318.666667
1757.623731	329.333333
1759.446780	298.333333
1761.267667	295.000000
1763.088166	314.333333
1764.910045	292.666667
1766.726226	301.000000
1768.545558	289.000000
1770.360963	343.000000
1772.179518	273.000000
1773.994148	309.000000
1775.808391	345.666667
1777.622248	324.666667
1779.435718	326.333333
1781.247035	339.333333
1783.059732	326.666667
1784.872044	308.666667
1786.680438	322.666667
1788.490212	314.333333
1790.296072	335.666667
1792.105077	305.000000
1793.910169	294.333333
1795.716642	302.666667
1797.522731	312.333333
1799.324909	332.000000
1801.130232	313.333333
1802.931646	300.000000
1804.734440	321.333333
1806.533328	281.666667
1808.333597	293.666667
1810.133484	299.333333
1811.931229	315.666667
1813.728594	307.000000
1815.525579	276.333333
1817.322183	314.000000
1819.116648	325.666667
1820.912492	328.666667
1822.702681	320.333333
1824.497767	316.000000
1826.287201	340.333333
1828.079771	282.000000
1829.870206	324.666667
1831.658507	321.333333
1833.449943	336.333333
1835.235733	321.333333
1837.022903	309.666667
1838.807941	321.333333
1840.596113	307.000000
1842.380399	302.000000
1844.162555	293.000000
1845.946091	296.000000
1847.727498	297.333333
1849.510284	320.333333
1851.289189	315.000000
1853.069474	311.000000
1854.847632	335.333333
1856.627169	304.666667
1858.404581	307.000000
1860.179869	288.666667
1861.956535	270.000000
1863.731079	284.000000
1865.507001	317.333333
1867.277302	298.666667
1869.050731	271.666667
1870.822040	288.666667
1872.592978	300.666667
1874.365294	354.333333
1876.131996	308.000000
1877.901824	311.333333
1879.667788	271.333333
1881.436875	320.666667
1883.202101	305.333333
1884.966959	306.000000
1886.733194	290.333333
1888.495570	301.000000
1890.257579	317.333333
1892.019220	324.666667
1893.780495	299.333333
1895.541402	326.666667
1897.301943	327.000000
1899.060374	327.000000
1900.818439	294.333333
1902.574397	332.666667
1904.331731	266.333333
1906.088700	303.000000
1907.843562	308.000000
1909.596320	324.333333
1911.348713	249.666667
1913.102483	283.666667
1914.854149	281.666667
1916.603713	329.000000
1918.354652	260.666667
1920.105229	294.333333
1921.851966	313.000000
1923.600080	321.666667
1925.346094	298.000000
1927.093483	322.666667
1928.838775	285.666667
1930.581969	296.666667
1932.326538	282.000000
1934.069012	301.666667
1935.811125	276.666667
1937.552878	277.333333
1939.294271	292.666667
1941.033571	291.333333
1942.772512	311.000000
1944.511094	315.666667
1946.247585	290.333333
1947.983718	296.000000
1949.721225	301.666667
1951.454910	278.000000
1953.189970	296.333333
1954.922941	331.000000
1956.655556	278.000000
1958.387815	275.666667
1960.119717	269.666667
1961.849533	320.000000
1963.577264	358.666667
1965.306370	320.666667
1967.035121	312.333333
1968.761788	301.000000
1970.488101	311.000000
1972.215787	299.666667
1973.937937	334.333333
1975.663188	303.000000
1977.384632	299.333333
1979.109177	308.333333
1980.831641	282.666667
1982.550303	304.000000
1984.272063	306.000000
1985.990021	285.666667
1987.709352	291.000000
1989.424884	313.333333
1991.145236	305.666667
1992.861790	293.000000
1994.574547	327.666667
1996.290400	335.666667
1998.004181	287.666667
1999.717612	291.666667
2001.428972	287.333333
2003.141704	292.666667
2004.850646	300.666667
2006.562680	290.000000
2008.269206	304.000000
2009.978823	306.333333
2011.686374	316.333333
2013.393576	261.000000
2015.098713	287.333333
2016.803504	289.000000
2018.509666	329.333333
2020.212046	303.000000
2021.915797	291.333333
2023.617486	286.666667
2025.318830	310.666667
2027.019828	319.000000
2028.718765	308.333333
2030.419074	271.666667
2032.115608	317.333333
2033.813513	319.000000
2035.509359	314.333333
2037.208291	304.333333
2038.901737	300.000000
2040.596554	297.333333
2042.291029	284.000000
2043.981735	286.333333
2045.675525	329.666667
2047.365548	342.000000
2049.056942	311.333333
2050.746283	323.333333
2052.436994	297.333333
2054.123942	297.000000
2055.810551	305.333333
2057.498529	338.000000
2059.182748	321.333333
2060.868338	313.000000
2062.553588	312.000000
2064.236789	288.000000
2065.921361	287.333333
2067.600470	314.000000
2069.284364	348.000000
2070.962797	308.333333
2072.644308	292.333333
2074.322067	333.333333
2075.999490	316.666667
2077.678282	288.000000
2079.355032	302.000000
2081.029740	288.000000
2082.705817	260.666667
2084.379853	273.666667
2086.053555	322.000000
2087.726921	298.000000
2089.398248	321.666667
2091.069241	273.333333
2092.739900	286.333333
2094.410225	293.666667
2096.080216	267.333333
2097.748171	278.666667
2099.415793	302.333333
2101.081380	273.000000
2102.748336	280.666667
2104.413259	309.666667
2106.077850	293.666667
2107.740409	290.000000
2109.404336	302.666667
2111.066232	260.333333
2112.727798	306.000000
2114.389032	302.000000
2116.048238	310.333333
2117.707113	290.333333
2119.365659	262.333333
2121.023874	304.000000
2122.678367	319.000000
2124.335924	299.000000
2125.993152	304.333333
2127.646658	283.666667
2129.301532	284.666667
2130.952687	308.333333
2132.606905	315.000000
2134.257406	300.666667
2135.909273	291.000000
2137.555732	306.000000
2139.206946	271.000000
2140.854446	333.666667
2142.503313	293.000000
2144.150161	320.333333
2145.796684	294.000000
2147.442881	321.000000
2149.085370	296.333333
2150.730917	288.333333
2152.372757	314.333333
2154.017654	310.666667
2155.658845	298.666667
2157.299714	302.000000
2158.940258	283.000000
2160.578790	299.666667
2162.218688	268.666667
2163.854886	289.666667
2165.492450	273.333333
2167.129692	315.000000
2168.764924	281.000000
2170.399835	324.333333
2172.034423	324.333333
2173.668691	274.666667
2175.299265	271.333333
2176.932891	300.333333
2178.562825	276.000000
2180.194124	277.666667
2181.823418	242.000000
2183.452393	282.333333
2185.081048	277.000000
2186.709384	279.333333
2188.335718	335.000000
2189.961733	328.000000
2191.585746	288.666667
2193.211125	288.666667
2194.834503	252.000000
2196.459246	288.666667
2198.080308	271.666667
2199.701053	339.666667
2201.323163	313.333333
2202.943275	246.666667
2204.561390	297.666667
2206.179190	279.333333
2207.796675	281.000000
2209.413844	285.333333
2211.030698	281.333333
2212.647236	276.333333
2214.261782	303.666667
2215.874335	292.000000
2217.488252	280.000000
2219.100178	278.666667
2220.713467	300.333333
2222.324766	249.666667
2223.934075	272.333333
2225.544748	269.333333
2227.153432	304.333333
2228.761803	283.333333
2230.368188	274.333333
2231.975936	284.333333
2233.581697	302.000000
2235.187147	315.333333
2236.790612	271.666667
2238.395440	286.666667
2239.998284	301.000000
2241.599145	288.333333
2243.201369	260.666667
2244.801611	300.000000
2246.403215	270.333333
2248.001166	283.000000
2249.600480	286.666667
2251.197814	269.000000
2252.794840	275.333333
2254.393228	286.000000
2255.987967	275.333333
2257.580729	321.333333
2259.174854	288.000000
2260.770340	304.000000
2262.362181	262.333333
2263.953716	289.333333
2265.546613	317.333333
2267.134200	273.000000
2268.726483	258.333333
2270.313460	312.000000
2271.903464	293.000000
2273.488164	283.666667
2275.077558	276.000000
2276.661650	305.000000
2278.247102	317.666667
2279.830586	249.333333
2281.417095	259.000000
2282.999971	293.333333
2284.582544	251.666667
2286.164813	282.333333
2287.743452	234.666667
2289.325116	290.333333
2290.903151	262.666667
2292.484209	247.000000
2294.061640	253.333333
2295.637108	259.666667
2297.215598	274.000000
2298.790464	259.000000
2300.365029	259.000000
2301.939294	269.000000
2303.513258	260.666667
2305.086921	283.666667
2306.660285	243.000000
2308.230030	284.333333
2309.799476	277.000000
2311.371940	267.000000
2312.939130	301.666667
2314.509338	264.333333
2316.075931	260.333333
2317.643884	257.333333
2319.209881	288.000000
2320.775581	271.000000
2322.340983	287.666667
2323.904432	260.333333
2325.469240	286.666667
2327.030440	348.000000
2328.594654	297.000000
2330.153606	322.666667
2331.715573	317.333333
2333.275588	275.666667
2334.835309	275.666667
2336.393080	289.333333
2337.950556	264.000000
2339.507738	278.333333
2341.062972	297.666667
2342.617913	258.666667
2344.172559	241.000000
2345.726912	251.000000
2347.280972	292.333333
2348.834737	254.333333
2350.386558	238.333333
2351.936437	276.666667
2353.489323	236.666667
2355.036966	288.333333
2356.587618	265.333333
2358.134678	260.000000
2359.683096	276.666667
2361.231223	290.000000
2362.775761	294.333333
2364.321657	283.666667
2365.865615	281.666667
2367.410930	247.666667
2368.952660	254.000000
2370.495747	277.000000
2372.036898	312.000000
2373.577760	261.000000
2375.118333	252.666667
2376.658617	288.333333
2378.198612	241.000000
2379.735029	300.333333
2381.274447	273.333333
2382.810287	241.666667
2384.347485	255.000000
2385.881107	250.666667
2387.417729	226.000000
2388.952421	239.666667
2390.485183	256.333333
2392.017658	227.666667
2393.548205	266.000000
2395.081750	285.000000
2396.610084	264.666667
2398.139774	249.333333
2399.669179	292.666667
2401.198299	259.000000
2402.727134	228.000000
2404.250763	269.666667
2405.779028	272.000000
2407.302091	274.000000
2408.829787	234.666667
2410.350644	296.666667
2411.876134	238.333333
2413.398063	273.333333
2414.921348	264.000000
2416.442711	271.666667
2417.962155	291.000000
2419.482954	263.666667
2421.001835	265.333333
2422.520433	299.666667
2424.037114	271.333333
2425.555149	250.000000
2427.072903	226.000000
2428.587106	279.000000
2430.101028	255.333333
2431.614670	272.333333
2433.129667	268.000000
2434.641115	269.333333
2436.153918	233.000000
2437.664807	246.666667
2439.175418	256.666667
2440.684117	275.000000
2442.195802	258.666667
2443.703944	263.000000
2445.211808	297.333333
2446.719394	246.333333
2448.223439	292.333333
2449.730469	306.333333
2451.235591	312.000000
2452.740436	245.333333
2454.243374	276.666667
2455.746036	276.333333
2457.248421	274.666667
2458.748901	278.333333
2460.250734	292.000000
2461.750662	234.666667
2463.250315	275.000000
2464.749693	236.666667
2466.247168	271.333333
2467.742741	223.666667
2469.241294	299.000000
2470.736319	231.000000
2472.232696	274.333333
2473.725547	263.000000
2475.219751	251.000000
2476.713681	217.333333
2478.204087	266.000000
2479.697471	213.333333
2481.188957	270.333333
2482.678546	284.000000
2484.167863	219.333333
2485.655284	263.333333
2487.145681	240.000000
2488.632560	278.000000
2490.120790	226.333333
2491.605503	248.000000
2493.089947	263.333333
2494.575741	255.000000
2496.059644	267.666667
2497.544897	250.333333
2499.025017	257.666667
2500.508110	250.333333
2501.989312	246.666667
2503.470245	240.000000
2504.949289	251.666667
2506.428064	263.666667
2507.906571	247.000000
2509.384810	242.666667
2510.862780	266.666667
2512.337245	271.333333
2513.814680	234.000000
2515.288611	251.000000
2516.763892	279.666667
2518.238906	261.333333
2519.710419	239.666667
2521.183283	241.000000
2522.654264	240.666667
2524.126595	267.666667
2525.593812	233.666667
2527.063996	271.666667
2528.532299	266.000000
2530.000337	260.000000
2531.468110	237.666667
2532.935618	242.333333
2534.402861	260.666667
2535.866612	272.666667
2537.331713	247.666667
2538.794937	264.000000
2540.259510	264.000000
2541.720595	240.000000
2543.183029	234.666667
2544.645200	250.000000
2546.103885	253.000000
2547.567141	251.333333
2549.025302	262.666667
2550.484811	248.333333
2551.939226	265.666667
2553.398212	222.333333
2554.855326	225.000000
2556.310569	225.666667
2557.765550	262.333333
2559.218663	276.666667
2560.673124	257.333333
2562.125715	212.000000
2563.578047	255.666667
2565.028512	262.666667
2566.481932	245.666667
2567.930270	208.000000
2569.381563	255.666667
2570.830991	237.000000
2572.276946	265.666667
2573.725856	239.333333
2575.171296	220.333333
2576.618083	193.000000
2578.063008	209.333333
2579.507674	223.000000
2580.953688	230.333333
2582.396236	275.666667
2583.840131	253.333333
2585.280561	200.000000
2586.722338	272.333333
2588.162256	248.333333
2589.603521	258.333333
2591.041324	232.000000
2592.482077	240.000000
2593.917768	282.000000
2595.356408	225.333333
2596.793190	242.333333
2598.228117	224.000000
2599.665991	231.333333
2601.098808	224.666667
2602.532972	247.000000
2603.965282	247.333333
2605.398938	236.666667
2606.830741	229.000000
2608.262290	230.333333
2609.693587	241.000000
2611.123031	261.666667
2612.552223	233.666667
2613.979565	224.666667
2615.408252	242.666667
2616.836688	298.000000
2618.261676	272.333333
2619.688011	255.333333
2621.112497	226.000000
2622.538329	254.000000
2623.960717	212.000000
2625.384451	250.666667
2626.806338	247.666667
2628.227976	236.000000
2629.647768	222.333333
2631.068906	257.000000
2632.489794	229.333333
2633.907244	247.333333
2635.327633	221.000000
2636.744585	269.666667
2638.161288	217.666667
2639.577743	254.000000
2640.993950	246.000000
2642.409909	246.333333
2643.824027	245.000000
2645.237897	224.666667
2646.649929	268.666667
2648.063304	259.333333
2649.473250	258.000000
2650.886132	230.333333
2652.295585	233.000000
2653.704792	218.666667
2655.112163	231.666667
2656.522468	231.000000
2657.930938	260.000000
2659.337572	246.333333
2660.743961	238.000000
2662.148516	279.000000
2663.554415	213.000000
2664.958481	219.333333
2666.362302	251.666667
2667.765879	230.666667
2669.167625	247.333333
2670.570714	242.000000
2671.970385	220.000000
2673.371400	217.000000
2674.768999	238.000000
2676.169527	251.666667
2677.566641	217.333333
2678.965098	234.666667
2680.361728	230.333333
2681.758115	254.666667
2683.154260	268.000000
2684.548579	213.000000
2685.944241	205.666667
2687.336494	249.666667
2688.730089	230.333333
2690.121860	231.000000
2691.514974	268.000000
2692.906264	251.333333
2694.295731	219.000000
2695.684958	213.666667
2697.073946	203.666667
2698.464275	227.333333
2699.849621	233.666667
2701.237890	230.666667
2702.624339	239.000000
2704.010549	206.666667
2705.396520	236.333333
2706.779093	227.333333
2708.163008	204.000000
2709.546685	203.666667
2710.930123	224.333333
2712.310167	230.333333
2713.691551	223.000000
2715.071121	219.666667
2716.452031	208.666667
2717.831127	208.000000
2719.208409	226.333333
2720.587032	229.000000
2721.963842	212.000000
2723.340415	218.000000
2724.716753	235.000000
2726.091280	206.666667
2727.467147	254.000000
2728.839627	211.333333
2730.215023	217.000000
2731.585459	228.666667
2732.957236	227.333333
2734.328778	230.666667
2735.698512	227.333333
2737.069587	239.333333
2738.438853	255.000000
2739.807886	232.333333
2741.175113	242.666667
2742.542106	245.333333
2743.908867	222.333333
2745.275396	240.333333
2746.640119	256.000000
2748.004610	269.333333
2749.368870	237.666667
2750.732897	242.000000
2752.096693	182.333333
2753.457115	254.666667
2754.820447	235.000000
2756.178837	233.666667
2757.540137	232.333333
2758.898067	199.333333
2760.258905	177.333333
2761.617944	213.000000
2762.973614	243.000000
2764.332192	208.666667
2765.687403	213.000000
2767.042385	231.000000
2768.395571	232.000000
2769.751662	247.333333
2771.104390	238.333333
2772.456890	198.666667
2773.809161	201.000000
2775.162770	261.333333
2776.513019	209.000000
2777.861473	199.333333
2779.212833	195.000000
2780.560833	217.666667
2781.910171	220.000000
2783.257717	203.333333
2784.605037	212.000000
2785.952130	211.666667
2787.297432	220.666667
2788.642507	183.333333
2789.987357	190.666667
2791.331981	230.333333
2792.673253	202.000000
2794.015863	196.333333
2795.358247	215.666667
2796.700406	214.333333
2798.039216	230.333333
2799.380926	195.333333
2800.719288	203.666667
2802.058986	214.333333
2803.396900	223.333333
2804.733029	195.333333
2806.068934	209.333333
2807.406177	222.666667
2808.741636	219.333333
2810.076872	215.666667
2811.410325	240.333333
2812.745115	220.666667
2814.076565	218.000000
2815.410910	200.000000
2816.740357	203.000000
2818.071141	201.000000
2819.401703	238.000000
2820.730486	207.333333
2822.060605	223.666667
2823.388946	207.333333
2824.717066	232.333333
2826.043408	210.000000
2827.371087	210.333333
2828.695432	213.333333
2830.021114	199.666667
2831.345020	179.000000
2832.668707	199.000000
2833.993729	188.000000
2835.315421	230.666667
2836.636895	197.666667
2837.958150	182.333333
2839.279186	240.000000
2840.598449	216.000000
2841.919048	204.333333
2843.237876	202.000000
2844.556485	236.666667
2845.873323	227.333333
2847.189944	228.666667
2848.506348	208.333333
2849.820982	236.666667
2851.136952	215.666667
2852.449601	230.333333
2853.763585	210.000000
2855.077353	245.333333
2856.390904	218.666667
2857.702689	198.000000
2859.012707	231.333333
2860.324060	200.333333
2861.632098	200.000000
2862.941470	200.000000
2864.250628	212.000000
2865.559570	221.666667
2866.866748	229.333333
2868.172164	214.333333
2869.478913	172.000000
2870.783901	199.000000
2872.088675	232.333333
2873.391687	221.666667
2874.697580	165.333333
2875.998619	213.666667
2877.300992	184.666667
2878.601605	183.666667
2879.903552	202.666667
2881.205285	207.666667
2882.503715	223.666667
2883.803478	254.000000
2885.101484	199.333333
2886.399278	215.000000
2887.695316	170.333333
2888.992687	233.333333
2890.288302	207.000000
2891.583706	207.666667
2892.878899	182.000000
2894.170795	195.333333
2895.465567	210.333333
2896.757042	207.333333
2898.049850	200.666667
2899.342448	180.000000
2900.631752	186.333333
2901.922388	184.000000
2903.211273	196.666667
2904.501490	249.666667
2905.788416	218.666667
2907.076674	189.333333
2908.363183	177.333333
2909.649483	198.000000
2910.935576	209.666667
2912.219920	216.333333
2913.507135	176.666667
2914.789524	184.333333
2916.073245	212.666667
2917.355220	163.000000
2918.636987	194.333333
2919.917010	221.666667
2921.199902	183.666667
2922.481049	225.333333
2923.758914	221.666667
2925.039648	163.000000
2926.317101	181.666667
2927.594348	206.000000
2928.869853	196.666667
2930.148226	203.666667
2931.421785	207.666667
2932.698211	229.000000
2933.972896	163.666667
2935.245840	206.333333
2936.520116	187.333333
2937.792652	169.000000
2939.064983	162.666667
2940.334042	220.666667
2941.605966	211.000000
2942.876152	243.666667
2944.146134	215.333333
2945.415913	206.666667
2946.683956	181.666667
2947.950262	172.000000
2949.216367	196.333333
2950.483801	156.666667
2951.749501	212.333333
2953.014998	195.666667
2954.280293	182.000000
2955.542323	170.000000
2956.805683	182.666667
2958.068842	163.666667
2959.330269	180.666667
2960.593025	174.666667
2961.854049	195.000000
2963.113343	173.000000
2964.372437	149.333333
2965.631330	181.666667
2966.890023	197.333333
2968.148516	204.333333
2969.405280	182.333333
2970.661844	183.333333
2971.916681	193.000000
2973.172846	177.333333
2974.425757	182.333333
2975.679997	183.666667
2976.934037	198.666667
2978.186353	197.333333
2979.438469	189.333333
2980.688861	192.333333
2981.942108	175.666667
2983.190578	206.666667
2984.441903	196.666667
2985.689978	176.000000
2986.937857	183.000000
2988.185538	204.333333
2989.433022	203.666667
2990.678785	165.333333
2991.924352	180.333333
2993.171246	196.333333
2994.414896	192.000000
2995.659874	176.666667
2996.901608	173.666667
2998.146194	200.333333
2999.389061	180.333333
3000.628687	164.666667
3001.871163	193.333333
3003.110399	169.000000
3004.350963	169.666667
3005.589810	183.333333
3006.828463	182.666667
3008.065400	140.666667
3009.303665	195.333333
3010.540214	192.333333
3011.776570	200.666667
3013.012732	192.666667
3014.247180	179.333333
3015.481436	179.333333
3016.715498	140.000000
3017.947848	184.666667
3019.178486	187.666667
3020.411970	182.333333
3021.643742	199.666667
3022.873804	148.000000
3024.103673	185.000000
3025.331833	185.333333
3026.561320	188.666667
3027.789097	158.000000
3029.016683	166.666667
3030.245596	176.333333
3031.469766	195.333333
3032.696779	171.000000
3033.920568	178.000000
3035.145684	171.333333
3036.369093	170.333333
3037.592312	185.333333
3038.813826	194.333333
3040.038181	188.333333
3041.257801	192.000000
3042.478747	170.333333
3043.699504	201.000000
3044.918557	168.333333
3046.138935	176.000000
3047.356097	186.000000
3048.574585	190.666667
3049.791370	216.666667
3051.007968	205.000000
3052.224377	159.333333
3053.437574	158.333333
3054.653608	185.333333
3055.866430	170.333333
3057.082089	154.666667
3058.293025	169.666667
3059.505286	174.000000
3060.717361	211.333333
3061.929248	172.333333
3063.139439	191.000000
3064.349443	180.333333
3065.559261	186.000000
3066.767383	206.333333
3067.975320	153.666667
3069.181561	160.333333
3070.389127	165.666667
3071.594998	157.166667
3072.800685	148.666667
3074.006186	184.000000
3075.209994	160.000000
3076.415126	175.666667
3077.618565	176.000000
3078.820313	173.000000
3080.021876	168.000000
3081.223256	161.333333
3082.424452	186.666667
3083.623958	148.666667
3084.823281	183.333333
3086.023927	174.666667
3087.222883	195.666667
3088.418645	181.000000
3089.617236	162.666667
3090.812633	166.000000
3092.009353	170.666667
3093.202881	140.333333
3094.399237	159.000000
3095.593907	149.333333
3096.785385	157.000000
3097.981196	143.333333
3099.172312	185.333333
3100.364752	176.000000
3101.554004	179.666667
3102.746081	142.666667
3103.936475	173.000000
3105.123683	163.333333
3106.312213	153.333333
3107.502066	165.000000
3108.688735	177.333333
3109.875223	181.000000
3111.061533	157.000000
3112.249164	171.000000
3113.433613	163.333333
3114.616383	169.333333
3115.801975	161.666667
3116.985888	170.000000
3118.168122	168.666667
3119.350177	143.333333
3120.532054	177.333333
3121.713753	149.666667
3122.893775	197.666667
3124.072120	166.666667
3125.253285	171.000000
3126.431275	168.666667
3127.609089	164.000000
3128.786725	167.000000
3129.962686	162.666667
3131.138470	194.000000
3132.315576	151.666667
3133.491007	162.333333
3134.664765	173.666667
3135.836850	158.666667
3137.010257	181.666667
3138.183487	166.000000
3139.355046	174.666667
3140.527925	154.000000
3141.697637	167.666667
3142.868670	161.666667
3144.038033	168.333333
3145.205725	178.666667
3146.376233	156.333333
3147.542083	147.333333
3148.712241	182.666667
3149.877743	165.000000
3151.043070	180.333333
3152.208224	162.000000
3153.373205	149.666667
3154.539505	185.000000
3155.701153	122.333333
3156.864120	185.666667
3158.026915	171.666667
3159.189537	158.000000
3160.350494	152.000000
3161.511278	152.666667
3162.671890	172.333333
3163.830838	162.000000
3164.989615	165.000000
3166.148220	140.000000
3167.306652	168.666667
3168.464914	178.000000
3169.621513	161.333333
3170.776451	167.333333
3171.932708	139.000000
3173.087304	144.666667
3174.241730	133.000000
3175.394496	179.666667
3176.547091	133.333333
3177.699517	153.666667
3178.851773	154.333333
3180.003858	162.333333
3181.152798	160.000000
3182.304544	159.666667
3183.454632	145.666667
3184.603064	168.000000
3185.751326	174.000000
3186.899420	164.666667
3188.047345	168.666667
3189.193614	193.666667
3190.339715	140.666667
3191.484162	179.333333
3192.628441	167.666667
3193.772552	154.000000
3194.917980	153.000000
3196.060270	161.666667
3197.202393	166.000000
3198.344348	139.000000
3199.486136	176.666667
3200.627757	193.666667
3201.766243	137.666667
3202.906046	179.000000
3204.047167	199.666667
3205.185153	167.333333
3206.321490	154.000000
3207.457661	185.666667
3208.595149	143.666667
3209.730989	157.666667
3210.868146	142.000000
3212.000690	157.333333
3213.137516	180.333333
3214.269730	193.333333
3215.403261	165.000000
3216.536628	139.000000
3217.666867	141.666667
3218.799904	171.666667
3219.929815	158.000000
3221.061042	137.000000
3222.189145	129.666667
3223.320044	150.333333
3224.449299	185.333333
3225.576911	168.000000
3226.701400	143.666667
3227.830165	150.000000
3228.955808	106.333333
3230.081289	159.333333
3231.205128	134.666667
3232.331761	142.333333
3233.453797	138.000000
3234.577149	152.666667
3235.700339	141.333333
3236.823366	153.333333
3237.944755	169.000000
3239.065981	155.000000
3240.185570	128.666667
3241.304997	140.333333
3242.422786	171.333333
3243.543367	145.666667
3244.660835	122.666667
3245.778142	148.333333
3246.895289	136.333333
3248.010800	144.000000
3249.127625	136.666667
3250.241341	154.666667
3251.357846	139.666667
3252.472717	163.000000
3253.584479	130.000000
3254.696081	147.333333
3255.808999	105.666667
3256.921757	141.666667
3258.031409	143.666667
3259.142376	154.333333
3260.253184	158.000000
3261.362360	139.666667
3262.469906	182.000000
3263.578765	140.666667
3264.687467	152.333333
3265.793066	143.666667
3266.899979	143.333333
3268.005263	122.666667
3269.111861	186.000000
3270.215359	168.666667
3271.320172	130.333333
3272.424827	161.666667
3273.526383	149.333333
3274.627783	146.000000
3275.730497	167.333333
3276.833055	142.000000
3277.932516	141.666667
3279.034761	118.000000
3280.133910	163.000000
3281.231435	134.666667
3282.328804	173.333333
3283.428955	151.000000
3284.526014	152.000000
3285.622917	157.000000
3286.719665	164.666667
3287.811855	158.333333
3288.908293	165.666667
3290.003109	144.000000
3291.097771	160.333333
3292.190811	164.666667
3293.283696	147.333333
3294.374962	99.666667
3295.467539	134.000000
3296.558497	135.333333
3297.647835	189.666667
3298.737020	156.000000
3299.827518	136.000000
3300.914931	144.333333
3302.002191	136.666667
3303.090764	121.666667
3304.179185	122.666667
3305.263058	176.000000
3306.351173	160.333333
3307.436206	144.333333
3308.519624	176.333333
3309.604354	174.000000
3310.687468	131.333333
3311.771895	137.333333
3312.853243	157.666667
3313.935903	141.666667
3315.016949	138.333333
3316.097844	140.000000
3317.177125	133.666667
3318.256256	103.666667
3319.336699	125.000000
3320.414067	159.000000
3321.492747	138.333333
3322.569815	171.666667
3323.646734	99.666667
3324.722041	127.000000
3325.797199	124.333333
3326.873668	153.333333
3327.947067	151.333333
3329.020317	141.666667
3330.094877	149.000000
3331.167829	140.666667
3332.239172	128.000000
3333.311826	126.666667
3334.381414	121.333333
3335.452312	125.333333
3336.521603	142.000000
3337.592205	146.000000
3338.661200	129.333333
3339.728589	137.333333
3340.794373	125.000000
3341.864383	147.000000
3342.931330	106.000000
3343.995215	125.666667
3345.061868	143.666667
3346.126916	147.666667
3347.190361	100.333333
3348.253660	111.666667
3349.316812	148.333333
3350.379818	119.333333
3351.442678	142.666667
3352.503936	151.666667
3353.562137	148.666667
3354.624558	120.333333
3355.683924	168.000000
3356.743144	117.333333
3357.803673	133.666667
3358.859694	155.666667
3359.918478	127.000000
3360.972755	128.333333
3362.029796	139.000000
3363.085238	159.000000
3364.141990	135.333333
3365.197143	141.333333
3366.250699	133.666667
3367.302659	133.666667
3368.357380	159.666667
3369.409052	151.333333
3370.460581	137.000000
3371.513418	147.000000
3372.563208	133.666667
3373.614307	112.666667
3374.662360	162.666667
3375.713172	105.000000
3376.760940	142.333333
3377.808565	135.333333
3378.856047	78.666667
3379.901937	123.000000
3380.949135	167.000000
3381.993291	126.000000
3383.040205	144.000000
3384.085527	111.000000
3385.127808	158.333333
3386.169949	148.333333
3387.213397	164.666667
3388.256704	138.000000
3389.298422	141.000000
3390.339998	103.333333
3391.381433	131.333333
3392.421280	122.666667
3393.459538	118.333333
3394.499104	137.000000
3395.538530	134.000000
3396.576368	127.333333
3397.612619	110.000000
3398.648731	131.666667
3399.686150	126.666667
3400.720536	146.333333
3401.756229	132.000000
3402.791783	147.666667
3403.824306	129.333333
3404.859582	101.666667
3405.891827	76.000000
3406.923934	120.333333
3407.954457	114.000000
3408.986287	135.333333
3410.017979	121.333333
3411.046643	115.333333
3412.075170	124.333333
3413.105003	143.666667
3414.134699	109.000000
3415.161369	97.333333
3416.189346	104.000000
3417.214298	118.666667
3418.242000	101.000000
3419.266679	112.000000
3420.292664	164.000000
3421.317069	118.000000
3422.341338	107.666667
3423.364028	148.000000
3424.386582	141.333333
3425.410442	127.333333
3426.431282	98.000000
3427.451986	138.000000
3428.473997	139.333333
3429.492989	124.000000
3430.511845	123.333333
3431.532008	127.666667
3432.549154	145.333333
