-116.707459	-36.333333
-114.037859	-0.666667
-111.371194	17.333333
-108.705281	32.666667
-106.042300	4.000000
-103.377890	-6.000000
-100.716410	-7.666667
-98.053501	17.666667
-95.395698	-21.000000
-92.736466	14.000000
-90.077982	-3.000000
-87.422422	0.666667
-84.765434	8.666667
-82.113544	12.666667
-79.460224	-14.000000
-76.809823	-8.333333
-74.157993	-2.000000
-71.511254	5.000000
-68.863086	-27.000000
-66.215660	-3.333333
-63.571148	-8.666667
-60.925208	-3.333333
-58.284349	42.333333
-55.642061	20.333333
-53.002682	36.666667
-50.361873	9.333333
-47.721805	0.666667
-45.086809	1.000000
-42.450385	1.666667
-39.816863	12.000000
-37.181913	9.666667
-34.552028	18.000000
-31.918551	26.666667
-29.290136	-10.000000
-26.662455	22.666667
-24.033345	49.333333
-21.409292	20.000000
-18.781650	46.000000
-16.159061	84.666667
-13.537204	120.000000
-10.916077	188.666667
-8.295680	493.666667
-5.678172	1729.000000
-3.059235	5135.333333
-0.443183	12905.000000
2.172140	26578.000000
4.786736	10794.666667
7.398449	1388.000000
10.011591	195.666667
12.619699	86.000000
15.231389	71.000000
17.838048	53.666667
20.446135	16.000000
23.053498	10.000000
25.655836	54.000000
28.261752	-12.000000
30.862646	6.000000
33.464968	-5.000000
36.062273	-12.666667
38.663153	-20.333333
41.259018	23.333333
43.856312	-0.333333
46.452886	-7.333333
49.044451	-6.000000
51.637444	-1.000000
54.227576	-26.333333
56.819136	-5.333333
59.407836	-6.666667
61.997963	12.000000
64.583091	21.333333
67.169647	16.333333
69.755489	-1.666667
72.338477	-0.333333
74.922891	8.333333
77.500177	-10.000000
80.081029	2.666667
82.659032	-10.333333
85.236325	49.666667
87.815044	40.666667
90.388781	12.000000
92.963946	-5.333333
95.536267	34.000000
98.107880	3.666667
100.676653	15.333333
103.246853	11.000000
105.814215	18.333333
108.383002	11.333333
110.948953	-5.333333
113.512069	-10.000000
116.078741	9.333333
118.636192	16.333333
121.199328	11.000000
123.757504	19.000000
126.319235	70.000000
128.876009	39.000000
131.434210	69.666667
133.987457	143.000000
136.540007	160.000000
139.096107	214.000000
141.647259	276.000000
144.197714	339.333333
146.747471	352.666667
149.294409	383.000000
151.840652	350.333333
154.388320	412.333333
156.935292	421.000000
159.477329	419.666667
162.018672	417.666667
164.559322	383.333333
167.101398	358.666667
169.640662	397.666667
172.177118	367.000000
174.712882	380.333333
177.250072	383.333333
179.786571	361.666667
182.320264	360.000000
184.851153	380.000000
187.381355	367.666667
189.912981	329.000000
192.441806	362.000000
194.967832	338.333333
197.493172	366.666667
200.019937	360.666667
202.543906	366.333333
205.067190	350.333333
207.589789	361.333333
210.109595	371.000000
212.628718	391.666667
215.147158	384.000000
217.667022	383.000000
220.179885	399.666667
222.696279	390.000000
225.211991	418.666667
227.722813	416.000000
230.235060	404.333333
232.744525	441.333333
235.253311	433.333333
237.761418	402.666667
240.270950	446.000000
242.775601	459.666667
245.279576	435.666667
247.784975	423.000000
250.285499	440.666667
252.789547	460.666667
255.286623	456.666667
257.787223	425.000000
260.285051	479.666667
262.782206	443.666667
265.278688	510.666667
267.770307	469.666667
270.265446	497.333333
272.757818	441.666667
275.249520	450.000000
277.738459	473.000000
280.228822	463.000000
282.716422	482.666667
285.201263	471.000000
287.689619	505.666667
290.171035	498.000000
292.655965	518.000000
295.136050	568.666667
297.619647	553.333333
300.098401	591.666667
302.578579	573.333333
305.056004	599.000000
307.532766	574.666667
310.008865	571.666667
312.482215	572.000000
314.954903	569.666667
317.426930	539.333333
319.898296	647.000000
322.366917	592.333333
324.834880	601.000000
327.304264	558.000000
329.768826	536.333333
332.236892	538.666667
334.700138	533.333333
337.162726	487.000000
339.624658	501.333333
342.085933	505.666667
344.544474	522.666667
347.004437	481.333333
349.461667	483.000000
351.918243	485.000000
354.374165	500.333333
356.827357	527.000000
359.281972	504.333333
361.731785	496.000000
364.185094	471.000000
366.633605	460.666667
369.081464	495.000000
371.530746	487.333333
373.975234	474.333333
376.421144	459.000000
378.866404	459.666667
381.308946	420.666667
383.750840	446.666667
386.192087	468.666667
388.630618	440.666667
391.070571	459.000000
393.507810	440.666667
395.942337	445.333333
398.380352	419.000000
400.813590	447.000000
403.248249	472.666667
405.678136	432.000000
408.111508	432.333333
410.540110	442.333333
412.968070	460.666667
415.397452	399.333333
417.822068	441.333333
420.248106	429.333333
422.673503	421.666667
425.098260	428.000000
427.518259	455.000000
429.939679	494.333333
432.358402	487.000000
434.778546	420.666667
437.195995	447.000000
439.614864	464.000000
442.031040	422.666667
444.442468	428.666667
446.857374	448.000000
449.269589	435.666667
451.681170	433.333333
454.092117	410.000000
456.500378	412.666667
458.908006	400.000000
461.315002	392.666667
463.721367	371.333333
466.125049	405.333333
468.528101	396.000000
470.930523	387.000000
473.332315	409.666667
475.731430	404.333333
478.131964	436.333333
480.531869	432.333333
482.927051	444.333333
485.325700	432.333333
487.719629	471.333333
490.112932	455.333333
492.505609	500.666667
494.897661	502.000000
497.291131	531.333333
499.679889	619.333333
502.065981	706.666667
504.453493	792.666667
506.840382	1043.000000
509.224607	1384.333333
511.610250	1999.666667
513.993232	3392.000000
516.373553	6503.000000
518.755293	12303.333333
521.134374	17909.666667
523.514874	17199.000000
525.892716	11127.333333
528.267903	5451.666667
530.642472	2894.333333
533.018459	1931.333333
535.391794	1394.333333
537.766546	1130.666667
540.136613	912.666667
542.506064	814.333333
544.876933	722.000000
547.243122	618.666667
549.610729	537.666667
551.975690	516.000000
554.340038	449.000000
556.703773	472.666667
559.068926	461.333333
561.429407	410.333333
563.791306	392.666667
566.150564	386.333333
568.507185	365.000000
570.867250	337.000000
573.220624	331.333333
575.577443	326.666667
577.931627	284.333333
580.285202	323.333333
582.638170	287.000000
584.988505	316.666667
587.340258	263.000000
589.685334	275.000000
592.035874	280.333333
594.379740	278.666667
596.729068	279.000000
599.073747	296.666667
601.415802	301.000000
603.759274	272.666667
606.100123	316.000000
608.440370	303.000000
610.777996	291.666667
613.119057	267.333333
615.455480	291.666667
617.793320	281.000000
620.128543	281.000000
622.461150	303.000000
624.795173	274.666667
627.126582	285.666667
629.457393	261.000000
631.787607	259.333333
634.117222	245.333333
636.442214	243.000000
638.772648	260.666667
641.098461	252.666667
643.421666	269.333333
645.746288	237.000000
648.068304	259.666667
650.389726	243.666667
652.708546	212.000000
655.028781	223.000000
657.348423	211.000000
659.665464	234.000000
661.981913	242.000000
664.295764	267.333333
666.611031	237.000000
668.923701	262.000000
671.237786	237.333333
673.547271	252.000000
675.858172	211.333333
678.166480	187.333333
680.474200	186.333333
682.783334	246.666667
685.087876	218.000000
687.391832	220.666667
689.695202	220.333333
691.999986	227.333333
694.300184	204.666667
696.601796	183.666667
698.902823	200.000000
701.199269	193.666667
703.497130	198.666667
705.794407	180.000000
708.091101	175.666667
710.383219	182.000000
712.678748	178.666667
714.969703	174.333333
717.262073	190.000000
719.551868	169.333333
721.841082	164.333333
724.129717	187.666667
726.415779	163.666667
728.703256	205.333333
730.988161	212.666667
733.272489	164.000000
735.554248	179.000000
737.837421	179.666667
740.120017	196.666667
742.398057	208.666667
744.677512	171.666667
746.956390	207.333333
749.234694	161.000000
751.508448	207.666667
753.783615	192.000000
756.058209	171.333333
758.330244	182.333333
760.603692	184.000000
762.874582	177.000000
765.142916	218.666667
767.412663	191.000000
769.679856	187.333333
771.946478	199.666667
774.212530	183.666667
776.476031	200.666667
778.740945	218.333333
781.005289	192.000000
783.265104	198.333333
785.526331	192.000000
787.786991	199.000000
790.045105	230.333333
792.300674	209.000000
794.559634	223.666667
796.812095	180.666667
799.069922	222.666667
801.323231	212.666667
803.574000	208.333333
805.826181	199.000000
808.075823	164.333333
810.326878	212.666667
812.573421	230.000000
814.821376	203.666667
817.066797	228.000000
819.313629	221.666667
821.559900	248.666667
823.801666	216.000000
826.046816	219.000000
828.285493	228.000000
830.527552	197.333333
832.765113	203.666667
835.004086	178.666667
837.240532	160.333333
839.478389	199.666667
841.713721	183.666667
843.946530	201.666667
846.180750	205.000000
848.412447	220.666667
850.643590	185.666667
852.874178	199.333333
855.104212	199.000000
857.333692	205.333333
859.558690	193.666667
861.787063	215.333333
864.010956	206.000000
866.236261	185.000000
868.457090	234.333333
870.681291	167.333333
872.901019	200.666667
875.122157	198.333333
877.342745	208.000000
879.560824	219.666667
881.780312	204.666667
883.995334	207.666667
886.209808	179.000000
888.423735	197.000000
890.637115	201.666667
892.849947	193.000000
895.062233	189.333333
897.272016	188.666667
899.481254	208.000000
901.689947	190.000000
903.896141	210.333333
906.103744	224.666667
908.308849	242.333333
910.513411	170.000000
912.715478	217.333333
914.918954	203.000000
917.119936	188.333333
919.320376	207.666667
921.522225	245.000000
923.717683	209.000000
925.916500	240.666667
928.110878	296.666667
930.308614	365.000000
932.501914	350.666667
934.696623	439.333333
936.888846	458.666667
939.080530	547.333333
941.271677	607.666667
943.460341	651.666667
945.648469	587.333333
947.834116	637.666667
950.023115	597.666667
952.207691	629.666667
954.391732	588.333333
956.579123	619.666667
958.758210	618.666667
960.940648	672.666667
963.122552	609.000000
965.301981	678.333333
967.478938	628.666667
969.657303	624.666667
971.837075	653.000000
974.010498	667.000000
976.187267	643.333333
978.359629	678.000000
980.533399	677.000000
982.702765	676.666667
984.875475	656.666667
987.045720	609.333333
989.215436	575.333333
991.384623	523.000000
993.549413	425.000000
995.717544	419.333333
997.881281	371.666667
1000.046424	407.666667
1002.209108	334.333333
1004.371267	370.666667
1006.530969	325.333333
1008.690146	385.000000
1010.850730	318.333333
1013.008859	357.000000
1015.166465	309.666667
1017.323547	318.333333
1019.480105	282.333333
1021.632284	290.333333
1023.785870	263.000000
1025.938934	245.000000
1028.089549	263.666667
1030.241571	262.666667
1032.389219	252.333333
1034.540199	233.000000
1036.686808	252.333333
1038.832898	242.333333
1040.978470	176.666667
1043.125447	234.000000
1045.266135	264.333333
1047.410153	225.333333
1049.551730	218.666667
1051.692791	194.333333
1053.835256	204.000000
1055.971442	200.000000
1058.110953	204.000000
1060.246110	192.333333
1062.384591	203.000000
1064.518718	226.000000
1066.652332	216.333333
1068.787351	208.000000
1070.918020	209.000000
1073.050094	222.666667
1075.179739	214.333333
1077.308872	227.666667
1079.437493	209.000000
1081.565603	212.666667
1083.691287	219.333333
1085.816461	192.000000
1087.943039	204.666667
1090.065279	185.666667
1092.188924	231.666667
1094.308234	174.000000
1096.432774	191.666667
1098.551068	192.000000
1100.670767	171.666667
1102.788047	192.666667
1104.904821	190.666667
1107.021088	171.000000
1109.134939	189.333333
1111.250195	161.333333
1113.361127	188.333333
1115.475372	183.000000
1117.585296	172.666667
1119.696624	159.000000
1121.807447	194.000000
1123.913954	168.000000
1126.023771	140.000000
1128.129273	189.000000
1130.236178	154.000000
1132.336868	169.000000
1134.442770	151.666667
1136.544363	165.666667
1138.647359	163.333333
1140.749854	172.000000
1142.846142	167.666667
1144.947637	153.000000
1147.044830	148.666667
1149.141525	173.666667
1151.237721	169.000000
1153.333420	142.666667
1155.428620	149.000000
1157.521424	166.000000
1159.615631	145.000000
1161.703646	147.000000
1163.796859	166.333333
1165.883884	154.666667
1167.974208	149.333333
1170.060244	146.000000
1172.149579	164.666667
1174.232732	127.000000
1176.317287	141.666667
1178.403244	167.666667
1180.484919	93.000000
1182.567996	97.000000
1184.648687	175.333333
1186.728886	163.666667
1188.808594	171.666667
1190.887811	139.666667
1192.964646	137.666667
1195.039100	138.000000
1197.116845	137.666667
1199.190321	140.666667
1201.265197	130.333333
1203.335806	132.333333
1205.407816	128.000000
1207.477451	142.666667
1209.548486	155.333333
1211.619033	139.666667
1213.685319	111.333333
1215.753006	106.333333
1217.818321	132.333333
1219.885036	136.333333
1221.947495	155.333333
1224.013239	157.666667
1226.074729	159.000000
1228.137620	147.333333
1230.198143	116.000000
1232.258182	165.333333
1234.317739	143.666667
1236.374930	147.000000
1238.431640	141.666667
1240.485986	127.666667
1242.543614	147.666667
1244.598879	120.333333
1246.649903	105.333333
1248.702327	112.000000
1250.754271	139.666667
1252.803857	134.333333
1254.852964	157.333333
1256.901593	134.333333
1258.949743	141.666667
1260.997414	114.333333
1263.040855	127.000000
1265.087572	127.000000
1267.131935	111.333333
1269.175822	137.333333
1271.217357	122.333333
1273.256543	116.000000
1275.299002	130.000000
1277.337238	143.666667
1279.376873	116.000000
1281.416033	125.666667
1283.450974	116.666667
1285.487314	111.333333
1287.521310	106.333333
1289.556703	103.333333
1291.587884	120.666667
1293.620462	140.333333
1295.652569	111.000000
1297.682335	143.000000
1299.713498	115.000000
1301.740455	108.000000
1303.768809	120.333333
1305.792958	115.000000
1307.820373	91.666667
1309.843585	131.333333
1311.868195	124.666667
1313.890471	109.000000
1315.914144	136.333333
1317.935484	135.333333
1319.956356	147.000000
1321.976761	128.666667
1323.992973	82.333333
1326.010582	116.333333
1328.025863	126.666667
1330.044403	131.333333
1332.058754	113.666667
1334.070779	104.666667
1336.086061	145.666667
1338.097158	127.333333
1340.109652	89.333333
1342.117963	118.333333
1344.129529	127.666667
1346.135057	89.666667
1348.143840	119.000000
1350.148445	132.000000
1352.156304	76.666667
1354.163701	114.333333
1356.165067	129.333333
1358.167829	90.666667
1360.170132	94.666667
1362.171975	122.000000
1364.173358	122.333333
1366.172428	107.666667
1368.171039	112.000000
1370.169192	110.000000
1372.166886	107.666667
1374.160418	124.333333
1376.155345	110.333333
1378.149816	116.000000
1380.143830	126.000000
1382.135537	113.000000
1384.126789	149.000000
1386.115735	116.000000
1388.106076	108.000000
1390.095962	119.000000
1392.083544	109.666667
1394.070673	109.000000
1396.055500	145.333333
1398.041722	110.666667
1400.025644	125.666667
1402.009113	136.000000
1403.992129	144.000000
1405.972848	135.333333
1407.954961	123.333333
1409.934778	117.666667
1411.914143	137.666667
1413.889370	113.000000
1415.867835	93.666667
1417.844007	103.000000
1419.819730	122.000000
1421.795003	134.333333
1423.767985	110.000000
1425.740519	122.666667
1427.712605	122.666667
1429.684244	133.333333
1431.651754	109.333333
1433.624338	94.000000
1435.589116	134.000000
1437.558967	104.333333
1439.524694	127.333333
1441.491813	131.666667
1443.456649	101.666667
1445.417365	107.333333
1447.383149	119.666667
1449.342978	103.000000
1451.304201	122.333333
1453.266816	122.333333
1455.225316	80.666667
1457.183373	137.666667
1459.140989	117.666667
1461.098162	126.000000
1463.053060	112.666667
1465.009351	121.333333
1466.963367	110.666667
1468.916942	141.333333
1470.868245	108.000000
1472.820941	114.000000
1474.771364	131.000000
1476.721349	112.000000
1478.670895	129.000000
1480.618172	135.000000
1482.563181	121.666667
1484.509583	125.666667
1486.455547	93.000000
1488.401074	102.000000
1490.344335	155.000000
1492.287161	140.000000
1494.227723	129.333333
1496.169676	131.333333
1498.109367	134.666667
1500.048624	133.333333
1501.987445	134.333333
1503.924007	89.333333
1505.861960	120.666667
1507.797654	140.333333
1509.732915	113.666667
1511.665920	134.000000
1513.598492	133.000000
1515.530632	154.000000
1517.462340	102.666667
1519.391794	136.000000
1521.322639	94.666667
1523.253052	101.333333
1525.179393	112.666667
1527.107125	134.666667
1529.032606	123.000000
1530.957658	143.000000
1532.882281	143.000000
1534.806475	121.666667
1536.728421	132.333333
1538.651758	99.666667
1540.572848	131.666667
1542.491694	136.000000
1544.411930	106.000000
1546.329923	99.333333
1548.247489	142.333333
1550.162813	106.000000
1552.079527	83.333333
1553.992186	148.666667
1555.908049	140.333333
1557.821672	137.000000
1559.733057	120.333333
1561.645832	137.000000
1563.554557	120.333333
1565.464671	106.000000
1567.374362	125.000000
1569.283630	112.000000
1571.190664	122.666667
1573.095465	101.000000
1575.001655	145.333333
1576.905613	136.666667
1578.809150	114.333333
1580.712267	120.666667
1582.613154	113.000000
1584.515430	106.333333
1586.415478	101.333333
1588.316913	131.666667
1590.214315	110.000000
1592.111298	101.333333
1594.007863	121.666667
1595.905816	87.666667
1597.797934	145.333333
1599.693245	85.000000
1601.588139	99.333333
1603.480811	150.666667
1605.373066	115.666667
1607.263102	97.000000
1609.152722	121.666667
1611.041927	141.000000
1612.930717	127.000000
1614.817289	108.000000
1616.705249	162.333333
1618.589192	125.333333
1620.474522	118.333333
1622.359439	125.333333
1624.242142	115.333333
1626.126232	122.666667
1628.006310	109.000000
1629.887776	88.666667
1631.767031	119.333333
1633.647672	88.666667
1635.522509	125.000000
1637.402327	107.666667
1639.278141	99.666667
1641.153544	91.333333
1643.030333	98.000000
1644.901326	121.333333
1646.775500	118.333333
1648.645675	110.333333
1650.519032	134.666667
1652.390184	143.333333
1654.259136	123.666667
1656.129472	107.666667
1657.995816	91.000000
1659.863545	121.000000
1661.729075	104.666667
1663.595991	120.333333
1665.458918	124.333333
1667.323230	115.000000
1669.185346	105.333333
1671.047057	101.333333
1672.910154	133.666667
1674.771055	119.666667
1676.629764	137.333333
1678.488069	91.000000
1680.347759	140.666667
1682.201681	138.333333
1684.058777	101.333333
1685.915470	120.333333
1687.768186	129.333333
1689.624074	95.666667
1691.475988	133.000000
1693.327501	121.666667
1695.178613	91.666667
1697.029325	111.666667
1698.879635	113.333333
1700.727762	122.000000
1702.577273	137.333333
1704.421035	135.333333
1706.269746	99.000000
1708.112711	95.000000
1709.958843	92.666667
1711.801012	104.333333
1713.646347	125.000000
1715.485941	88.333333
1717.326919	118.333333
1719.169280	106.000000
1721.007685	109.333333
1722.847473	105.000000
1724.685086	117.333333
1726.522303	141.000000
1728.357347	68.000000
1730.193774	139.666667
1732.028029	117.666667
1733.861889	101.666667
1735.695355	95.666667
1737.524876	88.666667
1739.357555	118.666667
1741.186290	111.000000
1743.018182	82.000000
1744.846132	98.666667
1746.673691	107.333333
1748.500857	85.666667
1750.327632	125.000000
1752.154015	125.333333
1753.976462	86.333333
1755.802064	102.333333
1757.623731	71.000000
1759.446780	141.000000
1761.267667	123.333333
1763.088166	134.666667
1764.910045	95.666667
1766.726226	79.666667
1768.545558	111.333333
1770.360963	106.333333
1772.179518	158.333333
1773.994148	116.333333
1775.808391	91.000000
1777.622248	87.666667
1779.435718	113.333333
1781.247035	114.666667
1783.059732	113.000000
1784.872044	100.000000
1786.680438	104.666667
1788.490212	110.333333
1790.296072	123.333333
1792.105077	125.333333
1793.910169	101.000000
1795.716642	116.000000
1797.522731	112.000000
1799.324909	102.666667
1801.130232	82.000000
1802.931646	99.666667
1804.734440	90.333333
1806.533328	123.000000
1808.333597	113.666667
1810.133484	123.333333
1811.931229	113.666667
1813.728594	93.666667
1815.525579	95.666667
1817.322183	121.333333
1819.116648	89.333333
1820.912492	131.000000
1822.702681	123.666667
1824.497767	120.666667
1826.287201	113.000000
1828.079771	107.333333
1829.870206	86.333333
1831.658507	128.666667
1833.449943	108.333333
1835.235733	108.666667
1837.022903	133.666667
1838.807941	118.333333
1840.596113	95.000000
1842.380399	131.666667
1844.162555	124.666667
1845.946091	97.666667
1847.727498	98.333333
1849.510284	137.666667
1851.289189	101.000000
1853.069474	143.333333
1854.847632	128.000000
1856.627169	91.000000
1858.404581	95.333333
1860.179869	119.333333
1861.956535	116.666667
1863.731079	114.666667
1865.507001	106.333333
1867.277302	125.666667
1869.050731	128.666667
1870.822040	125.000000
1872.592978	118.666667
1874.365294	114.333333
1876.131996	124.000000
1877.901824	103.333333
1879.667788	129.333333
1881.436875	101.333333
1883.202101	124.666667
1884.966959	108.666667
1886.733194	91.000000
1888.495570	113.000000
1890.257579	125.000000
1892.019220	136.333333
1893.780495	102.000000
1895.541402	54.000000
1897.301943	154.333333
1899.060374	111.333333
1900.818439	87.333333
1902.574397	118.000000
1904.331731	79.333333
1906.088700	122.333333
1907.843562	107.666667
1909.596320	116.000000
1911.348713	96.000000
1913.102483	137.000000
1914.854149	107.333333
1916.603713	108.666667
1918.354652	128.666667
1920.105229	117.333333
1921.851966	123.000000
1923.600080	99.333333
1925.346094	142.666667
1927.093483	120.333333
1928.838775	98.000000
1930.581969	84.000000
1932.326538	94.666667
1934.069012	119.666667
1935.811125	90.333333
1937.552878	136.666667
1939.294271	119.000000
1941.033571	113.666667
1942.772512	108.333333
1944.511094	93.666667
1946.247585	141.333333
1947.983718	112.333333
1949.721225	83.333333
1951.454910	112.000000
1953.189970	73.666667
1954.922941	96.666667
1956.655556	126.000000
1958.387815	102.000000
1960.119717	129.333333
1961.849533	116.666667
1963.577264	111.666667
1965.306370	112.000000
1967.035121	103.666667
1968.761788	112.666667
1970.488101	115.333333
1972.215787	112.333333
1973.937937	120.000000
1975.663188	102.666667
1977.384632	95.000000
1979.109177	117.333333
1980.831641	114.666667
1982.550303	109.333333
1984.272063	80.666667
1985.990021	121.666667
1987.709352	103.333333
1989.424884	107.333333
1991.145236	110.666667
1992.861790	116.666667
1994.574547	147.000000
1996.290400	79.000000
1998.004181	121.666667
1999.717612	98.000000
2001.428972	130.000000
2003.141704	90.000000
2004.850646	128.666667
2006.562680	77.666667
2008.269206	132.333333
2009.978823	110.666667
2011.686374	101.666667
2013.393576	104.000000
2015.098713	101.666667
2016.803504	110.000000
2018.509666	117.000000
2020.212046	125.000000
2021.915797	129.666667
2023.617486	121.666667
2025.318830	91.000000
2027.019828	120.000000
2028.718765	111.333333
2030.419074	80.666667
2032.115608	108.666667
2033.813513	113.000000
2035.509359	88.666667
2037.208291	137.000000
2038.901737	117.333333
2040.596554	109.000000
2042.291029	135.666667
2043.981735	107.000000
2045.675525	105.333333
2047.365548	136.000000
2049.056942	96.333333
2050.746283	103.000000
2052.436994	118.000000
2054.123942	124.333333
2055.810551	122.666667
2057.498529	110.000000
2059.182748	133.333333
2060.868338	107.333333
2062.553588	131.666667
2064.236789	129.000000
2065.921361	89.333333
2067.600470	107.000000
2069.284364	95.666667
2070.962797	103.000000
2072.644308	110.333333
2074.322067	72.333333
2075.999490	92.000000
2077.678282	114.333333
2079.355032	117.666667
2081.029740	80.333333
2082.705817	94.666667
2084.379853	124.333333
2086.053555	105.666667
2087.726921	99.000000
2089.398248	93.666667
2091.069241	116.000000
2092.739900	98.666667
2094.410225	106.000000
2096.080216	124.000000
2097.748171	75.333333
2099.415793	129.333333
2101.081380	115.000000
2102.748336	155.000000
2104.413259	86.000000
2106.077850	104.333333
2107.740409	95.666667
2109.404336	131.666667
2111.066232	111.333333
2112.727798	78.000000
2114.389032	104.000000
2116.048238	127.666667
2117.707113	135.666667
2119.365659	94.666667
2121.023874	98.000000
2122.678367	105.666667
2124.335924	131.000000
2125.993152	96.333333
2127.646658	116.333333
2129.301532	110.666667
2130.952687	99.666667
2132.606905	126.333333
2134.257406	108.000000
2135.909273	117.666667
2137.555732	119.000000
2139.206946	118.000000
2140.854446	82.000000
2142.503313	116.333333
2144.150161	104.000000
2145.796684	143.333333
2147.442881	131.000000
2149.085370	142.000000
2150.730917	117.000000
2152.372757	90.000000
2154.017654	111.000000
2155.658845	115.000000
2157.299714	116.333333
2158.940258	128.333333
2160.578790	83.666667
2162.218688	126.000000
2163.854886	114.666667
2165.492450	118.666667
2167.129692	90.000000
2168.764924	89.666667
2170.399835	96.000000
2172.034423	130.333333
2173.668691	118.666667
2175.299265	111.000000
2176.932891	91.666667
2178.562825	127.000000
2180.194124	103.333333
2181.823418	107.666667
2183.452393	92.666667
2185.081048	113.000000
2186.709384	115.666667
2188.335718	112.000000
2189.961733	106.333333
2191.585746	103.666667
2193.211125	101.000000
2194.834503	93.666667
2196.459246	89.333333
2198.080308	110.000000
2199.701053	93.666667
2201.323163	89.333333
2202.943275	104.000000
2204.561390	85.333333
2206.179190	106.666667
2207.796675	112.000000
2209.413844	101.666667
2211.030698	115.333333
2212.647236	84.666667
2214.261782	117.333333
2215.874335	131.000000
2217.488252	108.333333
2219.100178	104.333333
2220.713467	116.000000
2222.324766	98.666667
2223.934075	139.666667
2225.544748	108.666667
2227.153432	108.333333
2228.761803	108.333333
2230.368188	89.000000
2231.975936	93.666667
2233.581697	123.333333
2235.187147	109.333333
2236.790612	137.000000
2238.395440	132.000000
2239.998284	122.000000
2241.599145	99.333333
2243.201369	91.666667
2244.801611	104.333333
2246.403215	96.333333
2248.001166	110.666667
2249.600480	105.333333
2251.197814	110.333333
2252.794840	103.333333
2254.393228	81.666667
2255.987967	115.333333
2257.580729	123.000000
2259.174854	129.000000
2260.770340	113.333333
2262.362181	111.333333
2263.953716	88.000000
2265.546613	64.000000
2267.134200	106.000000
2268.726483	107.333333
2270.313460	65.666667
2271.903464	93.000000
2273.488164	102.666667
2275.077558	120.333333
2276.661650	111.000000
2278.247102	114.666667
2279.830586	87.000000
2281.417095	127.333333
2282.999971	123.000000
2284.582544	104.000000
2286.164813	92.666667
2287.743452	97.000000
2289.325116	91.000000
2290.903151	114.000000
2292.484209	107.666667
2294.061640	103.166667
2295.637108	98.666667
2297.215598	107.333333
2298.790464	111.000000
2300.365029	114.333333
2301.939294	112.000000
2303.513258	102.333333
2305.086921	85.000000
2306.660285	92.000000
2308.230030	108.000000
2309.799476	111.000000
2311.371940	86.000000
2312.939130	84.333333
2314.509338	116.666667
2316.075931	133.333333
2317.643884	115.666667
2319.209881	93.333333
2320.775581	94.666667
2322.340983	97.666667
2323.904432	116.333333
2325.469240	88.333333
2327.030440	132.666667
2328.594654	85.666667
2330.153606	134.000000
2331.715573	127.333333
2333.275588	108.666667
2334.835309	96.666667
2336.393080	88.000000
2337.950556	80.333333
2339.507738	55.333333
2341.062972	117.666667
2342.617913	112.333333
2344.172559	104.333333
2345.726912	58.000000
2347.280972	99.333333
2348.834737	125.666667
2350.386558	123.000000
2351.936437	92.000000
2353.489323	135.000000
2355.036966	68.000000
2356.587618	127.666667
2358.134678	94.333333
2359.683096	104.666667
2361.231223	79.000000
2362.775761	115.000000
2364.321657	105.666667
2365.865615	116.333333
2367.410930	123.000000
2368.952660	73.666667
2370.495747	86.000000
2372.036898	86.666667
2373.577760	114.666667
2375.118333	83.333333
2376.658617	86.000000
2378.198612	147.333333
2379.735029	77.000000
2381.274447	98.666667
2382.810287	79.333333
2384.347485	97.333333
2385.881107	124.666667
2387.417729	113.666667
2388.952421	98.333333
2390.485183	97.333333
2392.017658	99.333333
2393.548205	107.000000
2395.081750	108.666667
2396.610084	105.000000
2398.139774	129.000000
2399.669179	119.666667
2401.198299	111.333333
2402.727134	119.000000
2404.250763	127.000000
2405.779028	121.333333
2407.302091	88.333333
2408.829787	101.666667
2410.350644	122.000000
2411.876134	73.666667
2413.398063	120.333333
2414.921348	104.333333
2416.442711	76.666667
2417.962155	92.000000
2419.482954	77.333333
2421.001835	116.000000
2422.520433	121.000000
2424.037114	93.666667
2425.555149	135.000000
2427.072903	118.333333
2428.587106	75.333333
2430.101028	138.666667
2431.614670	133.333333
2433.129667	103.333333
2434.641115	101.000000
2436.153918	87.666667
2437.664807	130.666667
2439.175418	97.000000
2440.684117	102.000000
2442.195802	101.666667
2443.703944	79.333333
2445.211808	112.333333
2446.719394	103.333333
2448.223439	98.666667
2449.730469	111.000000
2451.235591	128.000000
2452.740436	95.000000
2454.243374	110.333333
2455.746036	93.666667
2457.248421	82.666667
2458.748901	103.000000
2460.250734	76.333333
2461.750662	87.000000
2463.250315	108.666667
2464.749693	127.000000
2466.247168	141.000000
2467.742741	89.666667
2469.241294	114.000000
2470.736319	94.000000
2472.232696	129.666667
2473.725547	96.333333
2475.219751	73.333333
2476.713681	111.000000
2478.204087	116.000000
2479.697471	91.666667
2481.188957	76.333333
2482.678546	88.000000
2484.167863	88.333333
2485.655284	87.000000
2487.145681	100.333333
2488.632560	84.333333
2490.120790	91.333333
2491.605503	122.000000
2493.089947	76.333333
2494.575741	97.666667
2496.059644	72.666667
2497.544897	83.333333
2499.025017	103.666667
2500.508110	71.000000
2501.989312	80.666667
2503.470245	105.000000
2504.949289	121.666667
2506.428064	121.000000
2507.906571	103.666667
2509.384810	71.333333
2510.862780	96.000000
2512.337245	89.000000
2513.814680	99.666667
2515.288611	104.000000
2516.763892	109.000000
2518.238906	106.000000
2519.710419	106.666667
2521.183283	80.666667
2522.654264	102.666667
2524.126595	75.000000
2525.593812	107.666667
2527.063996	101.666667
2528.532299	131.000000
2530.000337	133.000000
2531.468110	95.000000
2532.935618	65.000000
2534.402861	96.333333
2535.866612	95.333333
2537.331713	123.666667
2538.794937	97.666667
2540.259510	80.333333
2541.720595	99.000000
2543.183029	103.333333
2544.645200	107.333333
2546.103885	82.666667
2547.567141	121.333333
2549.025302	92.333333
2550.484811	89.666667
2551.939226	104.333333
2553.398212	86.333333
2554.855326	91.666667
2556.310569	131.666667
2557.765550	102.000000
2559.218663	93.000000
2560.673124	106.333333
2562.125715	100.666667
2563.578047	79.666667
2565.028512	108.000000
2566.481932	104.333333
2567.930270	57.666667
2569.381563	87.000000
2570.830991	101.333333
2572.276946	91.333333
2573.725856	106.000000
2575.171296	79.333333
2576.618083	109.000000
2578.063008	83.333333
2579.507674	96.000000
2580.953688	87.333333
2582.396236	111.000000
2583.840131	132.000000
2585.280561	128.666667
2586.722338	105.666667
2588.162256	76.666667
2589.603521	81.333333
2591.041324	71.333333
2592.482077	141.666667
2593.917768	110.000000
2595.356408	94.333333
2596.793190	103.000000
2598.228117	100.666667
2599.665991	104.666667
2601.098808	85.333333
2602.532972	116.333333
2603.965282	54.000000
2605.398938	83.000000
2606.830741	80.333333
2608.262290	69.666667
2609.693587	63.000000
2611.123031	92.000000
2612.552223	122.000000
2613.979565	63.000000
2615.408252	75.666667
2616.836688	126.666667
2618.261676	111.666667
2619.688011	67.333333
2621.112497	67.666667
2622.538329	83.666667
2623.960717	87.333333
2625.384451	107.333333
2626.806338	72.666667
2628.227976	78.000000
2629.647768	93.666667
2631.068906	98.333333
2632.489794	70.666667
2633.907244	86.333333
2635.327633	122.333333
2636.744585	103.000000
2638.161288	74.333333
2639.577743	82.333333
2640.993950	83.000000
2642.409909	86.333333
2643.824027	98.666667
2645.237897	50.666667
2646.649929	86.000000
2648.063304	110.000000
2649.473250	96.333333
2650.886132	83.666667
2652.295585	72.666667
2653.704792	66.666667
2655.112163	119.000000
2656.522468	131.666667
2657.930938	106.000000
2659.337572	76.000000
2660.743961	96.000000
2662.148516	75.000000
2663.554415	101.000000
2664.958481	82.000000
2666.362302	116.333333
2667.765879	63.000000
2669.167625	66.333333
2670.570714	99.333333
2671.970385	71.666667
2673.371400	114.666667
2674.768999	106.666667
2676.169527	78.333333
2677.566641	98.666667
2678.965098	128.666667
2680.361728	126.000000
2681.758115	79.000000
2683.154260	82.333333
2684.548579	74.333333
2685.944241	90.333333
2687.336494	79.666667
2688.730089	111.000000
2690.121860	81.000000
2691.514974	88.666667
2692.906264	79.000000
2694.295731	85.333333
2695.684958	77.333333
2697.073946	109.000000
2698.464275	60.000000
2699.849621	98.000000
2701.237890	95.666667
2702.624339	65.000000
2704.010549	78.333333
2705.396520	99.666667
2706.779093	102.666667
2708.163008	103.666667
2709.546685	67.333333
2710.930123	83.333333
2712.310167	99.666667
2713.691551	108.666667
2715.071121	83.000000
2716.452031	53.666667
2717.831127	95.333333
2719.208409	108.333333
2720.587032	99.333333
2721.963842	66.666667
2723.340415	83.333333
2724.716753	88.000000
2726.091280	93.333333
2727.467147	48.333333
2728.839627	80.666667
2730.215023	83.000000
2731.585459	104.000000
2732.957236	101.333333
2734.328778	85.666667
2735.698512	91.666667
2737.069587	69.000000
2738.438853	101.000000
2739.807886	79.666667
2741.175113	121.666667
2742.542106	56.666667
2743.908867	75.000000
2745.275396	106.333333
2746.640119	107.666667
2748.004610	103.333333
2749.368870	93.000000
2750.732897	61.666667
2752.096693	70.333333
2753.457115	55.000000
2754.820447	80.333333
2756.178837	68.666667
2757.540137	110.000000
2758.898067	85.333333
2760.258905	70.666667
2761.617944	86.333333
2762.973614	93.000000
2764.332192	99.333333
2765.687403	73.333333
2767.042385	75.666667
2768.395571	88.333333
2769.751662	68.666667
2771.104390	89.000000
2772.456890	91.666667
2773.809161	61.000000
2775.162770	110.666667
2776.513019	107.333333
2777.861473	84.333333
2779.212833	101.666667
2780.560833	71.333333
2781.910171	100.000000
2783.257717	68.000000
2784.605037	101.000000
2785.952130	78.333333
2787.297432	98.666667
2788.642507	119.000000
2789.987357	79.000000
2791.331981	60.333333
2792.673253	88.666667
2794.015863	79.333333
2795.358247	77.333333
2796.700406	104.666667
2798.039216	94.666667
2799.380926	90.000000
2800.719288	63.000000
2802.058986	104.000000
2803.396900	82.000000
2804.733029	107.666667
2806.068934	84.000000
2807.406177	95.333333
2808.741636	88.000000
2810.076872	66.666667
2811.410325	100.000000
2812.745115	75.666667
2814.076565	82.666667
2815.410910	97.666667
2816.740357	86.333333
2818.071141	81.333333
2819.401703	99.000000
2820.730486	99.000000
2822.060605	48.666667
2823.388946	85.666667
2824.717066	84.666667
2826.043408	96.666667
2827.371087	96.333333
2828.695432	61.333333
2830.021114	88.666667
2831.345020	98.666667
2832.668707	101.000000
2833.993729	81.333333
2835.315421	76.333333
2836.636895	69.333333
2837.958150	62.000000
2839.279186	96.000000
2840.598449	75.666667
2841.919048	125.666667
2843.237876	87.666667
2844.556485	103.666667
2845.873323	58.333333
2847.189944	106.000000
2848.506348	85.666667
2849.820982	79.333333
2851.136952	99.666667
2852.449601	33.333333
2853.763585	91.333333
2855.077353	97.333333
2856.390904	97.000000
2857.702689	87.333333
2859.012707	84.333333
2860.324060	96.333333
2861.632098	103.333333
2862.941470	101.333333
2864.250628	79.333333
2865.559570	84.333333
2866.866748	68.333333
2868.172164	79.666667
2869.478913	98.000000
2870.783901	81.666667
2872.088675	101.333333
2873.391687	74.000000
2874.697580	87.000000
2875.998619	65.666667
2877.300992	95.000000
2878.601605	64.333333
2879.903552	92.000000
2881.205285	79.000000
2882.503715	97.000000
2883.803478	44.333333
2885.101484	74.000000
2886.399278	60.666667
2887.695316	66.666667
2888.992687	80.000000
2890.288302	74.333333
2891.583706	89.000000
2892.878899	78.000000
2894.170795	56.333333
2895.465567	83.333333
2896.757042	79.666667
2898.049850	84.666667
2899.342448	72.666667
2900.631752	51.333333
2901.922388	66.666667
2903.211273	83.666667
2904.501490	89.666667
2905.788416	89.333333
2907.076674	68.666667
2908.363183	90.666667
2909.649483	90.000000
2910.935576	86.333333
2912.219920	79.000000
2913.507135	78.666667
2914.789524	78.333333
2916.073245	84.666667
2917.355220	111.333333
2918.636987	68.666667
2919.917010	45.666667
2921.199902	86.333333
2922.481049	63.333333
2923.758914	61.333333
2925.039648	79.666667
2926.317101	83.333333
2927.594348	92.000000
2928.869853	58.000000
2930.148226	83.333333
2931.421785	70.000000
2932.698211	101.666667
2933.972896	77.000000
2935.245840	53.666667
2936.520116	93.333333
2937.792652	111.333333
2939.064983	86.666667
2940.334042	80.333333
2941.605966	88.333333
2942.876152	70.666667
2944.146134	94.666667
2945.415913	53.333333
2946.683956	98.000000
2947.950262	95.666667
2949.216367	100.666667
2950.483801	95.333333
2951.749501	65.333333
2953.014998	64.000000
2954.280293	77.000000
2955.542323	81.333333
2956.805683	86.666667
2958.068842	77.333333
2959.330269	97.666667
2960.593025	85.666667
2961.854049	105.333333
2963.113343	62.333333
2964.372437	78.000000
2965.631330	119.000000
2966.890023	46.666667
2968.148516	87.000000
2969.405280	82.666667
2970.661844	37.333333
2971.916681	103.333333
2973.172846	70.333333
2974.425757	77.666667
2975.679997	64.333333
2976.934037	69.000000
2978.186353	57.333333
2979.438469	93.333333
2980.688861	110.666667
2981.942108	56.666667
2983.190578	64.000000
2984.441903	78.333333
2985.689978	60.333333
2986.937857	81.333333
2988.185538	76.333333
2989.433022	87.666667
2990.678785	82.666667
2991.924352	92.666667
2993.171246	82.333333
2994.414896	88.666667
2995.659874	85.666667
2996.901608	66.666667
2998.146194	72.000000
2999.389061	75.333333
3000.628687	83.000000
3001.871163	89.333333
3003.110399	67.000000
3004.350963	60.333333
3005.589810	109.666667
3006.828463	100.000000
3008.065400	65.000000
3009.303665	101.000000
3010.540214	78.666667
3011.776570	70.000000
3013.012732	84.333333
3014.247180	46.333333
3015.481436	80.000000
3016.715498	86.333333
3017.947848	56.000000
3019.178486	63.333333
3020.411970	83.333333
3021.643742	72.333333
3022.873804	69.000000
3024.103673	78.000000
3025.331833	96.666667
3026.561320	103.333333
3027.789097	24.333333
3029.016683	88.333333
3030.245596	65.000000
3031.469766	69.666667
3032.696779	58.333333
3033.920568	72.000000
3035.145684	63.333333
3036.369093	59.666667
3037.592312	76.000000
3038.813826	89.333333
3040.038181	77.333333
3041.257801	49.333333
3042.478747	71.333333
3043.699504	81.666667
3044.918557	69.000000
3046.138935	103.000000
3047.356097	47.666667
3048.574585	98.666667
3049.791370	72.333333
3051.007968	33.666667
3052.224377	77.666667
3053.437574	98.666667
3054.653608	61.666667
3055.866430	96.666667
3057.082089	66.333333
3058.293025	75.666667
3059.505286	94.666667
3060.717361	40.000000
3061.929248	63.666667
3063.139439	89.666667
3064.349443	99.333333
3065.559261	71.666667
3066.767383	82.333333
3067.975320	39.666667
3069.181561	42.666667
3070.389127	67.333333
3071.594998	62.666667
3072.800685	58.000000
3074.006186	58.666667
3075.209994	85.333333
3076.415126	80.666667
3077.618565	59.666667
3078.820313	53.000000
3080.021876	48.666667
3081.223256	76.000000
3082.424452	62.000000
3083.623958	85.000000
3084.823281	79.666667
3086.023927	77.333333
3087.222883	63.333333
3088.418645	53.333333
3089.617236	90.000000
3090.812633	58.666667
3092.009353	83.666667
3093.202881	76.666667
3094.399237	72.000000
3095.593907	74.333333
3096.785385	60.666667
3097.981196	83.333333
3099.172312	87.000000
3100.364752	78.000000
3101.554004	60.000000
3102.746081	102.666667
3103.936475	67.333333
3105.123683	81.666667
3106.312213	57.000000
3107.502066	89.666667
3108.688735	57.333333
3109.875223	81.000000
3111.061533	82.666667
3112.249164	79.333333
3113.433613	78.000000
3114.616383	63.000000
3115.801975	104.333333
3116.985888	81.333333
3118.168122	78.000000
3119.350177	21.333333
3120.532054	79.666667
3121.713753	66.666667
3122.893775	39.000000
3124.072120	76.000000
3125.253285	53.666667
3126.431275	78.666667
3127.609089	91.000000
3128.786725	53.666667
3129.962686	73.666667
3131.138470	79.000000
3132.315576	42.000000
3133.491007	53.666667
3134.664765	70.666667
3135.836850	74.000000
3137.010257	95.333333
3138.183487	62.666667
3139.355046	86.000000
3140.527925	69.666667
3141.697637	59.333333
3142.868670	43.333333
3144.038033	93.333333
3145.205725	47.000000
3146.376233	55.333333
3147.542083	68.000000
3148.712241	73.333333
3149.877743	48.333333
3151.043070	57.333333
3152.208224	64.333333
3153.373205	58.666667
3154.539505	86.000000
3155.701153	46.666667
3156.864120	64.666667
3158.026915	80.666667
3159.189537	70.666667
3160.350494	66.000000
3161.511278	65.333333
3162.671890	79.333333
3163.830838	70.666667
3164.989615	81.666667
3166.148220	67.666667
3167.306652	67.666667
3168.464914	62.666667
3169.621513	60.000000
3170.776451	71.666667
3171.932708	70.333333
3173.087304	57.333333
3174.241730	86.000000
3175.394496	73.666667
3176.547091	65.000000
3177.699517	79.666667
3178.851773	92.000000
3180.003858	62.000000
3181.152798	58.000000
3182.304544	56.666667
3183.454632	60.333333
3184.603064	88.666667
3185.751326	64.333333
3186.899420	55.333333
3188.047345	57.666667
3189.193614	73.333333
3190.339715	65.333333
3191.484162	50.333333
3192.628441	67.333333
3193.772552	80.333333
3194.917980	70.000000
3196.060270	93.333333
3197.202393	58.000000
3198.344348	75.333333
3199.486136	80.666667
3200.627757	45.333333
3201.766243	62.000000
3202.906046	31.000000
3204.047167	50.666667
3205.185153	66.333333
3206.321490	44.000000
3207.457661	72.666667
3208.595149	68.000000
3209.730989	62.666667
3210.868146	69.333333
3212.000690	68.333333
3213.137516	65.333333
3214.269730	90.333333
3215.403261	29.666667
3216.536628	86.666667
3217.666867	75.000000
3218.799904	71.666667
3219.929815	16.000000
3221.061042	52.666667
3222.189145	54.000000
3223.320044	55.333333
3224.449299	50.333333
3225.576911	65.333333
3226.701400	58.333333
3227.830165	83.666667
3228.955808	67.666667
3230.081289	107.000000
3231.205128	86.666667
3232.331761	72.000000
3233.453797	51.333333
3234.577149	68.666667
3235.700339	64.333333
3236.823366	55.000000
3237.944755	93.000000
3239.065981	7.666667
3240.185570	72.333333
3241.304997	44.000000
3242.422786	91.666667
3243.543367	42.666667
3244.660835	57.666667
3245.778142	108.333333
3246.895289	80.666667
3248.010800	88.000000
3249.127625	39.333333
3250.241341	44.000000
3251.357846	54.666667
3252.472717	83.333333
3253.584479	63.333333
3254.696081	72.666667
3255.808999	46.000000
3256.921757	62.333333
3258.031409	91.333333
3259.142376	68.666667
3260.253184	82.666667
3261.362360	75.666667
3262.469906	72.000000
3263.578765	88.666667
3264.687467	67.666667
3265.793066	72.333333
3266.899979	13.666667
3268.005263	69.666667
3269.111861	34.666667
3270.215359	55.333333
3271.320172	32.333333
3272.424827	57.666667
3273.526383	51.333333
3274.627783	69.333333
3275.730497	91.666667
3276.833055	92.666667
3277.932516	55.666667
3279.034761	70.666667
3280.133910	66.333333
3281.231435	55.000000
3282.328804	32.333333
3283.428955	50.666667
3284.526014	36.666667
3285.622917	60.333333
3286.719665	43.666667
3287.811855	45.333333
3288.908293	67.666667
3290.003109	33.666667
3291.097771	84.000000
3292.190811	67.333333
3293.283696	68.000000
3294.374962	65.000000
3295.467539	57.000000
3296.558497	69.666667
3297.647835	70.333333
3298.737020	34.333333
3299.827518	26.333333
3300.914931	56.666667
3302.002191	41.333333
3303.090764	45.666667
3304.179185	68.666667
3305.263058	46.666667
3306.351173	42.000000
3307.436206	45.666667
3308.519624	47.333333
3309.604354	71.333333
3310.687468	57.333333
3311.771895	58.666667
3312.853243	31.666667
3313.935903	44.666667
3315.016949	46.333333
3316.097844	63.000000
3317.177125	62.666667
3318.256256	25.666667
3319.336699	14.666667
3320.414067	67.000000
3321.492747	57.666667
3322.569815	56.666667
3323.646734	35.666667
3324.722041	53.000000
3325.797199	69.333333
3326.873668	72.000000
3327.947067	57.666667
3329.020317	51.333333
3330.094877	65.333333
3331.167829	55.666667
3332.239172	35.000000
3333.311826	66.666667
3334.381414	112.000000
3335.452312	66.000000
3336.521603	50.000000
3337.592205	62.666667
3338.661200	42.666667
3339.728589	30.666667
3340.794373	53.666667
3341.864383	75.333333
3342.931330	56.666667
3343.995215	61.666667
3345.061868	16.333333
3346.126916	71.333333
3347.190361	32.333333
3348.253660	46.666667
3349.316812	64.333333
3350.379818	49.000000
3351.442678	45.666667
3352.503936	74.666667
3353.562137	79.000000
3354.624558	76.000000
3355.683924	51.333333
3356.743144	79.333333
3357.803673	28.000000
3358.859694	84.333333
3359.918478	60.333333
3360.972755	76.666667
3362.029796	67.000000
3363.085238	82.000000
3364.141990	29.333333
3365.197143	57.333333
3366.250699	59.000000
3367.302659	68.000000
3368.357380	44.666667
3369.409052	30.000000
3370.460581	79.000000
3371.513418	39.666667
3372.563208	62.666667
3373.614307	68.666667
3374.662360	60.000000
3375.713172	78.333333
3376.760940	35.000000
3377.808565	78.333333
3378.856047	79.000000
3379.901937	49.000000
3380.949135	71.666667
3381.993291	61.000000
3383.040205	46.000000
3384.085527	35.333333
3385.127808	69.000000
3386.169949	53.000000
3387.213397	46.333333
3388.256704	43.000000
3389.298422	40.000000
3390.339998	63.333333
3391.381433	60.333333
3392.421280	47.666667
3393.459538	38.666667
3394.499104	29.666667
3395.538530	82.333333
3396.576368	70.333333
3397.612619	44.000000
3398.648731	55.000000
3399.686150	56.666667
3400.720536	75.000000
3401.756229	63.000000
3402.791783	66.666667
3403.824306	59.000000
3404.859582	53.333333
3405.891827	26.666667
3406.923934	81.666667
3407.954457	55.000000
3408.986287	52.333333
3410.017979	20.666667
3411.046643	47.333333
3412.075170	29.333333
3413.105003	53.666667
3414.134699	42.333333
3415.161369	51.000000
3416.189346	50.333333
3417.214298	29.333333
3418.242000	44.333333
3419.266679	11.000000
3420.292664	44.000000
3421.317069	36.666667
3422.341338	34.000000
3423.364028	47.666667
3424.386582	62.333333
3425.410442	54.000000
3426.431282	55.000000
3427.451986	43.000000
3428.473997	63.000000
3429.492989	76.000000
3430.511845	50.000000
3431.532008	63.000000
3432.549154	36.000000
