-117.841134	4.950000
-115.171534	5.180000
-112.504869	-2.410000
-109.838956	0.410000
-107.175976	5.260000
-104.511565	-4.300000
-101.850085	-2.880000
-99.187176	5.370000
-96.529373	-2.410000
-93.870141	-2.080000
-91.211657	1.050000
-88.556098	-0.270000
-85.899109	-5.550000
-83.247219	0.640000
-80.593899	2.920000
-77.943498	-0.540000
-75.291669	0.940000
-72.644930	2.150000
-69.996761	5.230000
-67.349335	1.220000
-64.704824	-3.470000
-62.058883	2.690000
-59.418024	3.130000
-56.775736	3.650000
-54.136357	0.200000
-51.495548	4.450000
-48.855480	5.450000
-46.220485	4.320000
-43.584060	-2.140000
-40.950538	4.940000
-38.315588	6.040000
-35.685703	5.150000
-33.052226	3.670000
-30.423811	4.170000
-27.796130	6.220000
-25.167020	7.020000
-22.542967	11.460000
-19.915325	8.740000
-17.292737	11.570000
-14.670879	23.960000
-12.049752	45.440000
-9.429356	98.050000
-6.811847	363.650000
-4.192910	1174.410000
-1.576858	2562.060000
1.038465	4045.210000
3.653060	4369.820000
6.264774	631.390000
8.877916	54.950000
11.486024	27.450000
14.097713	14.400000
16.704373	15.340000
19.312460	11.250000
21.919823	7.620000
24.522161	3.420000
27.128077	3.200000
29.728971	-2.080000
32.331293	3.760000
34.928597	7.180000
37.529478	-1.370000
40.125343	4.280000
42.722637	2.490000
45.319211	2.170000
47.910776	2.090000
50.503769	1.760000
53.093901	3.260000
55.685460	6.100000
58.274161	3.750000
60.864288	6.440000
63.449416	2.800000
66.035972	4.710000
68.621814	-0.600000
71.204802	2.320000
73.789216	7.140000
76.366502	2.490000
78.947354	1.130000
81.525357	2.270000
84.102650	0.880000
86.681369	2.170000
89.255106	-2.210000
91.830271	3.490000
94.402592	2.120000
96.974205	7.350000
99.542978	8.320000
102.113178	-1.210000
104.680539	-0.820000
107.249327	-0.360000
109.815278	3.720000
112.378394	1.380000
114.945066	9.240000
117.502516	3.430000
120.065653	2.850000
122.623829	5.550000
125.185560	5.990000
127.742334	9.610000
130.300534	17.140000
132.853782	28.980000
135.406332	39.540000
137.962432	53.720000
140.513584	70.760000
143.064039	86.030000
145.613796	98.090000
148.160734	113.840000
150.706977	118.240000
153.254645	117.590000
155.801617	126.480000
158.343654	122.560000
160.884997	118.400000
163.425647	113.130000
165.967723	112.300000
168.506987	111.470000
171.043442	107.650000
173.579207	121.040000
176.116397	112.680000
178.652896	109.440000
181.186589	111.670000
183.717478	113.310000
186.247679	116.100000
188.779306	114.800000
191.308131	108.940000
193.834157	104.210000
196.359497	112.310000
198.886262	115.260000
201.410231	109.980000
203.933515	110.910000
206.456113	112.960000
208.975919	111.090000
211.495042	115.530000
214.013483	111.610000
216.533347	114.040000
219.046210	111.480000
221.562604	121.390000
224.078316	120.100000
226.589138	128.110000
229.101385	132.670000
231.610849	128.860000
234.119635	129.100000
236.627743	131.480000
239.137275	134.680000
241.641926	138.830000
244.145901	132.320000
246.651300	140.760000
249.151824	136.820000
251.655871	132.100000
254.152948	130.670000
256.653548	137.560000
259.151376	135.630000
261.648531	136.770000
264.145013	139.800000
266.636632	141.810000
269.131771	137.120000
271.624143	134.560000
274.115845	146.760000
276.604784	147.730000
279.095146	144.770000
281.582747	153.620000
284.067588	150.230000
286.555944	155.390000
289.037360	149.880000
291.522290	164.020000
294.002375	164.690000
296.485972	163.800000
298.964726	177.270000
301.444903	180.710000
303.922329	185.020000
306.399091	180.290000
308.875189	171.620000
311.348540	164.590000
313.821228	166.680000
316.293255	169.710000
318.764621	170.930000
321.233242	176.150000
323.701204	174.680000
326.170589	169.270000
328.635151	153.820000
331.103217	150.600000
333.566463	146.380000
336.029051	149.170000
338.490983	142.750000
340.952258	149.710000
343.410798	144.710000
345.870762	146.840000
348.327992	140.290000
350.784568	136.670000
353.240490	148.020000
355.693682	140.530000
358.148297	138.910000
360.598110	142.190000
363.051419	142.140000
365.499929	141.120000
367.947789	132.260000
370.397071	133.320000
372.841559	132.030000
375.287469	129.380000
377.732729	128.860000
380.175271	127.830000
382.617165	131.760000
385.058412	127.070000
387.496943	132.160000
389.936895	127.300000
392.374134	128.240000
394.808662	125.200000
397.246677	127.450000
399.679915	127.620000
402.114574	130.330000
404.544461	128.450000
406.977833	125.470000
409.406435	126.210000
411.834395	133.070000
414.263777	129.420000
416.688393	125.780000
419.114431	124.360000
421.539828	126.040000
423.964585	132.010000
426.384584	125.560000
428.806003	124.910000
431.224727	134.370000
433.644871	126.490000
436.062320	127.890000
438.481189	122.560000
440.897365	124.760000
443.308793	126.070000
445.723698	119.560000
448.135914	123.670000
450.547495	120.140000
452.958442	114.270000
455.366703	118.940000
457.774331	114.990000
460.181327	110.040000
462.587692	115.510000
464.991374	116.750000
467.394426	118.840000
469.796848	117.260000
472.198640	116.340000
474.597754	121.090000
476.998288	120.300000
479.398193	128.110000
481.793376	122.540000
484.192025	136.470000
486.585953	137.260000
488.979256	141.290000
491.371934	149.420000
493.763986	153.620000
496.157456	160.210000
498.546214	188.250000
500.932306	204.180000
503.319818	243.000000
505.706707	305.700000
508.090932	409.340000
510.476575	610.120000
512.859557	1034.040000
515.239878	1921.280000
517.621618	3572.430000
520.000699	5244.330000
522.381198	5139.300000
524.759041	3385.080000
527.134227	1718.360000
529.508797	952.890000
531.884784	626.580000
534.258119	461.080000
536.632871	377.080000
539.002937	311.200000
541.372389	265.500000
543.743258	233.620000
546.109446	214.570000
548.477053	187.870000
550.842015	173.180000
553.206363	165.150000
555.570098	150.100000
557.935251	144.960000
560.295732	139.570000
562.657631	130.270000
565.016889	118.830000
567.373509	124.970000
569.733575	117.540000
572.086949	107.280000
574.443768	112.070000
576.797952	106.220000
579.151527	104.440000
581.504495	100.860000
583.854830	98.350000
586.206583	99.330000
588.551659	95.900000
590.902198	95.790000
593.246065	94.750000
595.595393	96.410000
597.940072	96.400000
600.282127	100.720000
602.625599	97.850000
604.966448	97.010000
607.306694	97.560000
609.644320	102.750000
611.985381	101.110000
614.321805	99.560000
616.659645	98.840000
618.994868	99.750000
621.327475	99.900000
623.661498	91.980000
625.992907	92.430000
628.323718	94.870000
630.653931	92.530000
632.983547	89.540000
635.308539	89.420000
637.638973	92.880000
639.964786	84.290000
642.287991	85.870000
644.612613	84.490000
646.934629	81.140000
649.256051	80.880000
651.574870	85.640000
653.895106	76.770000
656.214748	92.000000
658.531789	82.430000
660.848238	87.170000
663.162089	80.650000
665.477356	81.470000
667.790026	83.160000
670.104111	80.170000
672.413596	88.350000
674.724497	81.790000
677.032805	81.650000
679.340525	82.060000
681.649659	79.260000
683.954201	83.020000
686.258157	77.440000
688.561527	81.200000
690.866311	74.900000
693.166508	71.820000
695.468121	70.040000
697.769148	76.140000
700.065594	68.220000
702.363455	69.140000
704.660732	70.240000
706.957426	70.970000
709.249544	64.660000
711.545073	65.490000
713.836028	67.300000
716.128398	69.830000
718.418193	61.420000
720.707407	69.010000
722.996042	75.930000
725.282104	64.480000
727.569581	66.710000
729.854486	74.540000
732.138814	67.060000
734.420573	66.720000
736.703746	72.710000
738.986342	67.130000
741.264382	71.430000
743.543837	60.570000
745.822715	63.390000
748.101019	71.890000
750.374773	68.170000
752.649940	66.650000
754.924534	68.150000
757.196569	66.700000
759.470017	67.610000
761.740907	72.160000
764.009241	68.280000
766.278988	67.220000
768.546180	67.380000
770.812803	69.860000
773.078855	65.970000
775.342356	70.870000
777.607270	72.230000
779.871614	68.340000
782.131429	78.270000
784.392656	71.460000
786.653316	74.180000
788.911430	72.520000
791.166999	80.120000
793.425959	73.110000
795.678419	73.250000
797.936247	71.070000
800.189556	79.650000
802.440325	72.870000
804.692506	75.550000
806.942148	72.400000
809.193202	74.090000
811.439746	70.120000
813.687701	76.150000
815.933122	79.520000
818.179954	74.770000
820.426225	78.730000
822.667991	76.480000
824.913141	77.360000
827.151818	75.260000
829.393877	75.660000
831.631438	74.930000
833.870411	76.600000
836.106857	75.690000
838.344714	74.340000
840.580046	73.970000
842.812855	76.440000
845.047074	73.020000
847.278772	76.100000
849.509915	71.450000
851.740503	75.050000
853.970537	71.230000
856.200017	67.800000
858.425015	72.530000
860.653388	65.760000
862.877281	70.600000
865.102586	70.800000
867.323415	72.640000
869.547616	76.430000
871.767344	75.430000
873.988482	70.800000
876.209070	75.720000
878.427149	72.730000
880.646637	72.960000
882.861659	70.290000
885.076133	69.580000
887.290060	76.860000
889.503440	74.380000
891.716272	74.100000
893.928558	76.530000
896.138341	76.820000
898.347579	70.320000
900.556272	76.400000
902.762465	71.460000
904.970069	76.500000
907.175174	78.690000
909.379736	77.300000
911.581803	74.190000
913.785279	81.320000
915.986261	80.330000
918.186701	82.660000
920.388550	83.160000
922.584008	87.130000
924.782825	92.340000
926.977203	102.210000
929.174939	109.230000
931.368239	124.860000
933.562948	140.240000
935.755171	158.090000
937.946855	178.320000
940.138002	193.590000
942.326666	208.840000
944.514794	206.950000
946.700441	198.970000
948.889440	202.180000
951.074016	196.930000
953.258057	199.790000
955.445448	198.980000
957.624535	209.590000
959.806973	201.600000
961.988877	205.320000
964.168306	205.520000
966.345263	205.680000
968.523628	211.530000
970.703400	215.810000
972.876823	216.430000
975.053592	215.200000
977.225954	218.810000
979.399724	215.510000
981.569090	213.600000
983.741800	207.170000
985.912045	196.450000
988.081760	189.360000
990.250948	173.540000
992.415738	159.940000
994.583869	143.230000
996.747605	130.050000
998.912749	129.610000
1001.075433	123.770000
1003.237592	119.670000
1005.397294	116.590000
1007.556471	111.920000
1009.717055	102.950000
1011.875184	102.080000
1014.032790	97.350000
1016.189872	96.360000
1018.346430	93.240000
1020.498609	97.920000
1022.652195	91.560000
1024.805259	90.650000
1026.955874	86.950000
1029.107896	91.130000
1031.255544	86.130000
1033.406524	80.030000
1035.553133	77.330000
1037.699223	81.760000
1039.844795	79.800000
1041.991772	74.540000
1044.132460	76.180000
1046.276478	76.420000
1048.418055	75.890000
1050.559115	72.990000
1052.701581	74.650000
1054.837766	73.720000
1056.977278	78.070000
1059.112435	75.980000
1061.250916	72.080000
1063.385043	70.760000
1065.518657	72.490000
1067.653675	67.880000
1069.784345	72.590000
1071.916419	71.180000
1074.046064	68.960000
1076.175197	74.420000
1078.303818	72.030000
1080.431928	66.110000
1082.557612	68.870000
1084.682786	69.720000
1086.809364	69.100000
1088.931604	69.780000
1091.055249	68.090000
1093.174559	68.070000
1095.299098	60.960000
1097.417393	64.700000
1099.537092	61.600000
1101.654372	66.440000
1103.771145	67.670000
1105.887413	62.720000
1108.001264	58.090000
1110.116520	64.620000
1112.227452	64.480000
1114.341697	65.190000
1116.451621	67.100000
1118.562949	59.520000
1120.673772	59.670000
1122.780279	63.800000
1124.890095	65.080000
1126.995598	60.540000
1129.102503	60.280000
1131.203193	58.020000
1133.309095	59.360000
1135.410688	57.940000
1137.513684	57.900000
1139.616179	65.560000
1141.712467	56.370000
1143.813962	58.820000
1145.911155	57.360000
1148.007850	60.050000
1150.104046	59.180000
1152.199744	58.970000
1154.294945	57.520000
1156.387749	56.900000
1158.481955	57.510000
1160.569970	60.430000
1162.663184	58.490000
1164.750209	54.550000
1166.840533	54.670000
1168.926569	53.270000
1171.015904	61.890000
1173.099057	52.460000
1175.183612	55.090000
1177.269569	55.190000
1179.351244	54.170000
1181.434320	57.430000
1183.515011	55.850000
1185.595211	54.190000
1187.674919	53.900000
1189.754136	53.010000
1191.830971	57.950000
1193.905424	55.050000
1195.983170	51.970000
1198.056646	51.640000
1200.131522	57.360000
1202.202131	55.170000
1204.274141	50.550000
1206.343775	57.100000
1208.414810	53.440000
1210.485358	53.270000
1212.551644	54.150000
1214.619331	48.950000
1216.684646	53.190000
1218.751361	50.080000
1220.813820	52.130000
1222.879564	56.450000
1224.941054	51.880000
1227.003945	53.030000
1229.064468	46.450000
1231.124507	52.710000
1233.184063	50.400000
1235.241255	53.050000
1237.297965	52.210000
1239.352311	54.100000
1241.409939	50.750000
1243.465203	54.680000
1245.516228	45.560000
1247.568652	47.710000
1249.620596	50.920000
1251.670182	49.490000
1253.719289	52.800000
1255.767917	58.550000
1257.816067	51.100000
1259.863739	47.540000
1261.907180	46.450000
1263.953897	53.360000
1265.998260	49.990000
1268.042147	47.630000
1270.083682	51.490000
1272.122868	51.730000
1274.165327	50.090000
1276.203563	51.660000
1278.243198	53.480000
1280.282358	46.650000
1282.317299	51.330000
1284.353639	55.890000
1286.387635	52.450000
1288.423028	50.920000
1290.454209	50.730000
1292.486787	57.490000
1294.518894	50.370000
1296.548660	54.160000
1298.579823	53.120000
1300.606780	46.800000
1302.635134	47.940000
1304.659283	49.190000
1306.686698	48.450000
1308.709910	52.930000
1310.734520	46.660000
1312.756796	46.450000
1314.780468	52.120000
1316.801808	47.850000
1318.822681	50.350000
1320.843086	51.980000
1322.859298	46.680000
1324.876907	48.590000
1326.892188	49.660000
1328.910728	48.380000
1330.925079	55.370000
1332.937103	56.940000
1334.952386	53.630000
1336.963483	47.730000
1338.975977	48.600000
1340.984288	53.040000
1342.995854	45.300000
1345.001382	50.780000
1347.010165	52.170000
1349.014770	44.900000
1351.022629	44.240000
1353.030026	49.540000
1355.031392	52.880000
1357.034154	46.390000
1359.036457	46.480000
1361.038300	46.600000
1363.039683	45.530000
1365.038753	54.390000
1367.037364	50.520000
1369.035516	51.630000
1371.033211	51.410000
1373.026743	47.470000
1375.021670	51.550000
1377.016141	51.050000
1379.010155	51.000000
1381.001862	53.090000
1382.993113	44.550000
1384.982059	47.740000
1386.972401	55.680000
1388.962287	51.330000
1390.949869	51.600000
1392.936998	53.110000
1394.921825	50.270000
1396.908047	48.340000
1398.891968	46.330000
1400.875437	49.780000
1402.858454	47.890000
1404.839173	49.430000
1406.821286	49.950000
1408.801103	49.040000
1410.780468	52.670000
1412.755695	46.770000
1414.734160	52.670000
1416.710332	46.020000
1418.686054	46.490000
1420.661328	52.950000
1422.634310	48.420000
1424.606844	51.930000
1426.578930	51.490000
1428.550569	48.250000
1430.518079	52.360000
1432.490663	53.290000
1434.455441	47.610000
1436.425292	50.520000
1438.391019	49.050000
1440.358138	48.650000
1442.322974	55.750000
1444.283690	48.140000
1446.249474	52.060000
1448.209303	51.270000
1450.170526	50.420000
1452.133140	46.160000
1454.091640	56.770000
1456.049698	46.450000
1458.007314	48.300000
1459.964487	50.440000
1461.919385	51.750000
1463.875676	49.090000
1465.829692	50.670000
1467.783267	51.170000
1469.734570	45.450000
1471.687265	46.520000
1473.637689	47.380000
1475.587674	51.250000
1477.537220	43.770000
1479.484497	49.450000
1481.429506	43.050000
1483.375908	50.330000
1485.321872	50.900000
1487.267399	47.360000
1489.210660	47.200000
1491.153486	45.650000
1493.094047	45.470000
1495.036001	44.610000
1496.975692	45.170000
1498.914948	51.660000
1500.853770	43.490000
1502.790332	48.080000
1504.728285	49.250000
1506.663979	45.780000
1508.599240	48.840000
1510.532244	47.850000
1512.464817	49.670000
1514.396956	42.600000
1516.328664	48.660000
1518.258119	44.030000
1520.188964	48.020000
1522.119377	48.160000
1524.045718	46.790000
1525.973449	51.870000
1527.898931	48.320000
1529.823983	52.260000
1531.748606	50.360000
1533.672799	50.800000
1535.594746	50.460000
1537.518083	44.900000
1539.439173	50.490000
1541.358019	52.540000
1543.278255	49.570000
1545.196248	49.180000
1547.113813	47.040000
1549.029138	46.460000
1550.945852	46.610000
1552.858511	53.330000
1554.774373	44.100000
1556.687997	49.770000
1558.599382	52.360000
1560.512157	45.890000
1562.420882	49.950000
1564.330996	47.630000
1566.240687	47.490000
1568.149955	46.020000
1570.056989	49.230000
1571.961790	45.600000
1573.867979	51.540000
1575.771938	46.710000
1577.675475	44.910000
1579.578592	47.170000
1581.479479	47.820000
1583.381755	46.490000
1585.281803	48.560000
1587.183238	50.540000
1589.080640	50.630000
1590.977623	47.120000
1592.874188	45.640000
1594.772140	46.740000
1596.664258	51.390000
1598.559570	46.710000
1600.454464	44.980000
1602.347136	51.540000
1604.239391	46.270000
1606.129427	46.520000
1608.019047	42.990000
1609.908252	47.560000
1611.797041	49.950000
1613.683614	46.700000
1615.571574	48.810000
1617.455517	51.970000
1619.340847	41.780000
1621.225764	47.280000
1623.108467	47.700000
1624.992557	51.630000
1626.872635	45.120000
1628.754101	45.830000
1630.633356	43.950000
1632.513997	51.930000
1634.388834	48.250000
1636.268652	49.680000
1638.144466	46.120000
1640.019869	47.960000
1641.896658	50.250000
1643.767651	52.960000
1645.641825	49.390000
1647.512000	47.110000
1649.385356	45.740000
1651.256509	46.640000
1653.125461	46.820000
1654.995797	48.040000
1656.862141	45.140000
1658.729870	45.490000
1660.595400	46.190000
1662.462316	45.180000
1664.325242	49.180000
1666.189555	48.220000
1668.051671	48.730000
1669.913382	45.120000
1671.776479	45.330000
1673.637380	41.720000
1675.496089	47.150000
1677.354394	45.180000
1679.214083	47.320000
1681.068006	48.980000
1682.925102	48.120000
1684.781794	49.850000
1686.634511	43.020000
1688.490399	47.590000
1690.342313	44.210000
1692.193826	51.120000
1694.044938	40.600000
1695.895649	51.670000
1697.745960	48.050000
1699.594087	47.860000
1701.443598	48.140000
1703.287359	47.150000
1705.136071	42.540000
1706.979036	48.040000
1708.825168	49.580000
1710.667337	47.930000
1712.512672	43.240000
1714.352266	43.740000
1716.193244	42.900000
1718.035605	49.480000
1719.874010	51.570000
1721.713798	50.400000
1723.551410	49.590000
1725.388628	39.140000
1727.223672	44.090000
1729.060099	48.440000
1730.894353	46.790000
1732.728214	46.010000
1734.561680	45.420000
1736.391200	50.310000
1738.223880	47.440000
1740.052615	44.830000
1741.884507	48.500000
1743.712457	42.810000
1745.540015	50.590000
1747.367182	48.590000
1749.193957	47.900000
1751.020340	49.980000
1752.842787	44.930000
1754.668389	45.410000
1756.490056	47.520000
1758.313104	44.690000
1760.133992	48.800000
1761.954491	48.650000
1763.776370	48.220000
1765.592550	44.720000
1767.411883	49.740000
1769.227287	47.860000
1771.045843	47.880000
1772.860473	46.010000
1774.674716	41.210000
1776.488573	45.230000
1778.302043	40.400000
1780.113360	45.940000
1781.926057	42.460000
1783.738369	46.200000
1785.546762	43.490000
1787.356537	46.180000
1789.162397	51.340000
1790.971402	51.640000
1792.776494	42.130000
1794.582967	47.140000
1796.389056	44.970000
1798.191234	44.090000
1799.996557	45.400000
1801.797971	43.900000
1803.600765	41.300000
1805.399653	53.770000
1807.199922	42.900000
1808.999809	46.890000
1810.797554	47.650000
1812.594919	49.020000
1814.391903	39.860000
1816.188508	39.820000
1817.982973	44.680000
1819.778817	45.540000
1821.569006	42.160000
1823.364092	43.290000
1825.153525	42.360000
1826.946096	52.490000
1828.736531	46.290000
1830.524832	47.400000
1832.316267	43.640000
1834.102058	45.610000
1835.889228	41.660000
1837.674266	41.950000
1839.462438	44.250000
1841.246724	43.600000
1843.028880	44.140000
1844.812416	44.660000
1846.593823	42.810000
1848.376609	43.080000
1850.155514	43.030000
1851.935798	44.490000
1853.713957	48.300000
1855.493494	46.360000
1857.270905	43.430000
1859.046194	48.270000
1860.822860	45.430000
1862.597404	44.560000
1864.373325	45.450000
1866.143627	47.100000
1867.917056	48.410000
1869.688365	43.250000
1871.459303	44.540000
1873.231619	42.910000
1874.998321	43.550000
1876.768148	40.240000
1878.534112	43.250000
1880.303200	41.050000
1882.068426	41.280000
1883.833284	39.320000
1885.599519	45.000000
1887.361895	44.930000
1889.123903	43.660000
1890.885545	42.770000
1892.646819	42.210000
1894.407727	43.640000
1896.168268	42.850000
1897.926699	48.280000
1899.684764	43.420000
1901.440722	42.020000
1903.198056	46.110000
1904.955025	43.300000
1906.709887	45.800000
1908.462645	40.450000
1910.215038	46.790000
1911.968808	46.530000
1913.720474	41.250000
1915.470038	46.370000
1917.220977	44.970000
1918.971553	47.350000
1920.718291	42.310000
1922.466404	47.360000
1924.212419	43.140000
1925.959808	47.140000
1927.705100	45.830000
1929.448294	44.080000
1931.192863	43.530000
1932.935336	39.010000
1934.677450	45.210000
1936.419203	45.340000
1938.160596	44.250000
1939.899896	41.580000
1941.638837	39.680000
1943.377419	39.950000
1945.113910	43.930000
1946.850043	47.115000
1948.587550	50.300000
1950.321235	46.340000
1952.056295	48.790000
1953.789266	51.550000
1955.521881	43.070000
1957.254140	40.010000
1958.986042	45.690000
1960.715858	42.220000
1962.443589	46.200000
1964.172695	48.660000
1965.901445	43.040000
1967.628113	48.630000
1969.354426	41.580000
1971.082112	41.330000
1972.804262	42.480000
1974.529513	48.020000
1976.250957	42.670000
1977.975501	46.680000
1979.697966	44.590000
1981.416628	44.450000
1983.138388	41.700000
1984.856346	43.340000
1986.575677	41.120000
1988.291209	45.220000
1990.011561	42.190000
1991.728115	41.040000
1993.440872	45.240000
1995.156725	42.330000
1996.870506	46.630000
1998.583937	44.880000
2000.295297	52.800000
2002.008029	48.220000
2003.716971	51.390000
2005.429005	46.900000
2007.135530	46.890000
2008.845148	46.600000
2010.552698	41.540000
2012.259901	37.690000
2013.965038	48.330000
2015.669829	47.690000
2017.375991	44.900000
2019.078371	42.390000
2020.782122	50.390000
2022.483811	46.080000
2024.185154	43.000000
2025.886153	44.970000
2027.585090	40.660000
2029.285399	53.110000
2030.981932	45.190000
2032.679837	42.710000
2034.375684	41.280000
2036.074616	47.270000
2037.768062	49.220000
2039.462879	47.360000
2041.157354	44.220000
2042.848060	42.310000
2044.541850	47.860000
2046.231873	40.880000
2047.923267	43.730000
2049.612608	44.670000
2051.303319	42.520000
2052.990267	44.360000
2054.676876	43.720000
2056.364854	38.050000
2058.049073	42.550000
2059.734663	47.070000
2061.419912	43.100000
2063.103114	42.530000
2064.787686	47.310000
2066.466794	44.120000
2068.150689	46.550000
2069.829122	40.020000
2071.510633	39.680000
2073.188392	40.550000
2074.865815	46.260000
2076.544607	42.930000
2078.221357	45.900000
2079.896064	43.340000
2081.572142	43.430000
2083.246178	42.190000
2084.919880	43.530000
2086.593246	47.420000
2088.264573	46.770000
2089.935566	38.820000
2091.606225	40.240000
2093.276550	37.140000
2094.946541	46.720000
2096.614496	49.240000
2098.282117	47.580000
2099.947705	43.510000
2101.614661	45.470000
2103.279584	43.110000
2104.944175	47.510000
2106.606734	43.640000
2108.270661	48.530000
2109.932557	44.710000
2111.594123	47.470000
2113.255357	43.340000
2114.914563	42.360000
2116.573438	41.630000
2118.231984	40.550000
2119.890199	43.220000
2121.544692	43.780000
2123.202249	45.160000
2124.859476	45.170000
2126.512983	44.160000
2128.167857	42.010000
2129.819012	46.940000
2131.473230	45.470000
2133.123730	43.750000
2134.775598	46.730000
2136.422057	39.340000
2138.073271	44.860000
2139.720771	44.980000
2141.369638	43.850000
2143.016486	42.540000
2144.663009	45.090000
2146.309206	45.990000
2147.951695	47.280000
2149.597241	46.680000
2151.239082	44.320000
2152.883979	43.070000
2154.525170	42.740000
2156.166038	41.830000
2157.806583	45.820000
2159.445115	46.600000
2161.085013	41.160000
2162.721211	43.270000
2164.358775	42.400000
2165.996017	46.300000
2167.631249	49.920000
2169.266159	42.850000
2170.900748	47.140000
2172.535016	40.540000
2174.165590	45.500000
2175.799216	43.300000
2177.429150	49.500000
2179.060449	36.930000
2180.689743	41.240000
2182.318718	37.170000
2183.947373	41.450000
2185.575709	39.580000
2187.202043	40.500000
2188.828057	41.000000
2190.452071	42.610000
2192.077450	43.000000
2193.700828	41.800000
2195.325571	40.970000
2196.946633	41.560000
2198.567378	38.800000
2200.189487	40.690000
2201.809599	45.150000
2203.427715	38.160000
2205.045515	44.140000
2206.663000	45.790000
2208.280169	38.090000
2209.897023	38.400000
2211.513561	40.070000
2213.128107	43.690000
2214.740660	41.320000
2216.354577	37.290000
2217.966503	37.660000
2219.579792	40.850000
2221.191091	44.190000
2222.800400	44.260000
2224.411073	39.780000
2226.019757	43.720000
2227.628128	41.930000
2229.234513	42.610000
2230.842260	40.430000
2232.448022	46.230000
2234.053472	42.170000
2235.656937	42.270000
2237.261765	40.820000
2238.864609	43.390000
2240.465470	46.080000
2242.067694	43.170000
2243.667936	43.320000
2245.269540	38.990000
2246.867491	45.790000
2248.466805	43.390000
2250.064139	39.970000
2251.661165	42.790000
2253.259553	37.720000
2254.854292	42.740000
2256.447054	41.370000
2258.041179	47.570000
2259.636665	37.100000
2261.228506	37.720000
2262.820041	38.020000
2264.412938	37.900000
2266.000525	38.960000
2267.592808	40.430000
2269.179785	43.230000
2270.769789	42.610000
2272.354489	43.180000
2273.943883	41.450000
2275.527974	43.980000
2277.113427	40.800000
2278.696911	43.820000
2280.283420	39.580000
2281.866296	37.110000
2283.448869	40.600000
2285.031138	41.370000
2286.609777	38.550000
2288.191441	39.800000
2289.769476	41.820000
2291.350534	41.110000
2292.927965	41.360000
2294.503433	41.610000
2296.081923	44.660000
2297.656789	40.860000
2299.231354	39.370000
2300.805618	36.830000
2302.379583	42.280000
2303.953246	45.760000
2305.526610	39.140000
2307.096355	37.060000
2308.665801	41.650000
2310.238265	39.460000
2311.805455	35.410000
2313.375663	40.480000
2314.942256	43.070000
2316.510209	43.760000
2318.076206	35.330000
2319.641906	40.280000
2321.207308	42.350000
2322.770757	40.170000
2324.335565	43.680000
2325.896765	45.910000
2327.460979	48.190000
2329.019931	48.480000
2330.581897	50.920000
2332.141913	46.550000
2333.701633	43.690000
2335.259405	39.160000
2336.816881	43.610000
2338.374063	43.620000
2339.929297	38.600000
2341.484238	41.510000
2343.038884	40.520000
2344.593237	35.330000
2346.147296	34.800000
2347.701062	38.700000
2349.252883	40.860000
2350.802762	42.940000
2352.355648	41.180000
2353.903291	32.720000
2355.453943	39.820000
2357.001003	40.310000
2358.549421	43.070000
2360.097548	41.570000
2361.642086	40.410000
2363.187982	41.370000
2364.731940	41.180000
2366.277254	40.730000
2367.818985	40.920000
2369.362072	42.570000
2370.903223	39.950000
2372.444085	40.000000
2373.984658	46.710000
2375.524942	36.110000
2377.064937	39.650000
2378.601354	37.160000
2380.140772	37.380000
2381.676612	39.710000
2383.213810	41.200000
2384.747432	36.110000
2386.284054	42.890000
2387.818746	37.630000
2389.351508	43.750000
2390.883983	37.480000
2392.414530	36.020000
2393.948075	38.180000
2395.476409	35.930000
2397.006099	35.930000
2398.535504	40.500000
2400.064624	43.390000
2401.593458	39.760000
2403.117088	40.260000
2404.645353	37.870000
2406.168416	38.650000
2407.696112	37.190000
2409.216969	39.850000
2410.742458	40.780000
2412.264388	41.340000
2413.787672	42.460000
2415.309036	36.670000
2416.828480	35.570000
2418.349279	38.620000
2419.868159	42.850000
2421.386758	37.960000
2422.903439	42.550000
2424.421474	43.980000
2425.939228	33.060000
2427.453430	37.560000
2428.967353	39.080000
2430.480995	39.260000
2431.995992	39.070000
2433.507440	41.510000
2435.020242	40.160000
2436.531132	41.170000
2438.041743	39.390000
2439.550442	40.000000
2441.062127	39.140000
2442.570269	38.850000
2444.078133	41.840000
2445.585718	38.720000
2447.089764	37.900000
2448.596794	40.120000
2450.101916	40.720000
2451.606761	40.310000
2453.109699	35.870000
2454.612361	37.540000
2456.114746	39.880000
2457.615226	39.080000
2459.117059	32.310000
2460.616987	38.860000
2462.116640	35.230000
2463.616018	36.330000
2465.113493	38.100000
2466.609066	39.120000
2468.107619	38.650000
2469.602644	39.510000
2471.099021	35.770000
2472.591872	35.290000
2474.086076	34.140000
2475.580006	40.690000
2477.070412	39.750000
2478.563796	39.990000
2480.055282	36.060000
2481.544871	40.530000
2483.034188	37.450000
2484.521609	39.880000
2486.012006	42.740000
2487.498885	35.990000
2488.987115	42.780000
2490.471828	38.340000
2491.956272	37.220000
2493.442066	38.030000
2494.925969	39.720000
2496.411222	28.950000
2497.891342	34.970000
2499.374435	37.920000
2500.855637	32.690000
2502.336570	36.640000
2503.815614	29.820000
2505.294389	34.310000
2506.772896	38.660000
2508.251135	37.610000
2509.729105	38.650000
2511.203570	37.340000
2512.681005	40.080000
2514.154936	34.530000
2515.630217	34.430000
2517.105231	33.410000
2518.576744	39.660000
2520.049608	35.910000
2521.520589	40.630000
2522.992920	40.930000
2524.460137	33.860000
2525.930321	37.060000
2527.398624	38.150000
2528.866662	37.560000
2530.334435	36.330000
2531.801943	35.870000
2533.269186	40.610000
2534.732937	33.660000
2536.198038	37.630000
2537.661262	30.990000
2539.125835	40.250000
2540.586920	38.940000
2542.049354	38.370000
2543.511525	36.650000
2544.970210	38.800000
2546.433466	35.610000
2547.891626	37.660000
2549.351136	35.320000
2550.805551	36.920000
2552.264537	34.910000
2553.721651	35.510000
2555.176893	39.300000
2556.631875	36.220000
2558.084988	36.320000
2559.539448	34.110000
2560.992040	38.750000
2562.444372	39.200000
2563.894837	39.950000
2565.348257	34.300000
2566.796595	37.500000
2568.247888	40.410000
2569.697316	36.850000
2571.143271	37.360000
2572.592181	33.780000
2574.037621	35.930000
2575.484408	38.970000
2576.929332	37.890000
2578.373999	35.970000
2579.820013	34.160000
2581.262561	40.710000
2582.706456	31.300000
2584.146885	39.720000
2585.588663	35.520000
2587.028581	35.530000
2588.469846	40.040000
2589.907649	36.740000
2591.348402	37.520000
2592.784093	37.060000
2594.222732	36.090000
2595.659515	35.370000
2597.094442	30.100000
2598.532316	36.610000
2599.965133	34.170000
2601.399297	34.480000
2602.831607	38.410000
2604.265263	38.680000
2605.697066	37.530000
2607.128615	36.100000
2608.559912	31.480000
2609.989356	39.910000
2611.418548	38.800000
2612.845890	31.130000
2614.274577	35.160000
2615.703013	36.090000
2617.128001	39.500000
2618.554336	42.660000
2619.978822	33.890000
2621.404654	35.130000
2622.827042	39.140000
2624.250776	39.810000
2625.672663	36.760000
2627.094300	34.420000
2628.514093	41.050000
2629.935231	37.650000
2631.356119	34.350000
2632.773568	31.810000
2634.193958	35.090000
2635.610910	40.500000
2637.027613	35.280000
2638.444068	35.340000
2639.860275	33.730000
2641.276234	38.470000
2642.690352	35.230000
2644.104222	34.760000
2645.516253	38.120000
2646.929629	32.680000
2648.339575	34.560000
2649.752457	36.910000
2651.161910	32.390000
2652.571117	34.580000
2653.978488	29.830000
2655.388793	32.290000
2656.797263	35.280000
2658.203897	36.190000
2659.610286	41.310000
2661.014841	34.520000
2662.420740	33.780000
2663.824806	35.330000
2665.228627	35.270000
2666.632204	34.760000
2668.033950	35.320000
2669.437039	30.160000
2670.836710	33.880000
2672.237725	32.500000
2673.635324	31.220000
2675.035852	35.740000
2676.432966	33.980000
2677.831423	34.280000
2679.228053	36.690000
2680.624440	34.660000
2682.020585	35.080000
2683.414904	38.270000
2684.810566	38.650000
2686.202819	40.670000
2687.596414	34.850000
2688.988185	36.550000
2690.381299	29.170000
2691.772589	36.290000
2693.162056	33.200000
2694.551283	37.570000
2695.940271	37.900000
2697.330600	37.350000
2698.715946	34.520000
2700.104215	33.860000
2701.490664	33.710000
2702.876874	35.730000
2704.262845	34.090000
2705.645418	29.410000
2707.029333	31.570000
2708.413010	34.010000
2709.796448	32.680000
2711.176491	37.330000
2712.557876	32.050000
2713.937446	35.090000
2715.318356	36.980000
2716.697452	35.900000
2718.074734	33.390000
2719.453357	31.510000
2720.830166	31.310000
2722.206740	37.470000
2723.583078	38.820000
2724.957604	29.630000
2726.333471	37.520000
2727.705952	36.080000
2729.081348	27.580000
2730.451784	34.750000
2731.823561	34.490000
2733.195103	33.620000
2734.564837	34.260000
2735.935911	39.750000
2737.305178	33.870000
2738.674211	35.570000
2740.041438	38.240000
2741.408431	38.370000
2742.775192	36.510000
2744.141720	35.640000
2745.506444	28.680000
2746.870935	37.240000
2748.235195	33.930000
2749.599222	31.600000
2750.963018	33.540000
2752.323440	28.050000
2753.686772	31.920000
2755.045162	36.010000
2756.406462	37.420000
2757.764392	34.150000
2759.125230	30.200000
2760.484268	35.860000
2761.839939	31.840000
2763.198517	35.510000
2764.553728	33.540000
2765.908710	38.010000
2767.261895	35.500000
2768.617987	28.420000
2769.970715	33.560000
2771.323215	31.250000
2772.675486	30.650000
2774.029095	32.270000
2775.379344	26.660000
2776.727798	34.840000
2778.079157	34.880000
2779.427158	32.810000
2780.776496	35.790000
2782.124042	33.030000
2783.471362	34.450000
2784.818455	32.400000
2786.163756	34.160000
2787.508832	33.220000
2788.853682	30.240000
2790.198306	27.830000
2791.539578	31.240000
2792.882187	28.660000
2794.224572	27.990000
2795.566731	32.760000
2796.905541	35.540000
2798.247251	29.610000
2799.585612	24.500000
2800.925311	31.100000
2802.263225	35.900000
2803.599353	28.360000
2804.935259	32.160000
2806.272502	31.980000
2807.607961	28.260000
2808.943197	30.700000
2810.276650	37.720000
2811.611440	30.160000
2812.942890	35.490000
2814.277235	33.500000
2815.606682	22.420000
2816.937465	24.600000
2818.268028	32.990000
2819.596811	31.860000
2820.926930	28.370000
2822.255271	30.030000
2823.583391	31.350000
2824.909733	29.770000
2826.237412	32.850000
2827.561757	27.550000
2828.887439	32.110000
2830.211345	29.650000
2831.535031	29.140000
2832.860053	32.350000
2834.181746	31.750000
2835.503220	32.930000
2836.824475	32.230000
2838.145511	32.350000
2839.464774	30.150000
2840.785373	35.710000
2842.104200	34.300000
2843.422810	36.210000
2844.739648	32.690000
2846.056269	33.120000
2847.372673	31.060000
2848.687307	36.830000
2850.003277	32.960000
2851.315926	28.150000
2852.629910	35.000000
2853.943678	30.930000
2855.257229	31.350000
2856.569014	25.890000
2857.879032	26.130000
2859.190385	28.750000
2860.498423	31.520000
2861.807795	28.370000
2863.116952	28.730000
2864.425895	33.180000
2865.733073	27.410000
2867.038489	26.670000
2868.345238	31.210000
2869.650226	30.630000
2870.954999	27.740000
2872.258012	33.030000
2873.563905	27.770000
2874.864944	27.150000
2876.167317	33.880000
2877.467930	34.610000
2878.769877	35.630000
2880.071610	33.020000
2881.370040	30.220000
2882.669803	26.000000
2883.967809	25.630000
2885.265603	26.500000
2886.561641	32.110000
2887.859012	30.050000
2889.154627	30.060000
2890.450031	31.190000
2891.745224	31.130000
2893.037120	29.910000
2894.331892	24.390000
2895.623367	30.590000
2896.916175	29.760000
2898.208773	33.610000
2899.498077	29.460000
2900.788713	32.910000
2902.077598	30.290000
2903.367815	33.340000
2904.654741	32.780000
2905.942999	34.490000
2907.229508	33.030000
2908.515808	28.850000
2909.801900	28.640000
2911.086245	29.660000
2912.373460	32.660000
2913.655849	30.750000
2914.939570	25.540000
2916.221545	25.950000
2917.503312	33.770000
2918.783334	31.370000
2920.066227	27.190000
2921.347374	28.460000
2922.625239	34.430000
2923.905973	28.750000
2925.183426	26.460000
2926.460673	31.850000
2927.736178	30.560000
2929.014551	27.220000
2930.288110	25.190000
2931.564536	28.690000
2932.839221	28.660000
2934.112165	29.170000
2935.386441	32.540000
2936.658977	25.140000
2937.931308	27.480000
2939.200367	31.220000
2940.472291	31.760000
2941.742477	28.380000
2943.012459	27.750000
2944.282238	26.200000
2945.550281	33.730000
2946.816587	30.800000
2948.082691	28.030000
2949.350126	29.960000
2950.615825	29.250000
2951.881323	31.330000
2953.146618	25.270000
2954.408648	31.870000
2955.672008	30.020000
2956.935167	30.330000
2958.196594	25.930000
2959.459350	31.660000
2960.720374	31.370000
2961.979668	29.490000
2963.238761	25.600000
2964.497655	27.650000
2965.756348	30.280000
2967.014841	29.690000
2968.271604	26.470000
2969.528169	29.270000
2970.783005	24.940000
2972.039171	25.690000
2973.292082	31.220000
2974.546321	29.260000
2975.800362	29.580000
2977.052677	27.940000
2978.304794	27.960000
2979.555186	33.190000
2980.808433	28.960000
2982.056903	31.810000
2983.308228	30.260000
2984.556303	30.910000
2985.804181	30.570000
2987.051863	25.150000
2988.299347	26.750000
2989.545110	26.530000
2990.790677	28.830000
2992.037571	30.730000
2993.281221	28.680000
2994.526199	26.980000
2995.767933	33.270000
2997.012519	24.580000
2998.255386	28.560000
2999.495012	27.810000
3000.737488	28.300000
3001.976724	27.950000
3003.217288	28.560000
3004.456135	25.690000
3005.694788	28.570000
3006.931725	25.580000
3008.169990	29.890000
3009.406539	25.920000
3010.642895	31.760000
3011.879057	28.220000
3013.113505	27.090000
3014.347760	27.280000
3015.581823	21.230000
3016.814172	25.590000
3018.044810	26.590000
3019.278294	25.510000
3020.510067	24.980000
3021.740129	21.180000
3022.969998	25.490000
3024.198158	24.810000
3025.427645	32.130000
3026.655422	29.810000
3027.883008	27.850000
3029.111920	28.320000
3030.336090	29.320000
3031.563104	29.320000
3032.786893	28.970000
3034.012009	28.570000
3035.235418	26.470000
3036.458637	22.640000
3037.680151	27.790000
3038.904506	28.200000
3040.124126	27.220000
3041.345072	25.570000
3042.565829	26.400000
3043.784882	27.290000
3045.005260	24.820000
3046.222422	27.070000
3047.440910	28.420000
3048.657695	29.160000
3049.874293	25.370000
3051.090702	28.900000
3052.303898	27.320000
3053.519933	24.090000
3054.732755	28.590000
3055.948413	27.160000
3057.159350	22.280000
3058.371611	25.240000
3059.583685	28.740000
3060.795573	26.520000
3062.005764	26.620000
3063.215768	26.720000
3064.425586	25.790000
3065.633708	26.960000
3066.841645	24.370000
3068.047886	26.570000
3069.255452	26.150000
3070.461323	25.735000
3071.667009	25.320000
3072.872511	26.880000
3074.076319	30.220000
3075.281451	29.210000
3076.484890	25.230000
3077.686638	30.090000
3078.888201	28.990000
3080.089581	23.650000
3081.290777	24.840000
3082.490283	26.330000
3083.689606	24.240000
3084.890252	25.420000
3086.089208	25.090000
3087.284970	27.710000
3088.483560	25.710000
3089.678958	25.070000
3090.875678	24.720000
3092.069206	21.850000
3093.265562	22.740000
3094.460231	23.590000
3095.651710	21.320000
3096.847521	25.260000
3098.038637	29.360000
3099.231077	32.640000
3100.420329	31.750000
3101.612406	27.520000
3102.802800	20.760000
3103.990008	20.240000
3105.178538	25.270000
3106.368391	25.810000
3107.555060	25.420000
3108.741548	23.550000
3109.927858	27.560000
3111.115489	22.130000
3112.299938	28.350000
3113.482708	23.200000
3114.668300	24.180000
3115.852213	21.830000
3117.034447	28.260000
3118.216502	20.250000
3119.398379	25.180000
3120.580078	26.520000
3121.760100	23.540000
3122.938445	26.270000
3124.119610	22.040000
3125.297600	28.970000
3126.475413	26.100000
3127.653049	24.230000
3128.829010	26.670000
3130.004795	25.540000
3131.181901	22.740000
3132.357332	30.380000
3133.531090	30.390000
3134.703175	25.770000
3135.876582	23.940000
3137.049812	22.900000
3138.221371	27.090000
3139.394250	31.470000
3140.563962	24.800000
3141.734995	20.690000
3142.904358	26.930000
3144.072050	24.520000
3145.242558	23.400000
3146.408408	24.210000
3147.578566	26.900000
3148.744068	21.700000
3149.909395	26.830000
3151.074549	26.660000
3152.239530	23.340000
3153.405830	27.260000
3154.567478	25.690000
3155.730445	28.390000
3156.893240	29.520000
3158.055862	26.720000
3159.216818	29.060000
3160.377603	25.060000
3161.538215	27.950000
3162.697163	21.460000
3163.855940	23.630000
3165.014544	25.540000
3166.172977	23.390000
3167.331239	26.490000
3168.487838	23.310000
3169.642776	25.410000
3170.799033	26.040000
3171.953629	25.230000
3173.108055	21.550000
3174.260821	30.130000
3175.413416	29.590000
3176.565842	22.230000
3177.718098	25.630000
3178.870183	27.040000
3180.019122	23.420000
3181.170869	26.500000
3182.320957	20.490000
3183.469389	25.620000
3184.617651	25.520000
3185.765745	21.630000
3186.913670	27.600000
3188.059939	25.690000
3189.206040	27.380000
3190.350487	22.040000
3191.494766	24.060000
3192.638877	20.970000
3193.784305	25.380000
3194.926595	26.930000
3196.068718	23.380000
3197.210673	25.750000
3198.352461	19.670000
3199.494082	24.780000
3200.632568	25.230000
3201.772371	20.690000
3202.913491	18.910000
3204.051478	27.880000
3205.187815	23.540000
3206.323986	20.020000
3207.461474	20.120000
3208.597314	22.970000
3209.734471	24.950000
3210.867015	18.930000
3212.003841	20.590000
3213.136055	25.620000
3214.269586	23.040000
3215.402953	22.650000
3216.533192	24.480000
3217.666229	23.860000
3218.796140	20.530000
3219.927367	24.760000
3221.055470	22.680000
3222.186369	20.040000
3223.315624	30.170000
3224.443236	21.710000
3225.567725	19.290000
3226.696490	21.510000
3227.822133	24.440000
3228.947613	19.200000
3230.071452	26.180000
3231.198086	26.640000
3232.320122	26.650000
3233.443474	24.920000
3234.566664	20.980000
3235.689691	21.660000
3236.811080	23.450000
3237.932306	23.080000
3239.051894	22.040000
3240.171321	28.750000
3241.289111	20.750000
3242.409692	23.070000
3243.527160	25.990000
3244.644467	22.370000
3245.761614	26.850000
3246.877124	22.480000
3247.993950	25.180000
3249.107666	23.260000
3250.224171	29.340000
3251.339042	27.970000
3252.450803	18.880000
3253.562406	22.000000
3254.675324	23.440000
3255.788082	24.610000
3256.897734	23.820000
3258.008701	22.850000
3259.119509	22.690000
3260.228685	23.860000
3261.336230	22.420000
3262.445090	29.790000
3263.553792	24.030000
3264.659391	22.990000
3265.766304	21.820000
3266.871588	26.720000
3267.978186	19.710000
3269.081684	20.830000
3270.186496	23.550000
3271.291151	26.980000
3272.392708	20.700000
3273.494108	24.780000
3274.596822	21.110000
3275.699380	22.600000
3276.798841	21.810000
3277.901086	18.070000
3279.000235	25.340000
3280.097760	19.440000
3281.195129	25.010000
3282.295280	25.400000
3283.392339	22.670000
3284.489242	26.790000
3285.585990	16.560000
3286.678179	21.810000
3287.774618	24.320000
3288.869434	21.700000
3289.964096	19.900000
3291.057136	24.100000
3292.150021	20.510000
3293.241286	20.640000
3294.333864	25.200000
3295.424822	22.720000
3296.514160	23.040000
3297.603345	22.400000
3298.693842	19.780000
3299.781256	22.570000
3300.868516	23.960000
3301.957089	19.510000
3303.045509	18.230000
3304.129383	17.740000
3305.217498	20.070000
3306.302531	21.310000
3307.385949	22.800000
3308.470679	21.130000
3309.553793	22.010000
3310.638220	22.350000
3311.719568	20.360000
3312.802228	19.110000
3313.883274	22.980000
3314.964168	18.910000
3316.043450	14.560000
3317.122581	22.750000
3318.203024	22.710000
3319.280392	17.580000
3320.359072	23.370000
3321.436140	18.070000
3322.513059	23.750000
3323.588366	20.380000
3324.663524	24.190000
3325.739993	12.940000
3326.813392	21.710000
3327.886641	17.550000
3328.961202	21.390000
3330.034154	20.930000
3331.105497	26.470000
3332.178151	19.590000
3333.247739	24.690000
3334.318637	20.080000
3335.387928	17.880000
3336.458529	23.550000
3337.527525	19.080000
3338.594914	23.220000
3339.660698	22.160000
3340.730708	22.980000
3341.797655	16.690000
3342.861540	22.690000
3343.928192	21.750000
3344.993241	21.290000
3346.056686	25.500000
3347.119985	21.560000
3348.183137	21.950000
3349.246143	18.620000
3350.309003	19.940000
3351.370261	19.130000
3352.428462	19.300000
3353.490883	17.370000
3354.550249	22.250000
3355.609469	21.030000
3356.669998	17.870000
3357.726019	23.820000
3358.784803	21.960000
3359.839080	21.110000
3360.896121	24.190000
3361.951563	18.770000
3363.008315	19.720000
3364.063468	21.690000
3365.117024	22.620000
3366.168984	19.920000
3367.223705	19.540000
3368.275377	25.050000
3369.326906	24.860000
3370.379743	19.400000
3371.429533	17.770000
3372.480632	19.350000
3373.528684	21.870000
3374.579497	21.270000
3375.627264	21.670000
3376.674889	19.680000
3377.722372	22.790000
3378.768262	17.720000
3379.815460	17.870000
3380.859616	19.340000
3381.906530	16.120000
3382.951852	18.630000
3383.994133	17.140000
3385.036273	19.060000
3386.079722	19.920000
3387.123029	20.930000
3388.164746	22.140000
3389.206323	15.430000
3390.247758	23.420000
3391.287605	20.300000
3392.325863	21.970000
3393.365429	26.390000
3394.404855	18.570000
3395.442693	21.840000
3396.478944	18.720000
3397.515056	21.650000
3398.552475	17.810000
3399.586861	21.440000
3400.622554	17.050000
3401.658108	21.360000
3402.690631	19.280000
3403.725906	19.880000
3404.758152	25.830000
3405.790259	26.090000
3406.820782	18.570000
3407.852612	17.350000
3408.884304	19.020000
3409.912968	20.920000
3410.941495	19.250000
3411.971328	19.360000
3413.001024	23.040000
3414.027694	23.290000
3415.055670	19.430000
3416.080623	12.180000
3417.108325	22.500000
3418.133003	17.660000
3419.158989	16.960000
3420.183394	23.930000
3421.207663	22.300000
3422.230353	19.890000
3423.252907	17.870000
3424.276767	20.520000
3425.297607	23.410000
3426.318311	21.020000
3427.340322	16.040000
3428.359314	23.020000
3429.378170	20.700000
3430.398333	19.310000
3431.415479	21.120000
