-117.841134	5.220000
-115.171534	-1.680000
-112.504869	-1.720000
-109.838956	3.520000
-107.175976	8.610000
-104.511565	0.340000
-101.850085	-1.660000
-99.187176	3.250000
-96.529373	-1.060000
-93.870141	-2.720000
-91.211657	1.130000
-88.556098	2.310000
-85.899109	1.920000
-83.247219	-1.560000
-80.593899	1.980000
-77.943498	0.920000
-75.291669	0.580000
-72.644930	2.730000
-69.996761	3.210000
-67.349335	2.180000
-64.704824	-3.780000
-62.058883	3.070000
-59.418024	-3.250000
-56.775736	1.620000
-54.136357	-2.290000
-51.495548	1.990000
-48.855480	-2.680000
-46.220485	6.430000
-43.584060	-0.810000
-40.950538	5.270000
-38.315588	2.810000
-35.685703	1.570000
-33.052226	4.090000
-30.423811	0.880000
-27.796130	5.350000
-25.167020	6.720000
-22.542967	8.600000
-19.915325	13.930000
-17.292737	14.890000
-14.670879	19.280000
-12.049752	50.080000
-9.429356	100.070000
-6.811847	365.680000
-4.192910	1073.690000
-1.576858	2719.960000
1.038465	4514.670000
3.653060	4188.490000
6.264774	544.970000
8.877916	55.710000
11.486024	28.690000
14.097713	17.210000
16.704373	10.540000
19.312460	10.630000
21.919823	8.450000
24.522161	2.150000
27.128077	3.740000
29.728971	1.950000
32.331293	4.720000
34.928597	-0.930000
37.529478	3.490000
40.125343	4.180000
42.722637	3.010000
45.319211	0.200000
47.910776	1.430000
50.503769	-2.130000
53.093901	1.880000
55.685460	1.840000
58.274161	-0.600000
60.864288	3.430000
63.449416	0.920000
66.035972	5.010000
68.621814	0.450000
71.204802	1.110000
73.789216	2.820000
76.366502	1.270000
78.947354	-1.450000
81.525357	5.380000
84.102650	-0.220000
86.681369	3.390000
89.255106	1.320000
91.830271	-3.260000
94.402592	-2.650000
96.974205	2.870000
99.542978	1.570000
102.113178	-1.320000
104.680539	-0.680000
107.249327	-0.790000
109.815278	2.570000
112.378394	-1.960000
114.945066	6.660000
117.502516	5.300000
120.065653	-1.910000
122.623829	-0.600000
125.185560	2.790000
127.742334	15.360000
130.300534	19.620000
132.853782	27.830000
135.406332	43.230000
137.962432	51.630000
140.513584	71.520000
143.064039	84.450000
145.613796	99.690000
148.160734	107.270000
150.706977	114.790000
153.254645	115.840000
155.801617	119.040000
158.343654	117.640000
160.884997	113.020000
163.425647	111.690000
165.967723	113.780000
168.506987	109.890000
171.043442	108.000000
173.579207	116.320000
176.116397	115.280000
178.652896	109.050000
181.186589	112.740000
183.717478	107.160000
186.247679	112.410000
188.779306	107.270000
191.308131	108.420000
193.834157	105.260000
196.359497	110.860000
198.886262	110.770000
201.410231	112.070000
203.933515	108.740000
206.456113	107.750000
208.975919	109.140000
211.495042	114.580000
214.013483	112.060000
216.533347	112.890000
219.046210	112.100000
221.562604	118.070000
224.078316	113.840000
226.589138	122.460000
229.101385	126.510000
231.610849	127.460000
234.119635	130.940000
236.627743	126.270000
239.137275	132.910000
241.641926	133.530000
244.145901	132.860000
246.651300	140.810000
249.151824	136.400000
251.655871	130.820000
254.152948	133.660000
256.653548	131.800000
259.151376	133.750000
261.648531	136.370000
264.145013	136.140000
266.636632	137.390000
269.131771	134.660000
271.624143	135.020000
274.115845	140.510000
276.604784	142.480000
279.095146	147.740000
281.582747	148.330000
284.067588	146.890000
286.555944	149.590000
289.037360	144.090000
291.522290	159.870000
294.002375	167.240000
296.485972	162.960000
298.964726	179.020000
301.444903	186.270000
303.922329	181.640000
306.399091	178.550000
308.875189	171.400000
311.348540	158.830000
313.821228	158.160000
316.293255	162.700000
318.764621	167.750000
321.233242	172.530000
323.701204	167.840000
326.170589	165.050000
328.635151	149.850000
331.103217	151.790000
333.566463	140.230000
336.029051	145.370000
338.490983	138.880000
340.952258	145.260000
343.410798	140.910000
345.870762	142.270000
348.327992	137.180000
350.784568	137.620000
353.240490	138.960000
355.693682	134.380000
358.148297	132.010000
360.598110	131.480000
363.051419	132.680000
365.499929	136.300000
367.947789	130.040000
370.397071	129.530000
372.841559	126.570000
375.287469	128.700000
377.732729	122.390000
380.175271	124.130000
382.617165	127.510000
385.058412	125.080000
387.496943	124.570000
389.936895	121.950000
392.374134	120.100000
394.808662	121.040000
397.246677	122.930000
399.679915	122.060000
402.114574	119.690000
404.544461	119.900000
406.977833	121.140000
409.406435	120.450000
411.834395	121.340000
414.263777	123.590000
416.688393	120.150000
419.114431	122.460000
421.539828	122.870000
423.964585	126.020000
426.384584	122.800000
428.806003	124.410000
431.224727	122.910000
433.644871	119.030000
436.062320	122.440000
438.481189	116.480000
440.897365	120.190000
443.308793	115.570000
445.723698	116.570000
448.135914	117.820000
450.547495	112.110000
452.958442	108.690000
455.366703	106.780000
457.774331	109.920000
460.181327	104.650000
462.587692	105.870000
464.991374	109.090000
467.394426	108.300000
469.796848	108.750000
472.198640	111.650000
474.597754	117.470000
476.998288	111.400000
479.398193	119.970000
481.793376	117.750000
484.192025	133.420000
486.585953	130.000000
488.979256	138.640000
491.371934	143.440000
493.763986	148.810000
496.157456	157.080000
498.546214	183.380000
500.932306	200.220000
503.319818	240.950000
505.706707	305.650000
508.090932	422.470000
510.476575	627.280000
512.859557	1070.530000
515.239878	1977.340000
517.621618	3670.200000
520.000699	5381.200000
522.381198	5254.950000
524.759041	3467.330000
527.134227	1772.280000
529.508797	987.640000
531.884784	651.150000
534.258119	477.130000
536.632871	375.130000
539.002937	312.140000
541.372389	269.740000
543.743258	235.590000
546.109446	215.020000
548.477053	190.390000
550.842015	169.870000
553.206363	156.500000
555.570098	146.500000
557.935251	143.760000
560.295732	135.800000
562.657631	126.340000
565.016889	114.030000
567.373509	119.900000
569.733575	115.170000
572.086949	104.240000
574.443768	104.300000
576.797952	105.480000
579.151527	96.550000
581.504495	94.240000
583.854830	93.710000
586.206583	95.080000
588.551659	91.000000
590.902198	92.140000
593.246065	90.560000
595.595393	94.730000
597.940072	88.650000
600.282127	94.760000
602.625599	95.550000
604.966448	89.390000
607.306694	94.540000
609.644320	96.940000
611.985381	96.170000
614.321805	92.050000
616.659645	96.640000
618.994868	91.790000
621.327475	91.460000
623.661498	86.160000
625.992907	89.590000
628.323718	88.700000
630.653931	86.160000
632.983547	80.510000
635.308539	84.860000
637.638973	82.160000
639.964786	77.690000
642.287991	78.460000
644.612613	79.890000
646.934629	76.440000
649.256051	78.180000
651.574870	79.030000
653.895106	70.270000
656.214748	84.350000
658.531789	72.350000
660.848238	82.400000
663.162089	75.810000
665.477356	71.400000
667.790026	78.290000
670.104111	76.250000
672.413596	82.560000
674.724497	74.410000
677.032805	74.990000
679.340525	70.330000
681.649659	74.890000
683.954201	75.550000
686.258157	65.670000
688.561527	67.930000
690.866311	69.470000
693.166508	64.550000
695.468121	58.020000
697.769148	65.900000
700.065594	61.490000
702.363455	67.270000
704.660732	61.600000
706.957426	63.780000
709.249544	59.250000
711.545073	58.400000
713.836028	58.950000
716.128398	61.680000
718.418193	60.640000
720.707407	64.730000
722.996042	63.150000
725.282104	59.590000
727.569581	60.670000
729.854486	60.600000
732.138814	57.830000
734.420573	61.090000
736.703746	66.330000
738.986342	57.490000
741.264382	64.370000
743.543837	55.950000
745.822715	58.120000
748.101019	55.780000
750.374773	59.450000
752.649940	57.220000
754.924534	55.550000
757.196569	61.360000
759.470017	63.970000
761.740907	63.390000
764.009241	61.380000
766.278988	57.520000
768.546180	61.970000
770.812803	61.290000
773.078855	63.360000
775.342356	64.700000
777.607270	63.950000
779.871614	63.400000
782.131429	68.170000
784.392656	65.870000
786.653316	66.780000
788.911430	70.170000
791.166999	68.210000
793.425959	64.890000
795.678419	66.900000
797.936247	66.740000
800.189556	67.710000
802.440325	65.110000
804.692506	69.400000
806.942148	68.180000
809.193202	66.880000
811.439746	63.470000
813.687701	66.430000
815.933122	71.180000
818.179954	62.550000
820.426225	71.460000
822.667991	64.670000
824.913141	69.800000
827.151818	65.810000
829.393877	68.510000
831.631438	65.820000
833.870411	71.150000
836.106857	64.410000
838.344714	65.790000
840.580046	67.890000
842.812855	70.900000
845.047074	65.420000
847.278772	64.840000
849.509915	66.890000
851.740503	68.360000
853.970537	63.650000
856.200017	64.780000
858.425015	66.300000
860.653388	59.900000
862.877281	59.620000
865.102586	64.350000
867.323415	63.490000
869.547616	66.860000
871.767344	63.340000
873.988482	66.460000
876.209070	67.140000
878.427149	62.770000
880.646637	63.130000
882.861659	69.830000
885.076133	65.550000
887.290060	64.760000
889.503440	64.890000
891.716272	71.340000
893.928558	67.080000
896.138341	68.740000
898.347579	63.820000
900.556272	70.350000
902.762465	65.760000
904.970069	67.680000
907.175174	69.070000
909.379736	70.880000
911.581803	71.750000
913.785279	70.940000
915.986261	68.000000
918.186701	70.410000
920.388550	77.580000
922.584008	77.840000
924.782825	82.670000
926.977203	94.000000
929.174939	102.380000
931.368239	120.760000
933.562948	135.130000
935.755171	150.540000
937.946855	171.510000
940.138002	191.120000
942.326666	205.290000
944.514794	200.240000
946.700441	197.350000
948.889440	198.480000
951.074016	193.370000
953.258057	195.050000
955.445448	198.170000
957.624535	201.350000
959.806973	199.120000
961.988877	203.560000
964.168306	200.290000
966.345263	204.250000
968.523628	204.690000
970.703400	209.270000
972.876823	213.310000
975.053592	212.570000
977.225954	214.190000
979.399724	210.820000
981.569090	206.540000
983.741800	206.650000
985.912045	202.720000
988.081760	183.760000
990.250948	167.320000
992.415738	154.560000
994.583869	141.600000
996.747605	124.500000
998.912749	126.060000
1001.075433	116.070000
1003.237592	113.820000
1005.397294	110.150000
1007.556471	100.600000
1009.717055	98.460000
1011.875184	96.110000
1014.032790	94.060000
1016.189872	88.640000
1018.346430	87.310000
1020.498609	87.750000
1022.652195	83.130000
1024.805259	83.630000
1026.955874	80.360000
1029.107896	77.420000
1031.255544	75.230000
1033.406524	72.870000
1035.553133	66.590000
1037.699223	64.700000
1039.844795	73.270000
1041.991772	67.570000
1044.132460	64.950000
1046.276478	63.830000
1048.418055	71.340000
1050.559115	65.230000
1052.701581	65.460000
1054.837766	69.000000
1056.977278	68.170000
1059.112435	63.330000
1061.250916	62.830000
1063.385043	63.230000
1065.518657	68.750000
1067.653675	59.800000
1069.784345	66.280000
1071.916419	61.290000
1074.046064	63.360000
1076.175197	66.580000
1078.303818	64.890000
1080.431928	58.660000
1082.557612	62.500000
1084.682786	59.180000
1086.809364	57.110000
1088.931604	58.710000
1091.055249	63.340000
1093.174559	58.530000
1095.299098	53.820000
1097.417393	55.890000
1099.537092	54.440000
1101.654372	60.230000
1103.771145	57.450000
1105.887413	56.220000
1108.001264	59.280000
1110.116520	53.750000
1112.227452	56.830000
1114.341697	53.400000
1116.451621	53.640000
1118.562949	49.310000
1120.673772	50.310000
1122.780279	51.830000
1124.890095	53.450000
1126.995598	48.930000
1129.102503	45.450000
1131.203193	45.020000
1133.309095	53.200000
1135.410688	45.860000
1137.513684	48.810000
1139.616179	49.190000
1141.712467	50.160000
1143.813962	49.440000
1145.911155	51.700000
1148.007850	47.420000
1150.104046	51.270000
1152.199744	53.570000
1154.294945	49.700000
1156.387749	48.210000
1158.481955	46.760000
1160.569970	50.830000
1162.663184	49.180000
1164.750209	45.210000
1166.840533	48.680000
1168.926569	48.700000
1171.015904	48.490000
1173.099057	44.850000
1175.183612	43.910000
1177.269569	51.280000
1179.351244	48.900000
1181.434320	52.220000
1183.515011	48.820000
1185.595211	47.400000
1187.674919	49.350000
1189.754136	44.760000
1191.830971	52.100000
1193.905424	48.570000
1195.983170	45.940000
1198.056646	47.700000
1200.131522	44.510000
1202.202131	46.950000
1204.274141	45.320000
1206.343775	47.620000
1208.414810	45.260000
1210.485358	43.720000
1212.551644	44.460000
1214.619331	41.150000
1216.684646	44.210000
1218.751361	44.000000
1220.813820	41.040000
1222.879564	44.420000
1224.941054	45.500000
1227.003945	43.780000
1229.064468	47.290000
1231.124507	47.130000
1233.184063	43.900000
1235.241255	43.170000
1237.297965	42.450000
1239.352311	42.130000
1241.409939	50.830000
1243.465203	44.750000
1245.516228	39.690000
1247.568652	36.900000
1249.620596	41.270000
1251.670182	43.200000
1253.719289	42.080000
1255.767917	45.250000
1257.816067	42.130000
1259.863739	37.540000
1261.907180	36.020000
1263.953897	39.530000
1265.998260	40.100000
1268.042147	41.220000
1270.083682	42.390000
1272.122868	42.610000
1274.165327	43.840000
1276.203563	45.860000
1278.243198	41.550000
1280.282358	36.550000
1282.317299	44.730000
1284.353639	45.380000
1286.387635	46.690000
1288.423028	44.130000
1290.454209	40.330000
1292.486787	45.240000
1294.518894	47.370000
1296.548660	43.460000
1298.579823	41.270000
1300.606780	40.430000
1302.635134	42.600000
1304.659283	40.130000
1306.686698	41.220000
1308.709910	39.250000
1310.734520	38.490000
1312.756796	38.790000
1314.780468	43.910000
1316.801808	37.840000
1318.822681	43.750000
1320.843086	42.600000
1322.859298	39.650000
1324.876907	41.300000
1326.892188	44.140000
1328.910728	39.160000
1330.925079	45.770000
1332.937103	40.250000
1334.952386	45.560000
1336.963483	37.020000
1338.975977	35.910000
1340.984288	38.800000
1342.995854	40.980000
1345.001382	43.590000
1347.010165	42.630000
1349.014770	37.150000
1351.022629	37.040000
1353.030026	38.660000
1355.031392	43.270000
1357.034154	40.200000
1359.036457	36.890000
1361.038300	39.060000
1363.039683	43.270000
1365.038753	40.100000
1367.037364	40.480000
1369.035516	42.240000
1371.033211	40.690000
1373.026743	39.100000
1375.021670	43.600000
1377.016141	37.640000
1379.010155	42.770000
1381.001862	43.380000
1382.993113	36.530000
1384.982059	37.990000
1386.972401	37.730000
1388.962287	39.070000
1390.949869	44.480000
1392.936998	39.140000
1394.921825	39.540000
1396.908047	40.800000
1398.891968	35.430000
1400.875437	37.650000
1402.858454	41.480000
1404.839173	37.940000
1406.821286	40.360000
1408.801103	44.540000
1410.780468	38.290000
1412.755695	36.860000
1414.734160	41.040000
1416.710332	40.530000
1418.686054	41.810000
1420.661328	43.840000
1422.634310	41.140000
1424.606844	37.690000
1426.578930	42.500000
1428.550569	37.670000
1430.518079	42.080000
1432.490663	41.710000
1434.455441	39.540000
1436.425292	39.540000
1438.391019	39.880000
1440.358138	45.610000
1442.322974	44.800000
1444.283690	41.800000
1446.249474	43.270000
1448.209303	39.400000
1450.170526	35.220000
1452.133140	36.710000
1454.091640	44.920000
1456.049698	42.170000
1458.007314	41.670000
1459.964487	37.730000
1461.919385	41.060000
1463.875676	40.350000
1465.829692	42.780000
1467.783267	42.070000
1469.734570	35.430000
1471.687265	37.260000
1473.637689	38.860000
1475.587674	41.300000
1477.537220	43.880000
1479.484497	38.670000
1481.429506	42.140000
1483.375908	40.760000
1485.321872	41.750000
1487.267399	37.030000
1489.210660	39.830000
1491.153486	40.550000
1493.094047	38.270000
1495.036001	41.110000
1496.975692	32.690000
1498.914948	39.920000
1500.853770	38.610000
1502.790332	39.840000
1504.728285	42.260000
1506.663979	41.550000
1508.599240	37.800000
1510.532244	35.340000
1512.464817	38.290000
1514.396956	38.130000
1516.328664	44.180000
1518.258119	37.920000
1520.188964	37.650000
1522.119377	38.960000
1524.045718	37.910000
1525.973449	38.290000
1527.898931	34.910000
1529.823983	38.600000
1531.748606	46.300000
1533.672799	37.170000
1535.594746	37.010000
1537.518083	40.630000
1539.439173	39.350000
1541.358019	39.660000
1543.278255	40.210000
1545.196248	43.280000
1547.113813	41.070000
1549.029138	36.030000
1550.945852	41.450000
1552.858511	43.190000
1554.774373	37.110000
1556.687997	41.380000
1558.599382	45.810000
1560.512157	41.080000
1562.420882	38.890000
1564.330996	41.890000
1566.240687	40.380000
1568.149955	40.910000
1570.056989	44.240000
1571.961790	38.200000
1573.867979	44.940000
1575.771938	38.570000
1577.675475	36.080000
1579.578592	39.040000
1581.479479	42.050000
1583.381755	38.140000
1585.281803	41.370000
1587.183238	40.060000
1589.080640	42.660000
1590.977623	39.010000
1592.874188	40.260000
1594.772140	39.010000
1596.664258	43.910000
1598.559570	43.300000
1600.454464	39.070000
1602.347136	38.460000
1604.239391	44.460000
1606.129427	40.310000
1608.019047	34.990000
1609.908252	39.270000
1611.797041	41.660000
1613.683614	34.930000
1615.571574	39.460000
1617.455517	40.120000
1619.340847	37.490000
1621.225764	39.990000
1623.108467	39.150000
1624.992557	38.450000
1626.872635	37.860000
1628.754101	38.140000
1630.633356	38.210000
1632.513997	40.110000
1634.388834	43.450000
1636.268652	44.140000
1638.144466	39.430000
1640.019869	38.950000
1641.896658	38.850000
1643.767651	41.560000
1645.641825	38.330000
1647.512000	34.510000
1649.385356	42.640000
1651.256509	38.620000
1653.125461	38.040000
1654.995797	38.510000
1656.862141	38.160000
1658.729870	37.550000
1660.595400	39.630000
1662.462316	37.600000
1664.325242	38.740000
1666.189555	39.730000
1668.051671	38.480000
1669.913382	38.460000
1671.776479	37.030000
1673.637380	36.240000
1675.496089	46.200000
1677.354394	38.200000
1679.214083	40.930000
1681.068006	36.950000
1682.925102	43.120000
1684.781794	41.680000
1686.634511	36.770000
1688.490399	38.270000
1690.342313	40.810000
1692.193826	44.440000
1694.044938	29.600000
1695.895649	37.320000
1697.745960	37.730000
1699.594087	37.640000
1701.443598	40.870000
1703.287359	37.310000
1705.136071	40.340000
1706.979036	39.310000
1708.825168	42.110000
1710.667337	40.730000
1712.512672	39.250000
1714.352266	32.130000
1716.193244	38.090000
1718.035605	39.680000
1719.874010	38.100000
1721.713798	37.800000
1723.551410	37.850000
1725.388628	35.580000
1727.223672	37.250000
1729.060099	39.460000
1730.894353	39.400000
1732.728214	38.460000
1734.561680	39.060000
1736.391200	36.440000
1738.223880	37.700000
1740.052615	34.910000
1741.884507	34.120000
1743.712457	38.270000
1745.540015	38.930000
1747.367182	40.950000
1749.193957	37.470000
1751.020340	41.340000
1752.842787	34.170000
1754.668389	39.530000
1756.490056	36.050000
1758.313104	39.540000
1760.133992	41.340000
1761.954491	36.240000
1763.776370	44.960000
1765.592550	36.450000
1767.411883	32.880000
1769.227287	40.720000
1771.045843	40.870000
1772.860473	33.620000
1774.674716	35.590000
1776.488573	38.970000
1778.302043	33.270000
1780.113360	38.940000
1781.926057	34.670000
1783.738369	40.820000
1785.546762	34.930000
1787.356537	37.580000
1789.162397	41.710000
1790.971402	42.760000
1792.776494	34.270000
1794.582967	36.230000
1796.389056	34.140000
1798.191234	35.080000
1799.996557	38.340000
1801.797971	36.180000
1803.600765	38.610000
1805.399653	41.860000
1807.199922	37.170000
1808.999809	39.870000
1810.797554	38.650000
1812.594919	38.310000
1814.391903	35.660000
1816.188508	37.030000
1817.982973	37.180000
1819.778817	34.660000
1821.569006	36.870000
1823.364092	35.720000
1825.153525	38.000000
1826.946096	37.260000
1828.736531	40.420000
1830.524832	39.120000
1832.316267	35.260000
1834.102058	36.430000
1835.889228	33.350000
1837.674266	33.640000
1839.462438	40.640000
1841.246724	34.890000
1843.028880	35.480000
1844.812416	42.330000
1846.593823	37.160000
1848.376609	35.610000
1850.155514	34.600000
1851.935798	34.810000
1853.713957	39.160000
1855.493494	34.770000
1857.270905	34.440000
1859.046194	40.290000
1860.822860	33.950000
1862.597404	36.350000
1864.373325	36.990000
1866.143627	39.360000
1867.917056	42.250000
1869.688365	37.230000
1871.459303	34.950000
1873.231619	39.240000
1874.998321	37.220000
1876.768148	35.650000
1878.534112	38.800000
1880.303200	33.930000
1882.068426	31.370000
1883.833284	35.400000
1885.599519	35.220000
1887.361895	40.400000
1889.123903	37.320000
1890.885545	32.120000
1892.646819	30.460000
1894.407727	34.880000
1896.168268	33.240000
1897.926699	36.760000
1899.684764	31.430000
1901.440722	34.860000
1903.198056	38.990000
1904.955025	35.560000
1906.709887	36.830000
1908.462645	38.730000
1910.215038	37.060000
1911.968808	36.620000
1913.720474	37.600000
1915.470038	41.850000
1917.220977	40.350000
1918.971553	39.780000
1920.718291	37.030000
1922.466404	38.030000
1924.212419	37.740000
1925.959808	40.480000
1927.705100	36.070000
1929.448294	36.490000
1931.192863	37.090000
1932.935336	34.830000
1934.677450	38.810000
1936.419203	38.290000
1938.160596	37.260000
1939.899896	30.850000
1941.638837	34.060000
1943.377419	34.740000
1945.113910	40.860000
1946.850043	42.695000
1948.587550	44.530000
1950.321235	38.020000
1952.056295	35.620000
1953.789266	39.880000
1955.521881	39.320000
1957.254140	32.830000
1958.986042	38.130000
1960.715858	37.830000
1962.443589	34.130000
1964.172695	38.940000
1965.901445	40.910000
1967.628113	38.560000
1969.354426	37.720000
1971.082112	37.290000
1972.804262	40.070000
1974.529513	41.370000
1976.250957	37.860000
1977.975501	35.990000
1979.697966	37.000000
1981.416628	36.670000
1983.138388	35.340000
1984.856346	37.920000
1986.575677	33.700000
1988.291209	37.490000
1990.011561	36.940000
1991.728115	35.400000
1993.440872	37.350000
1995.156725	36.180000
1996.870506	38.240000
1998.583937	36.660000
2000.295297	42.450000
2002.008029	35.420000
2003.716971	41.270000
2005.429005	38.540000
2007.135530	42.790000
2008.845148	36.890000
2010.552698	38.240000
2012.259901	38.240000
2013.965038	40.180000
2015.669829	36.910000
2017.375991	38.400000
2019.078371	32.540000
2020.782122	41.600000
2022.483811	34.790000
2024.185154	38.360000
2025.886153	41.240000
2027.585090	39.030000
2029.285399	45.810000
2030.981932	38.370000
2032.679837	39.530000
2034.375684	36.150000
2036.074616	34.380000
2037.768062	43.960000
2039.462879	35.150000
2041.157354	34.740000
2042.848060	37.960000
2044.541850	41.040000
2046.231873	37.230000
2047.923267	38.830000
2049.612608	38.360000
2051.303319	32.560000
2052.990267	41.540000
2054.676876	34.250000
2056.364854	28.850000
2058.049073	35.020000
2059.734663	39.940000
2061.419912	37.010000
2063.103114	38.950000
2064.787686	40.010000
2066.466794	40.980000
2068.150689	39.700000
2069.829122	33.770000
2071.510633	35.350000
2073.188392	31.360000
2074.865815	40.820000
2076.544607	37.490000
2078.221357	34.030000
2079.896064	30.790000
2081.572142	33.140000
2083.246178	33.720000
2084.919880	37.060000
2086.593246	42.430000
2088.264573	35.980000
2089.935566	33.340000
2091.606225	35.780000
2093.276550	33.460000
2094.946541	39.550000
2096.614496	36.820000
2098.282117	40.470000
2099.947705	36.140000
2101.614661	44.460000
2103.279584	40.600000
2104.944175	33.800000
2106.606734	38.710000
2108.270661	37.760000
2109.932557	38.610000
2111.594123	35.100000
2113.255357	30.190000
2114.914563	36.180000
2116.573438	33.360000
2118.231984	39.360000
2119.890199	35.940000
2121.544692	36.780000
2123.202249	39.880000
2124.859476	40.490000
2126.512983	30.270000
2128.167857	34.520000
2129.819012	45.050000
2131.473230	40.280000
2133.123730	40.490000
2134.775598	40.980000
2136.422057	32.920000
2138.073271	39.610000
2139.720771	34.900000
2141.369638	35.390000
2143.016486	35.680000
2144.663009	36.870000
2146.309206	34.660000
2147.951695	36.060000
2149.597241	36.600000
2151.239082	33.140000
2152.883979	34.350000
2154.525170	38.220000
2156.166038	36.170000
2157.806583	35.490000
2159.445115	37.350000
2161.085013	35.960000
2162.721211	37.580000
2164.358775	37.050000
2165.996017	38.870000
2167.631249	40.580000
2169.266159	34.760000
2170.900748	37.400000
2172.535016	32.410000
2174.165590	34.750000
2175.799216	40.090000
2177.429150	43.680000
2179.060449	32.240000
2180.689743	40.160000
2182.318718	34.060000
2183.947373	37.490000
2185.575709	33.500000
2187.202043	35.690000
2188.828057	32.020000
2190.452071	34.710000
2192.077450	36.860000
2193.700828	32.770000
2195.325571	35.100000
2196.946633	36.780000
2198.567378	30.140000
2200.189487	34.750000
2201.809599	34.120000
2203.427715	33.190000
2205.045515	35.300000
2206.663000	36.780000
2208.280169	30.440000
2209.897023	29.660000
2211.513561	32.640000
2213.128107	34.680000
2214.740660	33.840000
2216.354577	33.560000
2217.966503	35.490000
2219.579792	32.900000
2221.191091	37.550000
2222.800400	36.540000
2224.411073	32.300000
2226.019757	36.620000
2227.628128	32.160000
2229.234513	36.980000
2230.842260	33.040000
2232.448022	40.670000
2234.053472	32.740000
2235.656937	33.840000
2237.261765	32.090000
2238.864609	30.360000
2240.465470	37.800000
2242.067694	32.250000
2243.667936	34.260000
2245.269540	31.870000
2246.867491	38.750000
2248.466805	34.830000
2250.064139	34.630000
2251.661165	35.650000
2253.259553	32.100000
2254.854292	34.790000
2256.447054	38.220000
2258.041179	45.380000
2259.636665	33.430000
2261.228506	35.340000
2262.820041	31.410000
2264.412938	33.290000
2266.000525	35.310000
2267.592808	33.160000
2269.179785	35.650000
2270.769789	34.210000
2272.354489	37.010000
2273.943883	33.090000
2275.527974	41.790000
2277.113427	35.310000
2278.696911	34.450000
2280.283420	37.640000
2281.866296	30.370000
2283.448869	33.720000
2285.031138	29.990000
2286.609777	37.290000
2288.191441	36.480000
2289.769476	31.210000
2291.350534	27.860000
2292.927965	31.145000
2294.503433	34.430000
2296.081923	39.070000
2297.656789	36.620000
2299.231354	32.730000
2300.805618	39.940000
2302.379583	34.060000
2303.953246	37.430000
2305.526610	36.770000
2307.096355	28.100000
2308.665801	33.870000
2310.238265	32.610000
2311.805455	29.110000
2313.375663	32.690000
2314.942256	29.140000
2316.510209	34.210000
2318.076206	27.820000
2319.641906	36.840000
2321.207308	37.050000
2322.770757	31.810000
2324.335565	34.990000
2325.896765	39.100000
2327.460979	41.420000
2329.019931	40.710000
2330.581897	36.840000
2332.141913	41.080000
2333.701633	35.530000
2335.259405	31.940000
2336.816881	33.690000
2338.374063	34.690000
2339.929297	35.240000
2341.484238	31.910000
2343.038884	35.090000
2344.593237	30.770000
2346.147296	26.680000
2347.701062	37.490000
2349.252883	32.200000
2350.802762	33.550000
2352.355648	33.740000
2353.903291	28.770000
2355.453943	34.670000
2357.001003	32.160000
2358.549421	36.420000
2360.097548	35.080000
2361.642086	32.860000
2363.187982	33.230000
2364.731940	36.810000
2366.277254	30.910000
2367.818985	33.530000
2369.362072	33.990000
2370.903223	32.080000
2372.444085	28.870000
2373.984658	41.950000
2375.524942	34.110000
2377.064937	31.010000
2378.601354	28.080000
2380.140772	34.300000
2381.676612	29.630000
2383.213810	33.440000
2384.747432	31.800000
2386.284054	34.960000
2387.818746	32.220000
2389.351508	35.390000
2390.883983	32.250000
2392.414530	34.680000
2393.948075	31.660000
2395.476409	34.510000
2397.006099	29.820000
2398.535504	32.400000
2400.064624	35.820000
2401.593458	31.750000
2403.117088	33.970000
2404.645353	35.540000
2406.168416	31.590000
2407.696112	37.590000
2409.216969	32.820000
2410.742458	35.330000
2412.264388	32.040000
2413.787672	35.380000
2415.309036	32.890000
2416.828480	32.150000
2418.349279	34.990000
2419.868159	36.700000
2421.386758	34.630000
2422.903439	36.340000
2424.421474	34.700000
2425.939228	31.650000
2427.453430	31.140000
2428.967353	36.370000
2430.480995	36.430000
2431.995992	34.850000
2433.507440	37.320000
2435.020242	34.360000
2436.531132	34.680000
2438.041743	31.970000
2439.550442	30.190000
2441.062127	37.530000
2442.570269	31.790000
2444.078133	30.350000
2445.585718	33.480000
2447.089764	35.930000
2448.596794	30.550000
2450.101916	33.460000
2451.606761	33.840000
2453.109699	26.580000
2454.612361	31.490000
2456.114746	34.360000
2457.615226	32.830000
2459.117059	31.550000
2460.616987	31.810000
2462.116640	32.840000
2463.616018	34.410000
2465.113493	29.540000
2466.609066	32.000000
2468.107619	33.900000
2469.602644	33.200000
2471.099021	28.980000
2472.591872	27.900000
2474.086076	29.040000
2475.580006	33.090000
2477.070412	33.570000
2478.563796	31.120000
2480.055282	31.310000
2481.544871	38.170000
2483.034188	29.150000
2484.521609	30.900000
2486.012006	39.560000
2487.498885	29.800000
2488.987115	33.630000
2490.471828	35.840000
2491.956272	36.130000
2493.442066	33.600000
2494.925969	33.800000
2496.411222	28.230000
2497.891342	29.320000
2499.374435	31.330000
2500.855637	33.380000
2502.336570	31.470000
2503.815614	27.250000
2505.294389	32.570000
2506.772896	33.710000
2508.251135	33.640000
2509.729105	37.200000
2511.203570	31.850000
2512.681005	29.190000
2514.154936	29.990000
2515.630217	27.980000
2517.105231	28.820000
2518.576744	29.400000
2520.049608	28.440000
2521.520589	36.500000
2522.992920	31.610000
2524.460137	34.640000
2525.930321	37.560000
2527.398624	31.490000
2528.866662	26.430000
2530.334435	34.670000
2531.801943	28.440000
2533.269186	31.660000
2534.732937	31.020000
2536.198038	31.270000
2537.661262	31.960000
2539.125835	35.910000
2540.586920	34.680000
2542.049354	30.960000
2543.511525	30.750000
2544.970210	33.280000
2546.433466	28.000000
2547.891626	29.460000
2549.351136	28.140000
2550.805551	31.400000
2552.264537	26.930000
2553.721651	25.410000
2555.176893	30.380000
2556.631875	36.410000
2558.084988	33.590000
2559.539448	33.370000
2560.992040	30.220000
2562.444372	35.240000
2563.894837	33.820000
2565.348257	32.900000
2566.796595	33.040000
2568.247888	29.480000
2569.697316	31.570000
2571.143271	28.920000
2572.592181	31.200000
2574.037621	32.250000
2575.484408	34.470000
2576.929332	31.690000
2578.373999	29.950000
2579.820013	33.420000
2581.262561	33.010000
2582.706456	30.290000
2584.146885	29.980000
2585.588663	29.920000
2587.028581	33.970000
2588.469846	30.830000
2589.907649	32.250000
2591.348402	35.220000
2592.784093	30.660000
2594.222732	31.680000
2595.659515	28.320000
2597.094442	27.750000
2598.532316	32.410000
2599.965133	25.630000
2601.399297	28.800000
2602.831607	30.510000
2604.265263	31.170000
2605.697066	37.470000
2607.128615	32.480000
2608.559912	26.480000
2609.989356	29.770000
2611.418548	34.660000
2612.845890	25.030000
2614.274577	30.210000
2615.703013	31.710000
2617.128001	31.920000
2618.554336	39.950000
2619.978822	30.140000
2621.404654	31.600000
2622.827042	31.020000
2624.250776	32.340000
2625.672663	35.920000
2627.094300	28.870000
2628.514093	30.720000
2629.935231	33.200000
2631.356119	32.200000
2632.773568	26.420000
2634.193958	27.830000
2635.610910	34.150000
2637.027613	24.920000
2638.444068	32.580000
2639.860275	35.160000
2641.276234	34.750000
2642.690352	32.150000
2644.104222	28.920000
2645.516253	32.550000
2646.929629	28.060000
2648.339575	32.440000
2649.752457	30.050000
2651.161910	31.140000
2652.571117	26.110000
2653.978488	28.000000
2655.388793	34.810000
2656.797263	28.730000
2658.203897	29.980000
2659.610286	29.930000
2661.014841	32.350000
2662.420740	29.580000
2663.824806	29.310000
2665.228627	28.580000
2666.632204	27.580000
2668.033950	34.690000
2669.437039	28.660000
2670.836710	32.980000
2672.237725	30.760000
2673.635324	31.980000
2675.035852	28.950000
2676.432966	30.110000
2677.831423	28.220000
2679.228053	30.170000
2680.624440	26.410000
2682.020585	30.470000
2683.414904	31.040000
2684.810566	30.460000
2686.202819	32.440000
2687.596414	28.470000
2688.988185	32.050000
2690.381299	23.350000
2691.772589	28.610000
2693.162056	27.590000
2694.551283	29.270000
2695.940271	25.460000
2697.330600	30.490000
2698.715946	31.450000
2700.104215	32.010000
2701.490664	30.010000
2702.876874	28.620000
2704.262845	31.190000
2705.645418	25.680000
2707.029333	26.820000
2708.413010	31.130000
2709.796448	31.370000
2711.176491	31.430000
2712.557876	32.860000
2713.937446	29.720000
2715.318356	27.640000
2716.697452	31.800000
2718.074734	26.880000
2719.453357	25.740000
2720.830166	28.440000
2722.206740	29.390000
2723.583078	36.490000
2724.957604	28.770000
2726.333471	32.860000
2727.705952	26.630000
2729.081348	22.770000
2730.451784	29.780000
2731.823561	29.650000
2733.195103	28.900000
2734.564837	31.950000
2735.935911	33.920000
2737.305178	28.550000
2738.674211	29.890000
2740.041438	28.300000
2741.408431	28.560000
2742.775192	28.200000
2744.141720	26.860000
2745.506444	23.360000
2746.870935	31.130000
2748.235195	21.750000
2749.599222	29.010000
2750.963018	30.010000
2752.323440	26.980000
2753.686772	27.480000
2755.045162	31.800000
2756.406462	33.740000
2757.764392	26.230000
2759.125230	22.970000
2760.484268	28.090000
2761.839939	25.230000
2763.198517	26.440000
2764.553728	28.160000
2765.908710	31.780000
2767.261895	29.580000
2768.617987	28.590000
2769.970715	31.750000
2771.323215	29.560000
2772.675486	30.160000
2774.029095	32.150000
2775.379344	25.030000
2776.727798	25.320000
2778.079157	27.540000
2779.427158	24.960000
2780.776496	30.450000
2782.124042	28.880000
2783.471362	29.380000
2784.818455	21.560000
2786.163756	30.190000
2787.508832	25.400000
2788.853682	24.520000
2790.198306	25.220000
2791.539578	30.870000
2792.882187	22.940000
2794.224572	21.720000
2795.566731	27.180000
2796.905541	31.790000
2798.247251	24.980000
2799.585612	22.380000
2800.925311	30.850000
2802.263225	30.920000
2803.599353	25.430000
2804.935259	27.640000
2806.272502	29.570000
2807.607961	27.160000
2808.943197	26.860000
2810.276650	28.040000
2811.611440	26.790000
2812.942890	27.850000
2814.277235	27.900000
2815.606682	25.020000
2816.937465	26.450000
2818.268028	28.610000
2819.596811	28.640000
2820.926930	24.740000
2822.255271	23.010000
2823.583391	25.670000
2824.909733	26.300000
2826.237412	24.960000
2827.561757	25.250000
2828.887439	29.150000
2830.211345	31.010000
2831.535031	19.310000
2832.860053	27.940000
2834.181746	26.640000
2835.503220	26.480000
2836.824475	28.000000
2838.145511	25.350000
2839.464774	26.620000
2840.785373	27.760000
2842.104200	28.560000
2843.422810	24.430000
2844.739648	32.300000
2846.056269	25.890000
2847.372673	25.740000
2848.687307	31.190000
2850.003277	31.340000
2851.315926	22.010000
2852.629910	27.500000
2853.943678	20.930000
2855.257229	31.140000
2856.569014	25.470000
2857.879032	25.920000
2859.190385	29.480000
2860.498423	30.910000
2861.807795	24.940000
2863.116952	26.540000
2864.425895	28.800000
2865.733073	27.830000
2867.038489	24.900000
2868.345238	23.210000
2869.650226	25.430000
2870.954999	23.560000
2872.258012	26.740000
2873.563905	25.490000
2874.864944	23.600000
2876.167317	29.860000
2877.467930	26.700000
2878.769877	30.460000
2880.071610	27.720000
2881.370040	22.460000
2882.669803	26.720000
2883.967809	26.040000
2885.265603	25.780000
2886.561641	29.820000
2887.859012	31.650000
2889.154627	25.910000
2890.450031	25.070000
2891.745224	26.850000
2893.037120	23.160000
2894.331892	27.200000
2895.623367	23.490000
2896.916175	27.920000
2898.208773	27.270000
2899.498077	24.870000
2900.788713	28.380000
2902.077598	26.850000
2903.367815	26.690000
2904.654741	25.310000
2905.942999	26.480000
2907.229508	28.830000
2908.515808	23.430000
2909.801900	23.470000
2911.086245	23.650000
2912.373460	23.590000
2913.655849	23.950000
2914.939570	25.930000
2916.221545	21.280000
2917.503312	26.760000
2918.783334	27.000000
2920.066227	25.890000
2921.347374	25.560000
2922.625239	24.600000
2923.905973	20.710000
2925.183426	24.370000
2926.460673	27.480000
2927.736178	24.990000
2929.014551	19.490000
2930.288110	23.650000
2931.564536	22.630000
2932.839221	24.760000
2934.112165	25.280000
2935.386441	24.710000
2936.658977	23.430000
2937.931308	21.760000
2939.200367	28.970000
2940.472291	22.670000
2941.742477	23.710000
2943.012459	26.530000
2944.282238	28.820000
2945.550281	27.960000
2946.816587	26.200000
2948.082691	24.420000
2949.350126	25.590000
2950.615825	23.870000
2951.881323	24.910000
2953.146618	26.400000
2954.408648	30.690000
2955.672008	24.410000
2956.935167	25.890000
2958.196594	24.440000
2959.459350	24.050000
2960.720374	26.220000
2961.979668	28.020000
2963.238761	24.290000
2964.497655	25.200000
2965.756348	27.030000
2967.014841	22.370000
2968.271604	22.930000
2969.528169	28.220000
2970.783005	26.050000
2972.039171	21.480000
2973.292082	27.380000
2974.546321	26.480000
2975.800362	28.570000
2977.052677	19.980000
2978.304794	23.940000
2979.555186	29.040000
2980.808433	25.220000
2982.056903	25.010000
2983.308228	25.110000
2984.556303	25.940000
2985.804181	25.740000
2987.051863	18.950000
2988.299347	24.200000
2989.545110	25.050000
2990.790677	22.730000
2992.037571	22.110000
2993.281221	27.620000
2994.526199	22.830000
2995.767933	21.780000
2997.012519	17.780000
2998.255386	22.010000
2999.495012	26.580000
3000.737488	27.550000
3001.976724	23.740000
3003.217288	22.480000
3004.456135	19.630000
3005.694788	26.010000
3006.931725	22.920000
3008.169990	27.390000
3009.406539	24.260000
3010.642895	26.420000
3011.879057	22.170000
3013.113505	22.320000
3014.347760	17.050000
3015.581823	19.190000
3016.814172	23.120000
3018.044810	22.010000
3019.278294	19.140000
3020.510067	20.280000
3021.740129	25.230000
3022.969998	21.600000
3024.198158	23.890000
3025.427645	24.070000
3026.655422	21.010000
3027.883008	26.080000
3029.111920	22.340000
3030.336090	24.810000
3031.563104	21.790000
3032.786893	23.840000
3034.012009	21.170000
3035.235418	28.490000
3036.458637	23.280000
3037.680151	21.890000
3038.904506	26.330000
3040.124126	24.610000
3041.345072	20.360000
3042.565829	21.450000
3043.784882	24.630000
3045.005260	22.550000
3046.222422	25.300000
3047.440910	22.950000
3048.657695	20.890000
3049.874293	24.390000
3051.090702	23.800000
3052.303898	21.290000
3053.519933	21.500000
3054.732755	26.360000
3055.948413	22.180000
3057.159350	20.270000
3058.371611	24.280000
3059.583685	24.330000
3060.795573	20.410000
3062.005764	24.010000
3063.215768	22.810000
3064.425586	18.450000
3065.633708	26.310000
3066.841645	20.440000
3068.047886	22.360000
3069.255452	25.950000
3070.461323	23.005000
3071.667009	20.060000
3072.872511	21.260000
3074.076319	28.370000
3075.281451	25.750000
3076.484890	25.120000
3077.686638	24.680000
3078.888201	19.970000
3080.089581	23.780000
3081.290777	21.890000
3082.490283	23.300000
3083.689606	23.340000
3084.890252	21.390000
3086.089208	21.400000
3087.284970	22.650000
3088.483560	20.940000
3089.678958	20.470000
3090.875678	18.110000
3092.069206	19.210000
3093.265562	17.360000
3094.460231	20.700000
3095.651710	19.550000
3096.847521	27.220000
3098.038637	27.590000
3099.231077	23.740000
3100.420329	26.030000
3101.612406	18.500000
3102.802800	23.230000
3103.990008	17.740000
3105.178538	22.010000
3106.368391	19.950000
3107.555060	21.480000
3108.741548	26.260000
3109.927858	24.770000
3111.115489	21.510000
3112.299938	21.490000
3113.482708	17.580000
3114.668300	19.900000
3115.852213	21.380000
3117.034447	20.770000
3118.216502	22.340000
3119.398379	23.020000
3120.580078	21.040000
3121.760100	23.050000
3122.938445	20.770000
3124.119610	22.480000
3125.297600	21.380000
3126.475413	20.100000
3127.653049	12.920000
3128.829010	26.100000
3130.004795	21.900000
3131.181901	19.720000
3132.357332	17.790000
3133.531090	27.150000
3134.703175	21.820000
3135.876582	16.650000
3137.049812	19.740000
3138.221371	22.120000
3139.394250	22.980000
3140.563962	20.760000
3141.734995	22.820000
3142.904358	21.980000
3144.072050	21.330000
3145.242558	22.470000
3146.408408	21.320000
3147.578566	22.200000
3148.744068	21.720000
3149.909395	23.330000
3151.074549	22.520000
3152.239530	15.140000
3153.405830	23.770000
3154.567478	24.570000
3155.730445	22.050000
3156.893240	23.850000
3158.055862	23.280000
3159.216818	22.180000
3160.377603	21.450000
3161.538215	24.590000
3162.697163	14.940000
3163.855940	23.390000
3165.014544	15.460000
3166.172977	18.930000
3167.331239	20.790000
3168.487838	18.790000
3169.642776	21.580000
3170.799033	20.940000
3171.953629	21.970000
3173.108055	15.440000
3174.260821	25.560000
3175.413416	25.580000
3176.565842	20.910000
3177.718098	21.910000
3178.870183	20.910000
3180.019122	19.840000
3181.170869	20.520000
3182.320957	20.990000
3183.469389	20.360000
3184.617651	17.960000
3185.765745	17.790000
3186.913670	24.820000
3188.059939	19.290000
3189.206040	23.370000
3190.350487	21.360000
3191.494766	20.420000
3192.638877	17.050000
3193.784305	19.380000
3194.926595	23.160000
3196.068718	20.720000
3197.210673	25.070000
3198.352461	18.350000
3199.494082	22.990000
3200.632568	22.660000
3201.772371	20.060000
3202.913491	15.000000
3204.051478	21.780000
3205.187815	23.480000
3206.323986	17.980000
3207.461474	17.130000
3208.597314	18.610000
3209.734471	23.790000
3210.867015	18.430000
3212.003841	19.030000
3213.136055	19.920000
3214.269586	23.670000
3215.402953	23.430000
3216.533192	21.800000
3217.666229	20.110000
3218.796140	18.470000
3219.927367	24.850000
3221.055470	20.840000
3222.186369	16.080000
3223.315624	21.840000
3224.443236	17.200000
3225.567725	17.140000
3226.696490	16.500000
3227.822133	20.640000
3228.947613	18.190000
3230.071452	18.350000
3231.198086	17.170000
3232.320122	25.100000
3233.443474	19.640000
3234.566664	23.920000
3235.689691	16.730000
3236.811080	18.690000
3237.932306	21.060000
3239.051894	19.610000
3240.171321	23.470000
3241.289111	16.870000
3242.409692	20.630000
3243.527160	22.510000
3244.644467	22.220000
3245.761614	21.060000
3246.877124	20.440000
3247.993950	24.460000
3249.107666	15.770000
3250.224171	20.910000
3251.339042	23.510000
3252.450803	14.630000
3253.562406	16.680000
3254.675324	23.040000
3255.788082	18.620000
3256.897734	18.280000
3258.008701	17.940000
3259.119509	19.600000
3260.228685	16.600000
3261.336230	19.420000
3262.445090	19.010000
3263.553792	20.850000
3264.659391	18.450000
3265.766304	18.740000
3266.871588	17.930000
3267.978186	16.850000
3269.081684	22.200000
3270.186496	17.920000
3271.291151	20.360000
3272.392708	17.990000
3273.494108	20.120000
3274.596822	19.820000
3275.699380	18.140000
3276.798841	18.390000
3277.901086	15.200000
3279.000235	18.140000
3280.097760	17.660000
3281.195129	18.330000
3282.295280	14.790000
3283.392339	17.610000
3284.489242	21.870000
3285.585990	14.770000
3286.678179	20.420000
3287.774618	16.420000
3288.869434	15.720000
3289.964096	18.740000
3291.057136	20.070000
3292.150021	17.550000
3293.241286	14.970000
3294.333864	24.360000
3295.424822	20.180000
3296.514160	22.560000
3297.603345	22.710000
3298.693842	18.070000
3299.781256	15.900000
3300.868516	17.240000
3301.957089	16.550000
3303.045509	20.950000
3304.129383	15.340000
3305.217498	21.800000
3306.302531	20.960000
3307.385949	16.440000
3308.470679	14.230000
3309.553793	18.570000
3310.638220	16.880000
3311.719568	19.460000
3312.802228	17.940000
3313.883274	20.210000
3314.964168	17.800000
3316.043450	11.520000
3317.122581	18.720000
3318.203024	18.440000
3319.280392	20.120000
3320.359072	19.700000
3321.436140	15.120000
3322.513059	20.700000
3323.588366	17.450000
3324.663524	17.120000
3325.739993	15.550000
3326.813392	18.420000
3327.886641	15.970000
3328.961202	16.500000
3330.034154	18.780000
3331.105497	22.210000
3332.178151	22.580000
3333.247739	21.340000
3334.318637	16.530000
3335.387928	21.440000
3336.458529	18.720000
3337.527525	19.460000
3338.594914	19.990000
3339.660698	18.630000
3340.730708	19.760000
3341.797655	17.950000
3342.861540	21.370000
3343.928192	20.170000
3344.993241	20.930000
3346.056686	24.050000
3347.119985	18.740000
3348.183137	19.970000
3349.246143	17.500000
3350.309003	18.780000
3351.370261	16.900000
3352.428462	18.120000
3353.490883	16.210000
3354.550249	18.870000
3355.609469	14.570000
3356.669998	11.450000
3357.726019	17.410000
3358.784803	19.610000
3359.839080	17.150000
3360.896121	16.920000
3361.951563	14.820000
3363.008315	17.020000
3364.063468	14.910000
3365.117024	18.510000
3366.168984	13.890000
3367.223705	16.680000
3368.275377	18.490000
3369.326906	18.110000
3370.379743	16.780000
3371.429533	18.530000
3372.480632	15.000000
3373.528684	16.430000
3374.579497	19.540000
3375.627264	18.910000
3376.674889	20.440000
3377.722372	18.200000
3378.768262	15.880000
3379.815460	15.250000
3380.859616	18.030000
3381.906530	17.870000
3382.951852	23.370000
3383.994133	16.960000
3385.036273	14.520000
3386.079722	17.460000
3387.123029	14.640000
3388.164746	18.240000
3389.206323	12.520000
3390.247758	18.800000
3391.287605	15.630000
3392.325863	16.790000
3393.365429	19.530000
3394.404855	15.230000
3395.442693	17.260000
3396.478944	19.540000
3397.515056	17.860000
3398.552475	13.680000
3399.586861	18.540000
3400.622554	14.930000
3401.658108	17.400000
3402.690631	18.040000
3403.725906	18.000000
3404.758152	18.080000
3405.790259	18.670000
3406.820782	16.920000
3407.852612	12.860000
3408.884304	13.720000
3409.912968	17.370000
3410.941495	17.330000
3411.971328	17.950000
3413.001024	18.950000
3414.027694	15.460000
3415.055670	18.780000
3416.080623	10.120000
3417.108325	18.710000
3418.133003	16.220000
3419.158989	17.400000
3420.183394	15.240000
3421.207663	22.930000
3422.230353	14.890000
3423.252907	16.960000
3424.276767	19.570000
3425.297607	20.970000
3426.318311	18.160000
3427.340322	14.110000
3428.359314	17.060000
3429.378170	17.890000
3430.398333	19.990000
3431.415479	22.200000
