-116.707459	-2.333333
-114.037859	-1.333333
-111.371194	11.333333
-108.705281	-12.000000
-106.042300	1.000000
-103.377890	-7.333333
-100.716410	-13.000000
-98.053501	22.666667
-95.395698	-9.666667
-92.736466	18.666667
-90.077982	-21.666667
-87.422422	-3.666667
-84.765434	-6.000000
-82.113544	-12.333333
-79.460224	8.000000
-76.809823	-7.666667
-74.157993	-25.000000
-71.511254	8.000000
-68.863086	16.000000
-66.215660	-5.666667
-63.571148	-9.333333
-60.925208	-8.333333
-58.284349	17.666667
-55.642061	4.000000
-53.002682	8.666667
-50.361873	18.333333
-47.721805	-12.666667
-45.086809	9.333333
-42.450385	22.666667
-39.816863	1.666667
-37.181913	26.666667
-34.552028	15.666667
-31.918551	18.000000
-29.290136	22.000000
-26.662455	24.333333
-24.033345	-2.000000
-21.409292	25.333333
-18.781650	60.333333
-16.159061	64.333333
-13.537204	111.333333
-10.916077	157.333333
-8.295680	382.666667
-5.678172	1219.000000
-3.059235	4243.666667
-0.443183	10914.333333
2.172140	19336.000000
4.786736	9576.000000
7.398449	1224.666667
10.011591	131.000000
12.619699	80.000000
15.231389	38.666667
17.838048	47.666667
20.446135	26.333333
23.053498	25.000000
25.655836	19.333333
28.261752	-2.000000
30.862646	1.666667
33.464968	44.000000
36.062273	-18.333333
38.663153	20.000000
41.259018	-8.666667
43.856312	6.666667
46.452886	12.000000
49.044451	-12.333333
51.637444	10.666667
54.227576	15.666667
56.819136	-28.000000
59.407836	0.333333
61.997963	20.000000
64.583091	32.333333
67.169647	10.000000
69.755489	6.666667
72.338477	13.666667
74.922891	42.666667
77.500177	-33.333333
80.081029	2.333333
82.659032	0.666667
85.236325	16.333333
87.815044	-28.333333
90.388781	17.333333
92.963946	-25.333333
95.536267	23.666667
98.107880	13.000000
100.676653	19.666667
103.246853	16.333333
105.814215	9.000000
108.383002	9.000000
110.948953	57.666667
113.512069	-13.333333
116.078741	9.000000
118.636192	-4.000000
121.199328	23.666667
123.757504	37.333333
126.319235	34.666667
128.876009	63.000000
131.434210	125.333333
133.987457	170.333333
136.540007	239.333333
139.096107	347.000000
141.647259	469.000000
144.197714	575.000000
146.747471	652.666667
149.294409	720.666667
151.840652	780.666667
154.388320	778.666667
156.935292	778.333333
159.477329	805.000000
162.018672	754.000000
164.559322	796.333333
167.101398	755.333333
169.640662	798.666667
172.177118	757.333333
174.712882	779.333333
177.250072	752.333333
179.786571	759.333333
182.320264	760.000000
184.851153	745.666667
187.381355	737.333333
189.912981	690.000000
192.441806	741.666667
194.967832	691.333333
197.493172	726.000000
200.019937	738.666667
202.543906	733.000000
205.067190	708.666667
207.589789	728.333333
210.109595	729.666667
212.628718	715.000000
215.147158	744.666667
217.667022	713.333333
220.179885	737.000000
222.696279	751.666667
225.211991	730.333333
227.722813	779.000000
230.235060	727.666667
232.744525	815.000000
235.253311	801.000000
237.761418	751.333333
240.270950	793.000000
242.775601	814.666667
245.279576	790.333333
247.784975	796.000000
250.285499	772.333333
252.789547	755.333333
255.286623	750.000000
257.787223	790.333333
260.285051	772.333333
262.782206	792.333333
265.278688	751.000000
267.770307	754.333333
270.265446	753.333333
272.757818	782.333333
275.249520	788.333333
277.738459	789.666667
280.228822	800.666667
282.716422	794.000000
285.201263	809.666667
287.689619	828.000000
290.171035	766.333333
292.655965	773.000000
295.136050	807.666667
297.619647	859.000000
300.098401	900.666667
302.578579	910.333333
305.056004	929.333333
307.532766	887.000000
310.008865	881.666667
312.482215	844.666667
314.954903	808.666667
317.426930	848.333333
319.898296	835.666667
322.366917	826.000000
324.834880	866.000000
327.304264	870.666667
329.768826	809.000000
332.236892	799.000000
334.700138	745.333333
337.162726	759.000000
339.624658	759.000000
342.085933	731.333333
344.544474	732.666667
347.004437	734.666667
349.461667	714.666667
351.918243	708.666667
354.374165	719.333333
356.827357	662.666667
359.281972	712.000000
361.731785	703.000000
364.185094	698.333333
366.633605	691.333333
369.081464	675.333333
371.530746	670.666667
373.975234	643.333333
376.421144	638.666667
378.866404	641.333333
381.308946	635.000000
383.750840	648.000000
386.192087	633.666667
388.630618	634.333333
391.070571	631.333333
393.507810	579.000000
395.942337	580.666667
398.380352	608.666667
400.813590	601.666667
403.248249	608.333333
405.678136	635.333333
408.111508	626.333333
410.540110	620.666667
412.968070	598.333333
415.397452	634.333333
417.822068	554.000000
420.248106	595.333333
422.673503	570.000000
425.098260	641.000000
427.518259	595.666667
429.939679	618.666667
432.358402	599.000000
434.778546	604.333333
437.195995	577.000000
439.614864	593.000000
442.031040	545.000000
444.442468	540.000000
446.857374	528.333333
449.269589	518.333333
451.681170	509.000000
454.092117	486.000000
456.500378	513.333333
458.908006	488.666667
461.315002	483.666667
463.721367	525.000000
466.125049	464.666667
468.528101	494.000000
470.930523	432.333333
473.332315	471.000000
475.731430	458.666667
478.131964	492.333333
480.531869	482.666667
482.927051	532.000000
485.325700	504.333333
487.719629	513.333333
490.112932	549.333333
492.505609	597.333333
494.897661	605.666667
497.291131	637.666667
499.679889	714.333333
502.065981	826.000000
504.453493	960.666667
506.840382	1290.333333
509.224607	1720.666667
511.610250	2496.333333
513.993232	3563.333333
516.373553	4759.000000
518.755293	5804.333333
521.134374	5823.000000
523.514874	5259.000000
525.892716	4339.666667
528.267903	3575.666667
530.642472	3006.666667
533.018459	2474.666667
535.391794	2188.666667
537.766546	1930.333333
540.136613	1684.000000
542.506064	1491.000000
544.876933	1427.000000
547.243122	1289.333333
549.610729	1240.333333
551.975690	1105.333333
554.340038	1107.666667
556.703773	1028.666667
559.068926	986.666667
561.429407	947.666667
563.791306	980.333333
566.150564	864.000000
568.507185	871.666667
570.867250	848.333333
573.220624	810.333333
575.577443	802.333333
577.931627	788.000000
580.285202	759.666667
582.638170	749.000000
584.988505	745.333333
587.340258	724.333333
589.685334	676.666667
592.035874	678.666667
594.379740	647.333333
596.729068	630.000000
599.073747	620.333333
601.415802	624.000000
603.759274	600.000000
606.100123	598.333333
608.440370	606.000000
610.777996	674.666667
613.119057	676.333333
615.455480	721.000000
617.793320	721.666667
620.128543	718.000000
622.461150	673.000000
624.795173	691.000000
627.126582	635.000000
629.457393	630.333333
631.787607	592.333333
634.117222	655.333333
636.442214	569.666667
638.772648	572.666667
641.098461	584.000000
643.421666	555.333333
645.746288	582.666667
648.068304	572.666667
650.389726	572.000000
652.708546	542.666667
655.028781	550.333333
657.348423	563.333333
659.665464	543.666667
661.981913	564.000000
664.295764	530.333333
666.611031	545.000000
668.923701	565.333333
671.237786	573.666667
673.547271	567.000000
675.858172	536.666667
678.166480	528.000000
680.474200	536.666667
682.783334	508.333333
685.087876	492.333333
687.391832	468.333333
689.695202	501.666667
691.999986	477.666667
694.300184	489.666667
696.601796	463.000000
698.902823	520.000000
701.199269	447.000000
703.497130	486.666667
705.794407	420.000000
708.091101	386.000000
710.383219	424.666667
712.678748	401.666667
714.969703	415.333333
717.262073	412.666667
719.551868	425.666667
721.841082	411.333333
724.129717	419.000000
726.415779	469.333333
728.703256	438.000000
730.988161	423.000000
733.272489	450.666667
735.554248	429.666667
737.837421	412.666667
740.120017	439.333333
742.398057	416.333333
744.677512	446.000000
746.956390	432.333333
749.234694	414.333333
751.508448	382.333333
753.783615	430.333333
756.058209	391.666667
758.330244	424.333333
760.603692	441.666667
762.874582	414.333333
765.142916	445.000000
767.412663	418.000000
769.679856	397.666667
771.946478	378.000000
774.212530	406.666667
776.476031	413.666667
778.740945	395.000000
781.005289	384.000000
783.265104	427.666667
785.526331	407.666667
787.786991	390.666667
790.045105	432.000000
792.300674	449.666667
794.559634	418.666667
796.812095	429.333333
799.069922	452.666667
801.323231	444.000000
803.574000	444.666667
805.826181	457.666667
808.075823	420.666667
810.326878	435.666667
812.573421	419.333333
814.821376	433.666667
817.066797	449.000000
819.313629	460.333333
821.559900	398.333333
823.801666	472.333333
826.046816	430.000000
828.285493	427.333333
830.527552	426.000000
832.765113	387.666667
835.004086	440.666667
837.240532	421.666667
839.478389	442.333333
841.713721	403.000000
843.946530	428.666667
846.180750	383.000000
848.412447	410.333333
850.643590	385.000000
852.874178	389.333333
855.104212	437.333333
857.333692	382.666667
859.558690	415.333333
861.787063	388.333333
864.010956	424.666667
866.236261	391.333333
868.457090	365.333333
870.681291	384.666667
872.901019	379.666667
875.122157	403.000000
877.342745	405.333333
879.560824	406.333333
881.780312	386.000000
883.995334	358.000000
886.209808	371.333333
888.423735	397.333333
890.637115	380.666667
892.849947	356.333333
895.062233	348.333333
897.272016	404.666667
899.481254	350.666667
901.689947	389.666667
903.896141	407.333333
906.103744	423.666667
908.308849	392.333333
910.513411	373.666667
912.715478	402.333333
914.918954	409.333333
917.119936	416.000000
919.320376	427.333333
921.522225	461.333333
923.717683	457.000000
925.916500	459.666667
928.110878	510.000000
930.308614	568.666667
932.501914	632.000000
934.696623	677.333333
936.888846	743.333333
939.080530	831.666667
941.271677	853.666667
943.460341	828.000000
945.648469	880.666667
947.834116	842.000000
950.023115	852.000000
952.207691	827.000000
954.391732	851.666667
956.579123	837.000000
958.758210	829.666667
960.940648	832.333333
963.122552	887.666667
965.301981	876.000000
967.478938	871.000000
969.657303	931.000000
971.837075	895.666667
974.010498	910.000000
976.187267	860.666667
978.359629	884.666667
980.533399	891.666667
982.702765	878.333333
984.875475	840.000000
987.045720	784.000000
989.215436	754.333333
991.384623	695.000000
993.549413	643.666667
995.717544	580.000000
997.881281	560.666667
1000.046424	517.333333
1002.209108	509.666667
1004.371267	518.666667
1006.530969	536.000000
1008.690146	505.666667
1010.850730	515.333333
1013.008859	475.333333
1015.166465	486.666667
1017.323547	453.666667
1019.480105	387.000000
1021.632284	418.000000
1023.785870	450.333333
1025.938934	468.666667
1028.089549	441.000000
1030.241571	427.333333
1032.389219	442.666667
1034.540199	414.000000
1036.686808	411.333333
1038.832898	412.666667
1040.978470	417.666667
1043.125447	364.000000
1045.266135	448.333333
1047.410153	452.666667
1049.551730	433.666667
1051.692791	399.000000
1053.835256	426.666667
1055.971442	405.666667
1058.110953	380.666667
1060.246110	408.333333
1062.384591	412.333333
1064.518718	354.666667
1066.652332	405.000000
1068.787351	415.666667
1070.918020	410.000000
1073.050094	386.000000
1075.179739	399.000000
1077.308872	344.666667
1079.437493	366.666667
1081.565603	396.666667
1083.691287	390.666667
1085.816461	377.000000
1087.943039	395.666667
1090.065279	423.000000
1092.188924	366.333333
1094.308234	397.333333
1096.432774	403.666667
1098.551068	353.666667
1100.670767	378.000000
1102.788047	359.666667
1104.904821	394.333333
1107.021088	391.333333
1109.134939	406.000000
1111.250195	363.000000
1113.361127	382.666667
1115.475372	387.000000
1117.585296	350.666667
1119.696624	388.000000
1121.807447	376.666667
1123.913954	366.333333
1126.023771	407.333333
1128.129273	388.000000
1130.236178	389.333333
1132.336868	377.333333
1134.442770	379.000000
1136.544363	386.666667
1138.647359	360.666667
1140.749854	367.333333
1142.846142	406.000000
1144.947637	331.000000
1147.044830	374.000000
1149.141525	341.000000
1151.237721	348.666667
1153.333420	368.333333
1155.428620	379.666667
1157.521424	331.000000
1159.615631	359.333333
1161.703646	360.000000
1163.796859	395.000000
1165.883884	384.333333
1167.974208	357.000000
1170.060244	382.000000
1172.149579	377.333333
1174.232732	362.333333
1176.317287	361.666667
1178.403244	338.333333
1180.484919	358.333333
1182.567996	364.333333
1184.648687	378.000000
1186.728886	373.333333
1188.808594	361.333333
1190.887811	340.000000
1192.964646	364.000000
1195.039100	378.666667
1197.116845	357.666667
1199.190321	372.000000
1201.265197	361.333333
1203.335806	320.666667
1205.407816	318.333333
1207.477451	360.666667
1209.548486	342.666667
1211.619033	362.000000
1213.685319	377.000000
1215.753006	329.333333
1217.818321	399.000000
1219.885036	369.666667
1221.947495	331.666667
1224.013239	322.666667
1226.074729	362.666667
1228.137620	335.000000
1230.198143	367.000000
1232.258182	326.000000
1234.317739	367.000000
1236.374930	378.333333
1238.431640	345.333333
1240.485986	374.333333
1242.543614	365.666667
1244.598879	373.666667
1246.649903	364.666667
1248.702327	372.000000
1250.754271	377.666667
1252.803857	354.333333
1254.852964	389.333333
1256.901593	360.666667
1258.949743	359.666667
1260.997414	396.333333
1263.040855	317.000000
1265.087572	353.666667
1267.131935	380.333333
1269.175822	400.000000
1271.217357	405.666667
1273.256543	381.000000
1275.299002	388.333333
1277.337238	368.333333
1279.376873	385.333333
1281.416033	375.666667
1283.450974	384.000000
1285.487314	423.000000
1287.521310	371.333333
1289.556703	373.333333
1291.587884	379.666667
1293.620462	369.333333
1295.652569	392.666667
1297.682335	424.000000
1299.713498	366.000000
1301.740455	316.000000
1303.768809	352.000000
1305.792958	396.000000
1307.820373	386.333333
1309.843585	360.333333
1311.868195	398.666667
1313.890471	394.000000
1315.914144	364.666667
1317.935484	323.666667
1319.956356	374.333333
1321.976761	363.666667
1323.992973	368.333333
1326.010582	342.333333
1328.025863	387.666667
1330.044403	338.666667
1332.058754	369.666667
1334.070779	399.000000
1336.086061	377.333333
1338.097158	395.000000
1340.109652	381.333333
1342.117963	462.666667
1344.129529	414.666667
1346.135057	440.333333
1348.143840	399.333333
1350.148445	439.666667
1352.156304	428.333333
1354.163701	403.333333
1356.165067	456.666667
1358.167829	432.000000
1360.170132	452.333333
1362.171975	407.333333
1364.173358	383.666667
1366.172428	412.666667
1368.171039	436.000000
1370.169192	393.666667
1372.166886	404.000000
1374.160418	424.666667
1376.155345	425.333333
1378.149816	364.333333
1380.143830	427.333333
1382.135537	371.666667
1384.126789	353.000000
1386.115735	382.333333
1388.106076	365.666667
1390.095962	386.000000
1392.083544	340.666667
1394.070673	380.666667
1396.055500	382.000000
1398.041722	395.000000
1400.025644	370.333333
1402.009113	390.666667
1403.992129	396.333333
1405.972848	373.666667
1407.954961	357.000000
1409.934778	422.000000
1411.914143	379.333333
1413.889370	365.666667
1415.867835	366.000000
1417.844007	373.666667
1419.819730	409.666667
1421.795003	364.666667
1423.767985	387.333333
1425.740519	340.666667
1427.712605	374.666667
1429.684244	378.666667
1431.651754	383.333333
1433.624338	378.000000
1435.589116	361.666667
1437.558967	379.333333
1439.524694	390.000000
1441.491813	407.333333
1443.456649	378.333333
1445.417365	392.333333
1447.383149	403.333333
1449.342978	398.333333
1451.304201	450.333333
1453.266816	414.000000
1455.225316	452.333333
1457.183373	429.000000
1459.140989	426.666667
1461.098162	424.000000
1463.053060	403.333333
1465.009351	395.000000
1466.963367	406.333333
1468.916942	415.333333
1470.868245	416.666667
1472.820941	453.666667
1474.771364	443.333333
1476.721349	449.666667
1478.670895	423.666667
1480.618172	479.000000
1482.563181	468.000000
1484.509583	454.666667
1486.455547	416.333333
1488.401074	466.666667
1490.344335	445.333333
1492.287161	463.666667
1494.227723	417.333333
1496.169676	424.333333
1498.109367	386.000000
1500.048624	417.000000
1501.987445	450.666667
1503.924007	468.666667
1505.861960	465.666667
1507.797654	492.666667
1509.732915	499.666667
1511.665920	459.000000
1513.598492	498.333333
1515.530632	481.666667
1517.462340	515.333333
1519.391794	529.333333
1521.322639	524.000000
1523.253052	519.333333
1525.179393	515.000000
1527.107125	562.000000
1529.032606	516.666667
1530.957658	545.000000
1532.882281	612.000000
1534.806475	595.000000
1536.728421	630.666667
1538.651758	610.666667
1540.572848	663.666667
1542.491694	660.666667
1544.411930	708.333333
1546.329923	782.333333
1548.247489	813.333333
1550.162813	842.333333
1552.079527	959.666667
1553.992186	981.666667
1555.908049	1139.000000
1557.821672	1274.333333
1559.733057	1419.000000
1561.645832	1533.333333
1563.554557	1857.000000
1565.464671	2162.333333
1567.374362	2477.000000
1569.283630	2961.000000
1571.190664	3450.000000
1573.095465	3941.666667
1575.001655	4482.666667
1576.905613	4886.666667
1578.809150	5205.000000
1580.712267	5361.000000
1582.613154	5536.000000
1584.515430	5375.666667
1586.415478	5323.666667
1588.316913	4853.666667
1590.214315	4475.333333
1592.111298	3837.666667
1594.007863	3250.666667
1595.905816	2684.000000
1597.797934	2208.000000
1599.693245	1770.333333
1601.588139	1476.000000
1603.480811	1295.333333
1605.373066	1113.333333
1607.263102	1015.000000
1609.152722	872.333333
1611.041927	842.333333
1612.930717	779.666667
1614.817289	714.333333
1616.705249	639.666667
1618.589192	669.000000
1620.474522	584.666667
1622.359439	590.666667
1624.242142	530.666667
1626.126232	537.666667
1628.006310	488.666667
1629.887776	507.333333
1631.767031	473.666667
1633.647672	412.333333
1635.522509	427.000000
1637.402327	418.333333
1639.278141	383.666667
1641.153544	399.333333
1643.030333	400.000000
1644.901326	396.333333
1646.775500	426.333333
1648.645675	357.333333
1650.519032	351.666667
1652.390184	326.000000
1654.259136	359.333333
1656.129472	359.000000
1657.995816	376.000000
1659.863545	327.666667
1661.729075	341.666667
1663.595991	328.000000
1665.458918	318.333333
1667.323230	324.666667
1669.185346	303.333333
1671.047057	320.333333
1672.910154	324.000000
1674.771055	266.000000
1676.629764	307.000000
1678.488069	297.666667
1680.347759	264.666667
1682.201681	256.666667
1684.058777	304.333333
1685.915470	281.000000
1687.768186	330.333333
1689.624074	271.000000
1691.475988	287.333333
1693.327501	262.666667
1695.178613	268.000000
1697.029325	245.666667
1698.879635	303.333333
1700.727762	257.333333
1702.577273	277.333333
1704.421035	257.000000
1706.269746	271.333333
1708.112711	254.000000
1709.958843	275.333333
1711.801012	273.000000
1713.646347	259.333333
1715.485941	231.000000
1717.326919	252.000000
1719.169280	242.000000
1721.007685	279.333333
1722.847473	250.000000
1724.685086	260.666667
1726.522303	225.333333
1728.357347	277.000000
1730.193774	257.666667
1732.028029	271.000000
1733.861889	257.333333
1735.695355	245.666667
1737.524876	234.666667
1739.357555	229.333333
1741.186290	249.666667
1743.018182	226.333333
1744.846132	269.333333
1746.673691	254.000000
1748.500857	226.333333
1750.327632	263.000000
1752.154015	202.000000
1753.976462	239.333333
1755.802064	258.666667
1757.623731	211.666667
1759.446780	237.000000
1761.267667	280.333333
1763.088166	238.333333
1764.910045	244.000000
1766.726226	241.666667
1768.545558	243.666667
1770.360963	222.666667
1772.179518	257.000000
1773.994148	241.333333
1775.808391	224.000000
1777.622248	202.000000
1779.435718	243.333333
1781.247035	212.333333
1783.059732	259.000000
1784.872044	227.666667
1786.680438	268.333333
1788.490212	211.666667
1790.296072	237.000000
1792.105077	231.000000
1793.910169	214.333333
1795.716642	233.333333
1797.522731	217.666667
1799.324909	211.333333
1801.130232	241.000000
1802.931646	235.666667
1804.734440	238.333333
1806.533328	249.000000
1808.333597	234.666667
1810.133484	238.333333
1811.931229	231.333333
1813.728594	195.333333
1815.525579	214.000000
1817.322183	249.333333
1819.116648	210.666667
1820.912492	251.333333
1822.702681	225.666667
1824.497767	225.333333
1826.287201	252.666667
1828.079771	235.666667
1829.870206	237.333333
1831.658507	231.666667
1833.449943	262.666667
1835.235733	238.666667
1837.022903	235.333333
1838.807941	255.333333
1840.596113	247.666667
1842.380399	238.333333
1844.162555	249.000000
1845.946091	223.666667
1847.727498	227.000000
1849.510284	250.333333
1851.289189	247.000000
1853.069474	245.000000
1854.847632	220.333333
1856.627169	252.333333
1858.404581	260.666667
1860.179869	221.666667
1861.956535	219.000000
1863.731079	245.666667
1865.507001	241.333333
1867.277302	239.666667
1869.050731	232.000000
1870.822040	219.333333
1872.592978	249.000000
1874.365294	209.000000
1876.131996	252.333333
1877.901824	250.333333
1879.667788	237.666667
1881.436875	212.000000
1883.202101	239.666667
1884.966959	221.666667
1886.733194	270.666667
1888.495570	243.666667
1890.257579	244.666667
1892.019220	214.333333
1893.780495	232.000000
1895.541402	211.000000
1897.301943	231.666667
1899.060374	234.333333
1900.818439	197.333333
1902.574397	224.666667
1904.331731	193.000000
1906.088700	249.666667
1907.843562	237.000000
1909.596320	206.333333
1911.348713	241.333333
1913.102483	203.333333
1914.854149	193.666667
1916.603713	215.666667
1918.354652	246.000000
1920.105229	210.000000
1921.851966	201.333333
1923.600080	211.000000
1925.346094	188.666667
1927.093483	206.333333
1928.838775	186.333333
1930.581969	187.333333
1932.326538	231.000000
1934.069012	192.666667
1935.811125	191.333333
1937.552878	203.333333
1939.294271	213.666667
1941.033571	199.333333
1942.772512	246.000000
1944.511094	210.666667
1946.247585	206.333333
1947.983718	216.000000
1949.721225	225.666667
1951.454910	197.333333
1953.189970	229.333333
1954.922941	214.666667
1956.655556	249.333333
1958.387815	216.000000
1960.119717	203.666667
1961.849533	218.666667
1963.577264	228.000000
1965.306370	229.333333
1967.035121	242.000000
1968.761788	211.666667
1970.488101	200.000000
1972.215787	213.333333
1973.937937	206.666667
1975.663188	212.666667
1977.384632	213.000000
1979.109177	210.333333
1980.831641	192.666667
1982.550303	215.333333
1984.272063	233.000000
1985.990021	243.333333
1987.709352	239.666667
1989.424884	202.666667
1991.145236	240.333333
1992.861790	281.333333
1994.574547	221.333333
1996.290400	223.000000
1998.004181	273.000000
1999.717612	208.333333
2001.428972	211.333333
2003.141704	247.333333
2004.850646	199.333333
2006.562680	243.333333
2008.269206	231.333333
2009.978823	210.333333
2011.686374	231.666667
2013.393576	213.666667
2015.098713	227.000000
2016.803504	224.666667
2018.509666	226.000000
2020.212046	206.666667
2021.915797	194.666667
2023.617486	205.666667
2025.318830	235.000000
2027.019828	214.000000
2028.718765	219.666667
2030.419074	198.000000
2032.115608	188.666667
2033.813513	223.666667
2035.509359	215.000000
2037.208291	224.666667
2038.901737	191.666667
2040.596554	223.333333
2042.291029	237.666667
2043.981735	228.333333
2045.675525	192.666667
2047.365548	219.333333
2049.056942	219.000000
2050.746283	208.000000
2052.436994	202.666667
2054.123942	207.333333
2055.810551	217.666667
2057.498529	190.000000
2059.182748	181.333333
2060.868338	197.333333
2062.553588	197.000000
2064.236789	200.333333
2065.921361	226.666667
2067.600470	220.000000
2069.284364	215.333333
2070.962797	203.000000
2072.644308	225.666667
2074.322067	215.666667
2075.999490	230.000000
2077.678282	208.000000
2079.355032	198.333333
2081.029740	178.333333
2082.705817	229.333333
2084.379853	208.000000
2086.053555	219.333333
2087.726921	184.333333
2089.398248	242.666667
2091.069241	226.666667
2092.739900	250.333333
2094.410225	209.000000
2096.080216	202.666667
2097.748171	212.666667
2099.415793	271.000000
2101.081380	174.666667
2102.748336	236.666667
2104.413259	191.333333
2106.077850	209.000000
2107.740409	229.333333
2109.404336	211.666667
2111.066232	205.333333
2112.727798	202.333333
2114.389032	218.000000
2116.048238	217.333333
2117.707113	196.000000
2119.365659	208.666667
2121.023874	184.000000
2122.678367	180.333333
2124.335924	186.666667
2125.993152	210.666667
2127.646658	203.000000
2129.301532	210.000000
2130.952687	176.666667
2132.606905	171.333333
2134.257406	171.333333
2135.909273	205.333333
2137.555732	179.000000
2139.206946	232.000000
2140.854446	168.000000
2142.503313	223.666667
2144.150161	183.666667
2145.796684	189.000000
2147.442881	187.333333
2149.085370	191.000000
2150.730917	216.000000
2152.372757	177.333333
2154.017654	169.333333
2155.658845	169.333333
2157.299714	174.333333
2158.940258	225.666667
2160.578790	225.000000
2162.218688	196.000000
2163.854886	188.333333
2165.492450	246.666667
2167.129692	214.333333
2168.764924	213.666667
2170.399835	217.666667
2172.034423	226.666667
2173.668691	208.666667
2175.299265	242.000000
2176.932891	217.000000
2178.562825	220.666667
2180.194124	213.333333
2181.823418	207.666667
2183.452393	222.000000
2185.081048	201.333333
2186.709384	174.000000
2188.335718	198.666667
2189.961733	227.333333
2191.585746	207.333333
2193.211125	224.666667
2194.834503	231.666667
2196.459246	224.000000
2198.080308	210.333333
2199.701053	181.000000
2201.323163	218.333333
2202.943275	213.333333
2204.561390	216.666667
2206.179190	188.000000
2207.796675	209.000000
2209.413844	181.333333
2211.030698	185.666667
2212.647236	192.000000
2214.261782	216.666667
2215.874335	179.000000
2217.488252	218.666667
2219.100178	236.333333
2220.713467	263.333333
2222.324766	196.666667
2223.934075	223.333333
2225.544748	188.333333
2227.153432	196.666667
2228.761803	187.000000
2230.368188	205.666667
2231.975936	199.000000
2233.581697	187.666667
2235.187147	209.666667
2236.790612	182.333333
2238.395440	162.666667
2239.998284	183.666667
2241.599145	193.333333
2243.201369	200.333333
2244.801611	196.333333
2246.403215	185.000000
2248.001166	189.333333
2249.600480	177.333333
2251.197814	202.333333
2252.794840	184.000000
2254.393228	222.000000
2255.987967	190.333333
2257.580729	195.000000
2259.174854	219.000000
2260.770340	180.666667
2262.362181	184.000000
2263.953716	202.666667
2265.546613	206.000000
2267.134200	200.666667
2268.726483	216.000000
2270.313460	192.333333
2271.903464	237.333333
2273.488164	180.666667
2275.077558	211.333333
2276.661650	213.333333
2278.247102	210.333333
2279.830586	195.666667
2281.417095	188.333333
2282.999971	186.000000
2284.582544	193.666667
2286.164813	177.000000
2287.743452	175.333333
2289.325116	193.666667
2290.903151	190.666667
2292.484209	160.000000
2294.061640	176.666667
2295.637108	193.333333
2297.215598	181.666667
2298.790464	154.666667
2300.365029	174.000000
2301.939294	157.666667
2303.513258	204.000000
2305.086921	180.666667
2306.660285	205.333333
2308.230030	193.666667
2309.799476	182.333333
2311.371940	222.333333
2312.939130	176.333333
2314.509338	196.000000
2316.075931	201.666667
2317.643884	228.666667
2319.209881	205.333333
2320.775581	191.000000
2322.340983	210.666667
2323.904432	215.666667
2325.469240	214.333333
2327.030440	207.666667
2328.594654	226.666667
2330.153606	234.333333
2331.715573	210.333333
2333.275588	190.000000
2334.835309	214.000000
2336.393080	179.666667
2337.950556	186.666667
2339.507738	186.333333
2341.062972	188.333333
2342.617913	205.333333
2344.172559	201.000000
2345.726912	201.333333
2347.280972	186.000000
2348.834737	210.000000
2350.386558	217.333333
2351.936437	141.333333
2353.489323	193.333333
2355.036966	178.333333
2356.587618	241.333333
2358.134678	184.000000
2359.683096	180.666667
2361.231223	193.333333
2362.775761	201.000000
2364.321657	177.000000
2365.865615	193.333333
2367.410930	179.000000
2368.952660	207.000000
2370.495747	183.000000
2372.036898	203.333333
2373.577760	187.333333
2375.118333	240.666667
2376.658617	179.666667
2378.198612	178.000000
2379.735029	189.333333
2381.274447	175.333333
2382.810287	186.000000
2384.347485	216.000000
2385.881107	205.666667
2387.417729	173.333333
2388.952421	168.666667
2390.485183	203.333333
2392.017658	193.666667
2393.548205	176.333333
2395.081750	202.333333
2396.610084	208.333333
2398.139774	188.000000
2399.669179	188.000000
2401.198299	224.333333
2402.727134	220.666667
2404.250763	195.333333
2405.779028	226.333333
2407.302091	208.666667
2408.829787	166.333333
2410.350644	197.333333
2411.876134	252.666667
2413.398063	195.000000
2414.921348	237.000000
2416.442711	192.333333
2417.962155	193.333333
2419.482954	198.000000
2421.001835	201.333333
2422.520433	198.333333
2424.037114	217.666667
2425.555149	236.000000
2427.072903	226.333333
2428.587106	224.000000
2430.101028	205.333333
2431.614670	204.666667
2433.129667	228.333333
2434.641115	212.333333
2436.153918	248.666667
2437.664807	189.666667
2439.175418	248.666667
2440.684117	247.666667
2442.195802	216.333333
2443.703944	251.333333
2445.211808	274.666667
2446.719394	247.666667
2448.223439	281.000000
2449.730469	250.000000
2451.235591	243.000000
2452.740436	225.333333
2454.243374	247.000000
2455.746036	280.000000
2457.248421	235.666667
2458.748901	258.333333
2460.250734	254.666667
2461.750662	261.333333
2463.250315	194.000000
2464.749693	248.666667
2466.247168	238.333333
2467.742741	264.666667
2469.241294	212.666667
2470.736319	199.000000
2472.232696	229.666667
2473.725547	232.666667
2475.219751	232.666667
2476.713681	250.333333
2478.204087	221.000000
2479.697471	190.333333
2481.188957	200.333333
2482.678546	211.666667
2484.167863	221.333333
2485.655284	217.333333
2487.145681	208.333333
2488.632560	215.333333
2490.120790	209.666667
2491.605503	212.333333
2493.089947	215.333333
2494.575741	221.333333
2496.059644	215.000000
2497.544897	217.666667
2499.025017	209.000000
2500.508110	194.333333
2501.989312	210.666667
2503.470245	185.000000
2504.949289	162.333333
2506.428064	187.000000
2507.906571	203.666667
2509.384810	169.000000
2510.862780	207.000000
2512.337245	178.000000
2513.814680	147.333333
2515.288611	209.666667
2516.763892	213.666667
2518.238906	187.333333
2519.710419	197.333333
2521.183283	157.000000
2522.654264	215.666667
2524.126595	180.333333
2525.593812	200.000000
2527.063996	202.666667
2528.532299	198.000000
2530.000337	193.333333
2531.468110	235.000000
2532.935618	183.666667
2534.402861	213.666667
2535.866612	188.333333
2537.331713	162.666667
2538.794937	186.000000
2540.259510	220.666667
2541.720595	191.666667
2543.183029	205.333333
2544.645200	207.333333
2546.103885	188.333333
2547.567141	193.666667
2549.025302	235.666667
2550.484811	194.333333
2551.939226	209.666667
2553.398212	207.666667
2554.855326	203.000000
2556.310569	196.666667
2557.765550	235.666667
2559.218663	222.000000
2560.673124	184.333333
2562.125715	213.666667
2563.578047	260.333333
2565.028512	196.666667
2566.481932	205.000000
2567.930270	200.333333
2569.381563	231.000000
2570.830991	228.000000
2572.276946	238.333333
2573.725856	199.333333
2575.171296	238.000000
2576.618083	229.000000
2578.063008	219.333333
2579.507674	220.000000
2580.953688	211.666667
2582.396236	206.333333
2583.840131	250.000000
2585.280561	194.333333
2586.722338	254.666667
2588.162256	231.333333
2589.603521	199.333333
2591.041324	246.666667
2592.482077	200.333333
2593.917768	212.333333
2595.356408	238.333333
2596.793190	210.000000
2598.228117	202.666667
2599.665991	207.666667
2601.098808	249.666667
2602.532972	192.000000
2603.965282	246.000000
2605.398938	187.333333
2606.830741	261.333333
2608.262290	247.666667
2609.693587	234.000000
2611.123031	254.333333
2612.552223	270.666667
2613.979565	266.666667
2615.408252	236.666667
2616.836688	287.000000
2618.261676	274.333333
2619.688011	247.666667
2621.112497	290.333333
2622.538329	301.666667
2623.960717	317.000000
2625.384451	330.000000
2626.806338	305.666667
2628.227976	328.666667
2629.647768	327.666667
2631.068906	377.000000
2632.489794	375.666667
2633.907244	366.333333
2635.327633	421.666667
2636.744585	405.333333
2638.161288	409.333333
2639.577743	428.000000
2640.993950	428.666667
2642.409909	458.000000
2643.824027	453.000000
2645.237897	469.000000
2646.649929	538.333333
2648.063304	506.000000
2649.473250	547.000000
2650.886132	568.666667
2652.295585	588.000000
2653.704792	609.666667
2655.112163	669.333333
2656.522468	704.000000
2657.930938	738.666667
2659.337572	796.666667
2660.743961	817.666667
2662.148516	832.333333
2663.554415	906.333333
2664.958481	917.000000
2666.362302	974.666667
2667.765879	954.666667
2669.167625	1030.333333
2670.570714	1097.333333
2671.970385	1069.333333
2673.371400	1209.000000
2674.768999	1174.333333
2676.169527	1285.333333
2677.566641	1276.333333
2678.965098	1270.666667
2680.361728	1306.000000
2681.758115	1355.333333
2683.154260	1320.000000
2684.548579	1325.000000
2685.944241	1270.000000
2687.336494	1294.333333
2688.730089	1247.666667
2690.121860	1217.000000
2691.514974	1223.666667
2692.906264	1150.000000
2694.295731	1148.333333
2695.684958	1074.333333
2697.073946	1096.333333
2698.464275	1018.000000
2699.849621	988.000000
2701.237890	989.666667
2702.624339	942.000000
2704.010549	947.666667
2705.396520	880.333333
2706.779093	799.666667
2708.163008	881.333333
2709.546685	802.000000
2710.930123	730.000000
2712.310167	730.666667
2713.691551	719.333333
2715.071121	657.333333
2716.452031	649.333333
2717.831127	595.333333
2719.208409	651.333333
2720.587032	596.000000
2721.963842	524.666667
2723.340415	516.000000
2724.716753	503.333333
2726.091280	506.333333
2727.467147	488.333333
2728.839627	410.666667
2730.215023	429.000000
2731.585459	365.666667
2732.957236	393.333333
2734.328778	365.333333
2735.698512	357.333333
2737.069587	350.666667
2738.438853	315.666667
2739.807886	302.666667
2741.175113	335.000000
2742.542106	269.000000
2743.908867	279.333333
2745.275396	281.666667
2746.640119	304.666667
2748.004610	299.000000
2749.368870	278.000000
2750.732897	286.333333
2752.096693	250.666667
2753.457115	254.333333
2754.820447	262.666667
2756.178837	234.000000
2757.540137	238.333333
2758.898067	211.000000
2760.258905	198.000000
2761.617944	205.000000
2762.973614	226.666667
2764.332192	218.000000
2765.687403	231.000000
2767.042385	245.666667
2768.395571	209.000000
2769.751662	191.666667
2771.104390	256.333333
2772.456890	207.000000
2773.809161	226.666667
2775.162770	202.333333
2776.513019	247.000000
2777.861473	193.333333
2779.212833	188.333333
2780.560833	180.666667
2781.910171	199.000000
2783.257717	204.666667
2784.605037	219.000000
2785.952130	215.000000
2787.297432	192.000000
2788.642507	182.666667
2789.987357	216.000000
2791.331981	215.000000
2792.673253	188.333333
2794.015863	202.333333
2795.358247	199.333333
2796.700406	194.666667
2798.039216	200.333333
2799.380926	201.666667
2800.719288	195.333333
2802.058986	183.000000
2803.396900	238.333333
2804.733029	173.000000
2806.068934	168.666667
2807.406177	191.000000
2808.741636	220.000000
2810.076872	220.000000
2811.410325	187.000000
2812.745115	198.000000
2814.076565	200.333333
2815.410910	193.000000
2816.740357	205.333333
2818.071141	172.000000
2819.401703	176.333333
2820.730486	162.666667
2822.060605	182.333333
2823.388946	146.666667
2824.717066	215.000000
2826.043408	172.000000
2827.371087	168.000000
2828.695432	187.333333
2830.021114	181.333333
2831.345020	189.666667
2832.668707	156.000000
2833.993729	173.333333
2835.315421	177.666667
2836.636895	177.000000
2837.958150	165.666667
2839.279186	181.000000
2840.598449	193.333333
2841.919048	181.666667
2843.237876	155.000000
2844.556485	177.000000
2845.873323	196.666667
2847.189944	116.666667
2848.506348	181.333333
2849.820982	199.666667
2851.136952	157.000000
2852.449601	162.666667
2853.763585	169.000000
2855.077353	188.000000
2856.390904	184.000000
2857.702689	145.333333
2859.012707	198.000000
2860.324060	152.666667
2861.632098	161.333333
2862.941470	169.000000
2864.250628	174.000000
2865.559570	184.000000
2866.866748	187.000000
2868.172164	174.333333
2869.478913	156.333333
2870.783901	165.666667
2872.088675	137.333333
2873.391687	159.333333
2874.697580	160.333333
2875.998619	152.000000
2877.300992	147.000000
2878.601605	160.000000
2879.903552	182.333333
2881.205285	147.000000
2882.503715	160.000000
2883.803478	190.666667
2885.101484	158.000000
2886.399278	124.000000
2887.695316	144.666667
2888.992687	141.666667
2890.288302	168.000000
2891.583706	142.666667
2892.878899	168.000000
2894.170795	151.000000
2895.465567	137.333333
2896.757042	145.333333
2898.049850	132.333333
2899.342448	128.333333
2900.631752	142.333333
2901.922388	152.666667
2903.211273	167.333333
2904.501490	133.666667
2905.788416	168.333333
2907.076674	143.333333
2908.363183	155.000000
2909.649483	147.666667
2910.935576	148.666667
2912.219920	166.666667
2913.507135	173.000000
2914.789524	132.333333
2916.073245	174.000000
2917.355220	138.000000
2918.636987	159.333333
2919.917010	132.333333
2921.199902	149.000000
2922.481049	140.000000
2923.758914	160.666667
2925.039648	165.666667
2926.317101	149.333333
2927.594348	136.000000
2928.869853	177.666667
2930.148226	178.000000
2931.421785	177.666667
2932.698211	127.000000
2933.972896	165.000000
2935.245840	151.666667
2936.520116	154.000000
2937.792652	146.333333
2939.064983	118.666667
2940.334042	135.333333
2941.605966	152.000000
2942.876152	144.666667
2944.146134	178.000000
2945.415913	136.000000
2946.683956	136.333333
2947.950262	114.000000
2949.216367	125.000000
2950.483801	164.333333
2951.749501	141.000000
2953.014998	139.666667
2954.280293	112.000000
2955.542323	145.000000
2956.805683	148.666667
2958.068842	139.666667
2959.330269	128.333333
2960.593025	135.000000
2961.854049	140.333333
2963.113343	159.000000
2964.372437	148.333333
2965.631330	141.000000
2966.890023	157.666667
2968.148516	140.333333
2969.405280	164.333333
2970.661844	135.000000
2971.916681	149.333333
2973.172846	163.000000
2974.425757	128.333333
2975.679997	137.666667
2976.934037	148.333333
2978.186353	132.333333
2979.438469	129.000000
2980.688861	124.333333
2981.942108	144.333333
2983.190578	153.000000
2984.441903	153.666667
2985.689978	125.333333
2986.937857	111.333333
2988.185538	132.666667
2989.433022	122.000000
2990.678785	147.000000
2991.924352	158.666667
2993.171246	165.666667
2994.414896	109.333333
2995.659874	157.666667
2996.901608	94.666667
2998.146194	106.333333
2999.389061	111.666667
3000.628687	152.333333
3001.871163	155.333333
3003.110399	126.666667
3004.350963	104.000000
3005.589810	119.666667
3006.828463	130.000000
3008.065400	137.666667
3009.303665	145.333333
3010.540214	124.333333
3011.776570	147.333333
3013.012732	91.333333
3014.247180	148.333333
3015.481436	130.000000
3016.715498	134.000000
3017.947848	134.000000
3019.178486	155.333333
3020.411970	120.000000
3021.643742	114.333333
3022.873804	147.333333
3024.103673	130.333333
3025.331833	158.000000
3026.561320	162.666667
3027.789097	125.333333
3029.016683	157.000000
3030.245596	153.333333
3031.469766	150.333333
3032.696779	144.666667
3033.920568	145.333333
3035.145684	144.000000
3036.369093	109.666667
3037.592312	148.666667
3038.813826	134.333333
3040.038181	80.333333
3041.257801	144.000000
3042.478747	109.666667
3043.699504	160.666667
3044.918557	149.333333
3046.138935	124.000000
3047.356097	131.000000
3048.574585	147.666667
3049.791370	97.666667
3051.007968	113.666667
3052.224377	108.666667
3053.437574	108.000000
3054.653608	112.000000
3055.866430	147.666667
3057.082089	152.333333
3058.293025	132.333333
3059.505286	115.333333
3060.717361	134.000000
3061.929248	98.000000
3063.139439	129.666667
3064.349443	125.666667
3065.559261	118.333333
3066.767383	166.333333
3067.975320	103.333333
3069.181561	116.333333
3070.389127	103.666667
3071.594998	112.666667
3072.800685	121.666667
3074.006186	148.000000
3075.209994	109.666667
3076.415126	105.333333
3077.618565	128.000000
3078.820313	112.000000
3080.021876	90.333333
3081.223256	91.333333
3082.424452	105.000000
3083.623958	90.000000
3084.823281	105.666667
3086.023927	82.666667
3087.222883	121.000000
3088.418645	109.333333
3089.617236	124.333333
3090.812633	124.000000
3092.009353	105.000000
3093.202881	120.333333
3094.399237	108.333333
3095.593907	117.666667
3096.785385	128.000000
3097.981196	117.333333
3099.172312	86.000000
3100.364752	85.333333
3101.554004	125.333333
3102.746081	78.000000
3103.936475	108.666667
3105.123683	114.000000
3106.312213	99.666667
3107.502066	157.666667
3108.688735	128.333333
3109.875223	112.000000
3111.061533	111.666667
3112.249164	102.666667
3113.433613	154.333333
3114.616383	137.333333
3115.801975	112.333333
3116.985888	109.333333
3118.168122	130.333333
3119.350177	147.000000
3120.532054	123.666667
3121.713753	133.000000
3122.893775	113.000000
3124.072120	115.333333
3125.253285	122.333333
3126.431275	76.333333
3127.609089	148.000000
3128.786725	148.333333
3129.962686	104.666667
3131.138470	105.000000
3132.315576	110.333333
3133.491007	119.333333
3134.664765	106.333333
3135.836850	114.000000
3137.010257	101.333333
3138.183487	134.000000
3139.355046	128.333333
3140.527925	128.000000
3141.697637	112.333333
3142.868670	104.666667
3144.038033	167.000000
3145.205725	118.333333
3146.376233	124.333333
3147.542083	101.666667
3148.712241	134.000000
3149.877743	95.333333
3151.043070	122.000000
3152.208224	140.333333
3153.373205	136.000000
3154.539505	105.666667
3155.701153	130.333333
3156.864120	141.333333
3158.026915	124.000000
3159.189537	127.666667
3160.350494	110.666667
3161.511278	104.000000
3162.671890	114.000000
3163.830838	116.666667
3164.989615	106.333333
3166.148220	120.333333
3167.306652	127.000000
3168.464914	94.000000
3169.621513	127.000000
3170.776451	121.666667
3171.932708	113.000000
3173.087304	137.666667
3174.241730	131.000000
3175.394496	90.666667
3176.547091	140.333333
3177.699517	128.666667
3178.851773	119.333333
3180.003858	125.333333
3181.152798	124.000000
3182.304544	127.000000
3183.454632	158.333333
3184.603064	110.333333
3185.751326	128.000000
3186.899420	114.333333
3188.047345	113.000000
3189.193614	81.000000
3190.339715	145.000000
3191.484162	97.333333
3192.628441	94.333333
3193.772552	104.000000
3194.917980	154.666667
3196.060270	109.000000
3197.202393	106.333333
3198.344348	103.000000
3199.486136	95.333333
3200.627757	91.333333
3201.766243	118.000000
3202.906046	82.666667
3204.047167	130.000000
3205.185153	102.666667
3206.321490	138.666667
3207.457661	68.000000
3208.595149	124.333333
3209.730989	81.333333
3210.868146	98.333333
3212.000690	88.333333
3213.137516	62.000000
3214.269730	113.333333
3215.403261	102.000000
3216.536628	103.333333
3217.666867	130.666667
3218.799904	126.666667
3219.929815	101.333333
3221.061042	132.333333
3222.189145	162.333333
3223.320044	108.000000
3224.449299	121.666667
3225.576911	114.000000
3226.701400	124.333333
3227.830165	145.000000
3228.955808	142.000000
3230.081289	129.000000
3231.205128	113.333333
3232.331761	128.333333
3233.453797	141.666667
3234.577149	101.000000
3235.700339	115.666667
3236.823366	103.666667
3237.944755	158.666667
3239.065981	119.333333
3240.185570	107.666667
3241.304997	119.666667
3242.422786	110.666667
3243.543367	125.000000
3244.660835	177.333333
3245.778142	88.000000
3246.895289	125.000000
3248.010800	111.000000
3249.127625	138.000000
3250.241341	124.666667
3251.357846	103.666667
3252.472717	121.666667
3253.584479	135.333333
3254.696081	99.000000
3255.808999	115.000000
3256.921757	118.666667
3258.031409	124.000000
3259.142376	97.333333
3260.253184	86.666667
3261.362360	87.666667
3262.469906	95.666667
3263.578765	103.333333
3264.687467	115.333333
3265.793066	113.333333
3266.899979	85.333333
3268.005263	109.666667
3269.111861	97.000000
3270.215359	98.333333
3271.320172	109.333333
3272.424827	108.000000
3273.526383	98.666667
3274.627783	102.666667
3275.730497	100.000000
3276.833055	86.000000
3277.932516	104.666667
3279.034761	115.666667
3280.133910	103.333333
3281.231435	117.000000
3282.328804	91.666667
3283.428955	90.666667
3284.526014	104.000000
3285.622917	78.000000
3286.719665	123.666667
3287.811855	90.333333
3288.908293	76.333333
3290.003109	96.000000
3291.097771	104.000000
3292.190811	48.666667
3293.283696	121.000000
3294.374962	80.000000
3295.467539	159.000000
3296.558497	109.333333
3297.647835	77.000000
3298.737020	75.000000
3299.827518	99.333333
3300.914931	71.000000
3302.002191	83.333333
3303.090764	98.666667
3304.179185	100.000000
3305.263058	75.333333
3306.351173	64.666667
3307.436206	107.666667
3308.519624	59.666667
3309.604354	70.000000
3310.687468	69.666667
3311.771895	84.666667
3312.853243	107.000000
3313.935903	111.333333
3315.016949	78.333333
3316.097844	83.333333
3317.177125	107.000000
3318.256256	67.000000
3319.336699	79.000000
3320.414067	75.333333
3321.492747	85.000000
3322.569815	94.333333
3323.646734	98.666667
3324.722041	73.000000
3325.797199	82.333333
3326.873668	53.000000
3327.947067	89.666667
3329.020317	97.000000
3330.094877	100.666667
3331.167829	90.666667
3332.239172	75.666667
3333.311826	90.333333
3334.381414	88.000000
3335.452312	80.000000
3336.521603	70.333333
3337.592205	70.000000
3338.661200	125.000000
3339.728589	89.333333
3340.794373	113.666667
3341.864383	82.333333
3342.931330	93.666667
3343.995215	88.000000
3345.061868	92.000000
3346.126916	107.000000
3347.190361	79.333333
3348.253660	73.000000
3349.316812	82.000000
3350.379818	85.333333
3351.442678	82.666667
3352.503936	51.666667
3353.562137	93.000000
3354.624558	66.666667
3355.683924	95.333333
3356.743144	108.666667
3357.803673	85.333333
3358.859694	82.666667
3359.918478	81.333333
3360.972755	75.000000
3362.029796	102.333333
3363.085238	92.666667
3364.141990	80.333333
3365.197143	97.666667
3366.250699	92.333333
3367.302659	41.333333
3368.357380	68.333333
3369.409052	71.666667
3370.460581	102.666667
3371.513418	87.333333
3372.563208	85.000000
3373.614307	67.666667
3374.662360	87.666667
3375.713172	91.333333
3376.760940	90.333333
3377.808565	85.666667
3378.856047	69.000000
3379.901937	63.333333
3380.949135	94.000000
3381.993291	72.333333
3383.040205	84.000000
3384.085527	86.000000
3385.127808	70.333333
3386.169949	66.333333
3387.213397	107.333333
3388.256704	59.000000
3389.298422	69.000000
3390.339998	70.666667
3391.381433	90.666667
3392.421280	61.000000
3393.459538	94.666667
3394.499104	98.666667
3395.538530	101.333333
3396.576368	88.666667
3397.612619	121.000000
3398.648731	81.333333
3399.686150	86.666667
3400.720536	51.666667
3401.756229	107.000000
3402.791783	64.666667
3403.824306	100.333333
3404.859582	70.333333
3405.891827	100.666667
3406.923934	85.666667
3407.954457	72.666667
3408.986287	71.333333
3410.017979	98.000000
3411.046643	79.666667
3412.075170	60.666667
3413.105003	78.333333
3414.134699	94.333333
3415.161369	93.000000
3416.189346	71.333333
3417.214298	49.666667
3418.242000	53.666667
3419.266679	82.333333
3420.292664	105.000000
3421.317069	71.000000
3422.341338	96.000000
3423.364028	67.000000
3424.386582	87.000000
3425.410442	93.666667
3426.431282	80.000000
3427.451986	107.000000
3428.473997	59.333333
3429.492989	66.333333
3430.511845	84.333333
3431.532008	52.333333
3432.549154	71.666667
