-116.707459	12.333333
-114.037859	16.333333
-111.371194	26.333333
-108.705281	19.666667
-106.042300	15.000000
-103.377890	12.666667
-100.716410	9.000000
-98.053501	14.000000
-95.395698	12.000000
-92.736466	11.666667
-90.077982	-10.000000
-87.422422	-34.000000
-84.765434	-2.000000
-82.113544	20.000000
-79.460224	0.666667
-76.809823	0.333333
-74.157993	42.666667
-71.511254	2.000000
-68.863086	-0.333333
-66.215660	-10.000000
-63.571148	29.666667
-60.925208	7.000000
-58.284349	12.000000
-55.642061	15.333333
-53.002682	4.333333
-50.361873	8.333333
-47.721805	14.000000
-45.086809	18.000000
-42.450385	-8.666667
-39.816863	24.000000
-37.181913	-3.333333
-34.552028	28.333333
-31.918551	38.000000
-29.290136	15.666667
-26.662455	25.666667
-24.033345	35.000000
-21.409292	56.000000
-18.781650	61.333333
-16.159061	66.000000
-13.537204	57.000000
-10.916077	113.333333
-8.295680	345.666667
-5.678172	1164.333333
-3.059235	3727.666667
-0.443183	9258.000000
2.172140	17764.666667
4.786736	10808.666667
7.398449	1156.000000
10.011591	142.000000
12.619699	82.666667
15.231389	47.000000
17.838048	73.000000
20.446135	43.333333
23.053498	53.333333
25.655836	6.666667
28.261752	4.000000
30.862646	8.000000
33.464968	42.666667
36.062273	19.666667
38.663153	18.000000
41.259018	29.000000
43.856312	0.000000
46.452886	44.666667
49.044451	23.333333
51.637444	24.666667
54.227576	13.333333
56.819136	-14.333333
59.407836	12.000000
61.997963	30.333333
64.583091	43.666667
67.169647	37.333333
69.755489	9.000000
72.338477	16.333333
74.922891	39.333333
77.500177	32.666667
80.081029	14.666667
82.659032	-23.000000
85.236325	6.333333
87.815044	26.000000
90.388781	27.666667
92.963946	10.333333
95.536267	26.333333
98.107880	-2.333333
100.676653	11.333333
103.246853	16.000000
105.814215	-4.666667
108.383002	-2.666667
110.948953	26.333333
113.512069	24.333333
116.078741	31.000000
118.636192	3.000000
121.199328	33.000000
123.757504	51.333333
126.319235	75.666667
128.876009	90.666667
131.434210	110.333333
133.987457	157.666667
136.540007	266.666667
139.096107	373.666667
141.647259	482.666667
144.197714	618.666667
146.747471	610.333333
149.294409	713.333333
151.840652	744.666667
154.388320	806.666667
156.935292	766.666667
159.477329	737.666667
162.018672	770.666667
164.559322	779.333333
167.101398	773.333333
169.640662	783.000000
172.177118	756.000000
174.712882	775.333333
177.250072	766.333333
179.786571	787.666667
182.320264	735.666667
184.851153	744.333333
187.381355	694.000000
189.912981	730.666667
192.441806	662.333333
194.967832	752.666667
197.493172	727.333333
200.019937	720.000000
202.543906	728.333333
205.067190	694.000000
207.589789	735.000000
210.109595	742.333333
212.628718	756.333333
215.147158	745.666667
217.667022	720.333333
220.179885	762.000000
222.696279	735.333333
225.211991	722.333333
227.722813	745.000000
230.235060	766.000000
232.744525	755.666667
235.253311	766.333333
237.761418	788.666667
240.270950	815.333333
242.775601	777.333333
245.279576	801.000000
247.784975	849.666667
250.285499	766.666667
252.789547	775.666667
255.286623	786.333333
257.787223	808.666667
260.285051	812.000000
262.782206	792.000000
265.278688	772.666667
267.770307	764.000000
270.265446	768.666667
272.757818	768.333333
275.249520	787.000000
277.738459	813.333333
280.228822	816.000000
282.716422	821.333333
285.201263	836.666667
287.689619	807.666667
290.171035	844.666667
292.655965	833.000000
295.136050	870.333333
297.619647	886.000000
300.098401	881.666667
302.578579	902.666667
305.056004	928.000000
307.532766	899.000000
310.008865	856.000000
312.482215	862.333333
314.954903	871.000000
317.426930	848.666667
319.898296	859.333333
322.366917	891.000000
324.834880	926.000000
327.304264	866.666667
329.768826	858.333333
332.236892	757.000000
334.700138	810.333333
337.162726	752.666667
339.624658	786.000000
342.085933	724.666667
344.544474	711.333333
347.004437	760.666667
349.461667	724.000000
351.918243	727.666667
354.374165	676.000000
356.827357	695.333333
359.281972	726.666667
361.731785	711.000000
364.185094	718.666667
366.633605	696.666667
369.081464	710.000000
371.530746	679.000000
373.975234	681.666667
376.421144	661.000000
378.866404	669.333333
381.308946	647.666667
383.750840	633.333333
386.192087	651.333333
388.630618	596.333333
391.070571	621.333333
393.507810	667.666667
395.942337	645.333333
398.380352	634.000000
400.813590	593.000000
403.248249	587.333333
405.678136	639.333333
408.111508	615.333333
410.540110	609.000000
412.968070	618.333333
415.397452	586.000000
417.822068	568.666667
420.248106	589.666667
422.673503	608.333333
425.098260	618.666667
427.518259	616.333333
429.939679	587.333333
432.358402	615.000000
434.778546	589.666667
437.195995	589.000000
439.614864	573.666667
442.031040	523.333333
444.442468	565.666667
446.857374	536.333333
449.269589	517.333333
451.681170	484.000000
454.092117	539.666667
456.500378	513.333333
458.908006	492.333333
461.315002	477.666667
463.721367	470.666667
466.125049	459.000000
468.528101	475.000000
470.930523	503.666667
473.332315	461.666667
475.731430	444.333333
478.131964	454.333333
480.531869	504.666667
482.927051	534.000000
485.325700	524.333333
487.719629	534.333333
490.112932	552.333333
492.505609	556.333333
494.897661	597.666667
497.291131	629.000000
499.679889	728.666667
502.065981	829.000000
504.453493	991.666667
506.840382	1334.333333
509.224607	1820.000000
511.610250	2566.666667
513.993232	3676.000000
516.373553	5073.000000
518.755293	5966.000000
521.134374	5998.333333
523.514874	5583.000000
525.892716	4533.000000
528.267903	3707.333333
530.642472	3074.333333
533.018459	2610.333333
535.391794	2226.666667
537.766546	1939.333333
540.136613	1750.666667
542.506064	1621.000000
544.876933	1456.333333
547.243122	1377.333333
549.610729	1275.666667
551.975690	1201.000000
554.340038	1113.000000
556.703773	1060.000000
559.068926	990.000000
561.429407	983.000000
563.791306	958.000000
566.150564	881.666667
568.507185	899.333333
570.867250	854.000000
573.220624	838.000000
575.577443	864.000000
577.931627	786.666667
580.285202	780.333333
582.638170	805.000000
584.988505	791.333333
587.340258	718.333333
589.685334	707.000000
592.035874	707.333333
594.379740	675.000000
596.729068	660.000000
599.073747	661.333333
601.415802	649.000000
603.759274	658.000000
606.100123	676.666667
608.440370	680.333333
610.777996	702.000000
613.119057	704.000000
615.455480	751.666667
617.793320	723.000000
620.128543	770.000000
622.461150	722.000000
624.795173	692.000000
627.126582	671.333333
629.457393	611.666667
631.787607	592.333333
634.117222	612.666667
636.442214	647.333333
638.772648	571.000000
641.098461	612.000000
643.421666	579.666667
645.746288	595.333333
648.068304	522.000000
650.389726	569.333333
652.708546	581.000000
655.028781	569.333333
657.348423	530.333333
659.665464	568.000000
661.981913	569.666667
664.295764	554.666667
666.611031	529.000000
668.923701	508.333333
671.237786	557.666667
673.547271	546.333333
675.858172	529.333333
678.166480	531.333333
680.474200	527.333333
682.783334	538.333333
685.087876	521.000000
687.391832	517.000000
689.695202	518.333333
691.999986	470.666667
694.300184	498.000000
696.601796	499.666667
698.902823	462.333333
701.199269	445.666667
703.497130	414.666667
705.794407	486.000000
708.091101	464.000000
710.383219	449.666667
712.678748	440.000000
714.969703	449.000000
717.262073	454.666667
719.551868	406.666667
721.841082	449.333333
724.129717	474.000000
726.415779	445.333333
728.703256	441.666667
730.988161	460.000000
733.272489	443.666667
735.554248	458.000000
737.837421	415.666667
740.120017	469.666667
742.398057	457.000000
744.677512	448.666667
746.956390	446.666667
749.234694	468.000000
751.508448	442.333333
753.783615	466.666667
756.058209	437.666667
758.330244	454.000000
760.603692	451.666667
762.874582	435.666667
765.142916	412.333333
767.412663	421.333333
769.679856	428.000000
771.946478	433.333333
774.212530	427.333333
776.476031	415.666667
778.740945	425.666667
781.005289	427.666667
783.265104	448.333333
785.526331	428.000000
787.786991	417.000000
790.045105	378.333333
792.300674	435.666667
794.559634	422.666667
796.812095	409.000000
799.069922	444.000000
801.323231	449.666667
803.574000	445.000000
805.826181	442.333333
808.075823	416.666667
810.326878	457.666667
812.573421	410.333333
814.821376	425.000000
817.066797	441.333333
819.313629	435.666667
821.559900	426.666667
823.801666	418.666667
826.046816	426.000000
828.285493	391.000000
830.527552	422.000000
832.765113	384.000000
835.004086	404.666667
837.240532	412.000000
839.478389	422.333333
841.713721	395.666667
843.946530	410.666667
846.180750	444.666667
848.412447	442.666667
850.643590	419.000000
852.874178	436.333333
855.104212	439.000000
857.333692	417.333333
859.558690	406.666667
861.787063	403.666667
864.010956	379.666667
866.236261	396.666667
868.457090	410.000000
870.681291	391.333333
872.901019	425.333333
875.122157	374.000000
877.342745	356.333333
879.560824	377.666667
881.780312	382.000000
883.995334	406.000000
886.209808	393.333333
888.423735	396.000000
890.637115	407.666667
892.849947	415.666667
895.062233	400.333333
897.272016	412.666667
899.481254	368.333333
901.689947	410.666667
903.896141	421.666667
906.103744	384.000000
908.308849	402.333333
910.513411	409.666667
912.715478	416.333333
914.918954	434.333333
917.119936	425.000000
919.320376	483.333333
921.522225	478.666667
923.717683	469.000000
925.916500	505.666667
928.110878	527.333333
930.308614	572.000000
932.501914	670.666667
934.696623	657.000000
936.888846	813.666667
939.080530	830.333333
941.271677	858.666667
943.460341	936.333333
945.648469	893.333333
947.834116	871.333333
950.023115	858.000000
952.207691	849.666667
954.391732	902.000000
956.579123	860.333333
958.758210	850.333333
960.940648	917.000000
963.122552	853.666667
965.301981	934.666667
967.478938	958.666667
969.657303	949.000000
971.837075	954.333333
974.010498	965.666667
976.187267	918.333333
978.359629	897.000000
980.533399	883.333333
982.702765	844.333333
984.875475	876.000000
987.045720	823.666667
989.215436	777.333333
991.384623	709.333333
993.549413	613.333333
995.717544	665.333333
997.881281	582.000000
1000.046424	579.666667
1002.209108	544.333333
1004.371267	541.666667
1006.530969	552.333333
1008.690146	541.000000
1010.850730	483.666667
1013.008859	492.333333
1015.166465	503.333333
1017.323547	469.333333
1019.480105	455.333333
1021.632284	432.333333
1023.785870	444.333333
1025.938934	378.666667
1028.089549	455.333333
1030.241571	384.666667
1032.389219	396.666667
1034.540199	402.333333
1036.686808	445.333333
1038.832898	426.666667
1040.978470	405.333333
1043.125447	454.000000
1045.266135	381.666667
1047.410153	376.333333
1049.551730	406.000000
1051.692791	423.000000
1053.835256	428.333333
1055.971442	409.333333
1058.110953	415.666667
1060.246110	401.333333
1062.384591	429.333333
1064.518718	414.333333
1066.652332	421.333333
1068.787351	404.333333
1070.918020	404.000000
1073.050094	401.333333
1075.179739	393.333333
1077.308872	415.000000
1079.437493	387.000000
1081.565603	373.000000
1083.691287	406.333333
1085.816461	382.000000
1087.943039	386.000000
1090.065279	344.000000
1092.188924	378.000000
1094.308234	384.333333
1096.432774	442.333333
1098.551068	432.000000
1100.670767	365.000000
1102.788047	393.333333
1104.904821	329.666667
1107.021088	373.000000
1109.134939	418.333333
1111.250195	360.666667
1113.361127	353.000000
1115.475372	359.666667
1117.585296	330.666667
1119.696624	374.666667
1121.807447	357.333333
1123.913954	384.333333
1126.023771	384.000000
1128.129273	356.333333
1130.236178	362.333333
1132.336868	335.000000
1134.442770	391.333333
1136.544363	361.000000
1138.647359	357.666667
1140.749854	331.666667
1142.846142	346.000000
1144.947637	350.000000
1147.044830	348.333333
1149.141525	331.000000
1151.237721	343.333333
1153.333420	353.333333
1155.428620	354.000000
1157.521424	328.333333
1159.615631	329.000000
1161.703646	351.333333
1163.796859	362.333333
1165.883884	347.666667
1167.974208	346.000000
1170.060244	345.000000
1172.149579	359.000000
1174.232732	363.000000
1176.317287	373.666667
1178.403244	363.000000
1180.484919	390.000000
1182.567996	318.666667
1184.648687	328.333333
1186.728886	323.666667
1188.808594	352.000000
1190.887811	378.333333
1192.964646	354.333333
1195.039100	357.666667
1197.116845	371.666667
1199.190321	347.000000
1201.265197	340.000000
1203.335806	383.000000
1205.407816	309.333333
1207.477451	330.000000
1209.548486	345.000000
1211.619033	382.666667
1213.685319	315.666667
1215.753006	349.333333
1217.818321	285.666667
1219.885036	323.000000
1221.947495	337.000000
1224.013239	282.000000
1226.074729	367.333333
1228.137620	335.666667
1230.198143	378.333333
1232.258182	336.333333
1234.317739	305.666667
1236.374930	385.333333
1238.431640	333.666667
1240.485986	347.666667
1242.543614	369.666667
1244.598879	375.333333
1246.649903	359.333333
1248.702327	316.000000
1250.754271	352.666667
1252.803857	360.000000
1254.852964	393.000000
1256.901593	379.333333
1258.949743	364.666667
1260.997414	371.000000
1263.040855	378.000000
1265.087572	350.000000
1267.131935	370.000000
1269.175822	389.000000
1271.217357	341.333333
1273.256543	382.000000
1275.299002	380.000000
1277.337238	376.333333
1279.376873	391.000000
1281.416033	391.666667
1283.450974	391.000000
1285.487314	374.000000
1287.521310	328.000000
1289.556703	382.333333
1291.587884	382.000000
1293.620462	368.333333
1295.652569	384.333333
1297.682335	354.000000
1299.713498	366.666667
1301.740455	343.333333
1303.768809	344.333333
1305.792958	358.666667
1307.820373	391.000000
1309.843585	334.666667
1311.868195	362.666667
1313.890471	337.000000
1315.914144	365.000000
1317.935484	354.666667
1319.956356	366.666667
1321.976761	363.666667
1323.992973	346.666667
1326.010582	371.666667
1328.025863	350.333333
1330.044403	386.333333
1332.058754	373.333333
1334.070779	379.333333
1336.086061	355.666667
1338.097158	385.000000
1340.109652	395.666667
1342.117963	345.333333
1344.129529	372.000000
1346.135057	387.000000
1348.143840	365.333333
1350.148445	388.666667
1352.156304	352.666667
1354.163701	371.666667
1356.165067	389.000000
1358.167829	434.000000
1360.170132	409.333333
1362.171975	366.666667
1364.173358	356.000000
1366.172428	417.333333
1368.171039	405.000000
1370.169192	348.333333
1372.166886	423.666667
1374.160418	383.666667
1376.155345	380.000000
1378.149816	385.666667
1380.143830	366.333333
1382.135537	341.666667
1384.126789	390.000000
1386.115735	345.000000
1388.106076	367.333333
1390.095962	341.333333
1392.083544	347.000000
1394.070673	349.333333
1396.055500	345.333333
1398.041722	321.666667
1400.025644	369.333333
1402.009113	333.333333
1403.992129	358.000000
1405.972848	383.666667
1407.954961	343.000000
1409.934778	359.333333
1411.914143	338.666667
1413.889370	338.333333
1415.867835	322.666667
1417.844007	354.000000
1419.819730	337.333333
1421.795003	347.333333
1423.767985	357.000000
1425.740519	363.000000
1427.712605	344.666667
1429.684244	353.333333
1431.651754	338.000000
1433.624338	343.333333
1435.589116	375.000000
1437.558967	350.666667
1439.524694	366.333333
1441.491813	370.000000
1443.456649	358.333333
1445.417365	346.666667
1447.383149	395.333333
1449.342978	405.000000
1451.304201	376.666667
1453.266816	400.000000
1455.225316	357.333333
1457.183373	432.000000
1459.140989	391.666667
1461.098162	366.000000
1463.053060	356.000000
1465.009351	388.666667
1466.963367	388.666667
1468.916942	367.666667
1470.868245	364.333333
1472.820941	387.000000
1474.771364	424.000000
1476.721349	338.666667
1478.670895	355.333333
1480.618172	376.666667
1482.563181	322.000000
1484.509583	357.666667
1486.455547	388.666667
1488.401074	375.000000
1490.344335	385.666667
1492.287161	378.000000
1494.227723	365.666667
1496.169676	392.666667
1498.109367	369.333333
1500.048624	423.333333
1501.987445	418.666667
1503.924007	382.666667
1505.861960	408.333333
1507.797654	393.000000
1509.732915	394.333333
1511.665920	431.666667
1513.598492	411.333333
1515.530632	422.333333
1517.462340	393.333333
1519.391794	414.333333
1521.322639	419.333333
1523.253052	446.000000
1525.179393	465.666667
1527.107125	468.333333
1529.032606	418.333333
1530.957658	454.333333
1532.882281	433.000000
1534.806475	470.666667
1536.728421	453.666667
1538.651758	446.333333
1540.572848	457.666667
1542.491694	461.666667
1544.411930	485.666667
1546.329923	487.333333
1548.247489	525.333333
1550.162813	551.000000
1552.079527	546.000000
1553.992186	584.000000
1555.908049	616.666667
1557.821672	638.666667
1559.733057	694.000000
1561.645832	687.666667
1563.554557	811.333333
1565.464671	944.666667
1567.374362	1041.000000
1569.283630	1179.666667
1571.190664	1403.333333
1573.095465	1694.666667
1575.001655	1911.666667
1576.905613	2215.666667
1578.809150	2575.000000
1580.712267	2779.333333
1582.613154	2979.333333
1584.515430	3076.666667
1586.415478	2998.333333
1588.316913	2800.333333
1590.214315	2552.000000
1592.111298	2272.666667
1594.007863	1933.666667
1595.905816	1737.333333
1597.797934	1472.000000
1599.693245	1223.333333
1601.588139	1030.333333
1603.480811	932.333333
1605.373066	829.666667
1607.263102	701.333333
1609.152722	661.000000
1611.041927	566.333333
1612.930717	570.333333
1614.817289	495.000000
1616.705249	515.666667
1618.589192	513.666667
1620.474522	504.666667
1622.359439	476.333333
1624.242142	470.666667
1626.126232	432.333333
1628.006310	426.000000
1629.887776	410.333333
1631.767031	385.666667
1633.647672	373.666667
1635.522509	331.666667
1637.402327	382.000000
1639.278141	371.666667
1641.153544	372.333333
1643.030333	340.666667
1644.901326	338.333333
1646.775500	365.333333
1648.645675	341.666667
1650.519032	319.000000
1652.390184	288.666667
1654.259136	305.333333
1656.129472	324.000000
1657.995816	304.333333
1659.863545	298.000000
1661.729075	276.000000
1663.595991	330.000000
1665.458918	292.000000
1667.323230	319.666667
1669.185346	314.666667
1671.047057	320.333333
1672.910154	281.000000
1674.771055	236.333333
1676.629764	271.000000
1678.488069	319.000000
1680.347759	239.666667
1682.201681	269.333333
1684.058777	281.666667
1685.915470	228.666667
1687.768186	275.333333
1689.624074	247.666667
1691.475988	257.666667
1693.327501	265.333333
1695.178613	263.333333
1697.029325	318.333333
1698.879635	276.000000
1700.727762	257.333333
1702.577273	249.666667
1704.421035	255.000000
1706.269746	241.000000
1708.112711	250.333333
1709.958843	236.333333
1711.801012	263.000000
1713.646347	236.333333
1715.485941	230.333333
1717.326919	227.000000
1719.169280	236.000000
1721.007685	232.333333
1722.847473	237.666667
1724.685086	273.000000
1726.522303	235.666667
1728.357347	228.333333
1730.193774	253.333333
1732.028029	224.666667
1733.861889	225.333333
1735.695355	228.666667
1737.524876	242.000000
1739.357555	233.666667
1741.186290	248.000000
1743.018182	254.333333
1744.846132	212.333333
1746.673691	216.666667
1748.500857	252.000000
1750.327632	239.000000
1752.154015	214.000000
1753.976462	225.000000
1755.802064	222.666667
1757.623731	223.000000
1759.446780	237.666667
1761.267667	238.333333
1763.088166	227.333333
1764.910045	239.333333
1766.726226	214.666667
1768.545558	227.666667
1770.360963	260.333333
1772.179518	223.333333
1773.994148	245.000000
1775.808391	243.000000
1777.622248	216.666667
1779.435718	233.333333
1781.247035	232.000000
1783.059732	236.000000
1784.872044	184.666667
1786.680438	211.000000
1788.490212	203.666667
1790.296072	225.000000
1792.105077	226.000000
1793.910169	256.000000
1795.716642	219.666667
1797.522731	238.666667
1799.324909	245.333333
1801.130232	235.333333
1802.931646	205.000000
1804.734440	232.000000
1806.533328	223.000000
1808.333597	208.666667
1810.133484	247.666667
1811.931229	217.666667
1813.728594	222.666667
1815.525579	225.000000
1817.322183	233.333333
1819.116648	218.000000
1820.912492	231.666667
1822.702681	232.333333
1824.497767	224.000000
1826.287201	240.666667
1828.079771	218.333333
1829.870206	202.666667
1831.658507	205.000000
1833.449943	253.333333
1835.235733	201.333333
1837.022903	215.000000
1838.807941	224.000000
1840.596113	228.666667
1842.380399	221.666667
1844.162555	245.000000
1845.946091	236.333333
1847.727498	214.666667
1849.510284	241.000000
1851.289189	240.333333
1853.069474	248.000000
1854.847632	218.333333
1856.627169	245.000000
1858.404581	219.666667
1860.179869	236.000000
1861.956535	240.666667
1863.731079	225.333333
1865.507001	240.666667
1867.277302	244.000000
1869.050731	238.333333
1870.822040	244.333333
1872.592978	204.666667
1874.365294	262.666667
1876.131996	225.000000
1877.901824	215.333333
1879.667788	224.333333
1881.436875	240.000000
1883.202101	226.000000
1884.966959	204.333333
1886.733194	242.666667
1888.495570	249.333333
1890.257579	199.666667
1892.019220	219.333333
1893.780495	266.333333
1895.541402	253.333333
1897.301943	246.666667
1899.060374	227.666667
1900.818439	215.333333
1902.574397	215.000000
1904.331731	253.000000
1906.088700	174.666667
1907.843562	203.333333
1909.596320	227.666667
1911.348713	225.666667
1913.102483	215.000000
1914.854149	231.000000
1916.603713	206.666667
1918.354652	198.000000
1920.105229	190.333333
1921.851966	212.333333
1923.600080	197.333333
1925.346094	185.000000
1927.093483	213.333333
1928.838775	191.000000
1930.581969	213.333333
1932.326538	201.333333
1934.069012	215.666667
1935.811125	219.666667
1937.552878	220.666667
1939.294271	209.666667
1941.033571	213.666667
1942.772512	177.666667
1944.511094	178.666667
1946.247585	216.666667
1947.983718	226.666667
1949.721225	236.666667
1951.454910	203.000000
1953.189970	193.000000
1954.922941	220.333333
1956.655556	208.000000
1958.387815	224.666667
1960.119717	234.000000
1961.849533	214.666667
1963.577264	208.333333
1965.306370	217.000000
1967.035121	180.666667
1968.761788	159.666667
1970.488101	220.333333
1972.215787	194.666667
1973.937937	188.000000
1975.663188	230.000000
1977.384632	217.000000
1979.109177	168.000000
1980.831641	233.333333
1982.550303	219.000000
1984.272063	224.666667
1985.990021	191.666667
1987.709352	208.333333
1989.424884	245.000000
1991.145236	190.000000
1992.861790	233.000000
1994.574547	222.000000
1996.290400	254.333333
1998.004181	182.000000
1999.717612	208.000000
2001.428972	194.666667
2003.141704	202.333333
2004.850646	227.666667
2006.562680	232.666667
2008.269206	223.666667
2009.978823	238.666667
2011.686374	210.000000
2013.393576	255.000000
2015.098713	194.666667
2016.803504	222.666667
2018.509666	197.666667
2020.212046	226.000000
2021.915797	209.666667
2023.617486	193.666667
2025.318830	201.666667
2027.019828	226.333333
2028.718765	222.666667
2030.419074	224.000000
2032.115608	206.000000
2033.813513	197.000000
2035.509359	206.000000
2037.208291	196.666667
2038.901737	174.666667
2040.596554	195.000000
2042.291029	221.333333
2043.981735	224.000000
2045.675525	235.000000
2047.365548	189.666667
2049.056942	193.000000
2050.746283	233.333333
2052.436994	214.333333
2054.123942	190.666667
2055.810551	207.666667
2057.498529	195.333333
2059.182748	172.000000
2060.868338	208.666667
2062.553588	190.666667
2064.236789	236.000000
2065.921361	184.666667
2067.600470	212.333333
2069.284364	211.333333
2070.962797	225.666667
2072.644308	199.666667
2074.322067	217.333333
2075.999490	194.666667
2077.678282	169.000000
2079.355032	159.000000
2081.029740	219.333333
2082.705817	218.333333
2084.379853	189.000000
2086.053555	208.000000
2087.726921	212.333333
2089.398248	177.666667
2091.069241	191.000000
2092.739900	190.000000
2094.410225	174.333333
2096.080216	201.666667
2097.748171	211.000000
2099.415793	199.000000
2101.081380	192.666667
2102.748336	221.000000
2104.413259	183.000000
2106.077850	208.333333
2107.740409	217.000000
2109.404336	240.333333
2111.066232	210.000000
2112.727798	204.666667
2114.389032	200.000000
2116.048238	202.666667
2117.707113	209.333333
2119.365659	184.333333
2121.023874	169.333333
2122.678367	209.666667
2124.335924	195.333333
2125.993152	169.666667
2127.646658	195.000000
2129.301532	194.000000
2130.952687	178.000000
2132.606905	203.000000
2134.257406	171.666667
2135.909273	195.000000
2137.555732	175.666667
2139.206946	214.333333
2140.854446	238.666667
2142.503313	187.333333
2144.150161	215.333333
2145.796684	203.000000
2147.442881	190.333333
2149.085370	209.333333
2150.730917	192.333333
2152.372757	157.000000
2154.017654	160.000000
2155.658845	194.666667
2157.299714	194.000000
2158.940258	210.666667
2160.578790	179.000000
2162.218688	213.333333
2163.854886	190.666667
2165.492450	191.666667
2167.129692	168.333333
2168.764924	225.000000
2170.399835	171.000000
2172.034423	218.666667
2173.668691	213.333333
2175.299265	183.000000
2176.932891	181.666667
2178.562825	206.000000
2180.194124	169.000000
2181.823418	163.333333
2183.452393	205.666667
2185.081048	216.333333
2186.709384	208.000000
2188.335718	191.000000
2189.961733	182.666667
2191.585746	155.333333
2193.211125	216.333333
2194.834503	203.666667
2196.459246	211.666667
2198.080308	213.666667
2199.701053	180.000000
2201.323163	201.666667
2202.943275	205.000000
2204.561390	212.666667
2206.179190	219.333333
2207.796675	205.333333
2209.413844	203.000000
2211.030698	190.333333
2212.647236	207.666667
2214.261782	172.333333
2215.874335	182.000000
2217.488252	206.666667
2219.100178	201.666667
2220.713467	209.666667
2222.324766	194.000000
2223.934075	199.000000
2225.544748	196.333333
2227.153432	193.666667
2228.761803	229.333333
2230.368188	156.666667
2231.975936	196.333333
2233.581697	157.666667
2235.187147	200.333333
2236.790612	177.666667
2238.395440	170.000000
2239.998284	199.000000
2241.599145	192.333333
2243.201369	192.000000
2244.801611	197.666667
2246.403215	180.666667
2248.001166	231.000000
2249.600480	202.333333
2251.197814	198.333333
2252.794840	190.666667
2254.393228	219.333333
2255.987967	230.000000
2257.580729	148.666667
2259.174854	175.000000
2260.770340	196.666667
2262.362181	188.666667
2263.953716	201.666667
2265.546613	168.000000
2267.134200	197.333333
2268.726483	206.666667
2270.313460	178.333333
2271.903464	174.333333
2273.488164	211.000000
2275.077558	219.000000
2276.661650	216.666667
2278.247102	198.333333
2279.830586	192.666667
2281.417095	201.333333
2282.999971	189.666667
2284.582544	194.333333
2286.164813	178.333333
2287.743452	204.000000
2289.325116	213.000000
2290.903151	195.333333
2292.484209	195.333333
2294.061640	182.333333
2295.637108	169.333333
2297.215598	153.666667
2298.790464	216.666667
2300.365029	168.333333
2301.939294	179.333333
2303.513258	204.000000
2305.086921	165.000000
2306.660285	202.666667
2308.230030	196.333333
2309.799476	196.333333
2311.371940	190.333333
2312.939130	203.000000
2314.509338	191.000000
2316.075931	197.666667
2317.643884	204.666667
2319.209881	180.666667
2320.775581	187.666667
2322.340983	186.666667
2323.904432	226.000000
2325.469240	198.000000
2327.030440	144.666667
2328.594654	181.333333
2330.153606	188.666667
2331.715573	182.000000
2333.275588	181.333333
2334.835309	188.666667
2336.393080	173.000000
2337.950556	207.000000
2339.507738	164.000000
2341.062972	174.333333
2342.617913	217.666667
2344.172559	215.666667
2345.726912	167.000000
2347.280972	158.333333
2348.834737	172.666667
2350.386558	203.000000
2351.936437	195.666667
2353.489323	177.333333
2355.036966	172.000000
2356.587618	212.333333
2358.134678	169.333333
2359.683096	179.333333
2361.231223	212.000000
2362.775761	210.333333
2364.321657	204.000000
2365.865615	197.666667
2367.410930	202.000000
2368.952660	193.000000
2370.495747	199.000000
2372.036898	200.000000
2373.577760	206.666667
2375.118333	160.333333
2376.658617	200.000000
2378.198612	172.666667
2379.735029	198.000000
2381.274447	159.000000
2382.810287	192.333333
2384.347485	203.000000
2385.881107	209.333333
2387.417729	201.000000
2388.952421	192.333333
2390.485183	187.000000
2392.017658	185.333333
2393.548205	189.666667
2395.081750	165.666667
2396.610084	181.333333
2398.139774	162.666667
2399.669179	182.000000
2401.198299	203.000000
2402.727134	200.666667
2404.250763	204.000000
2405.779028	219.000000
2407.302091	158.333333
2408.829787	185.666667
2410.350644	196.000000
2411.876134	196.333333
2413.398063	207.666667
2414.921348	210.666667
2416.442711	179.666667
2417.962155	168.666667
2419.482954	215.000000
2421.001835	204.333333
2422.520433	198.666667
2424.037114	242.666667
2425.555149	218.333333
2427.072903	185.666667
2428.587106	206.000000
2430.101028	216.333333
2431.614670	229.000000
2433.129667	201.333333
2434.641115	191.666667
2436.153918	221.000000
2437.664807	221.333333
2439.175418	197.000000
2440.684117	247.000000
2442.195802	227.333333
2443.703944	257.666667
2445.211808	230.333333
2446.719394	270.666667
2448.223439	228.333333
2449.730469	245.333333
2451.235591	278.000000
2452.740436	298.333333
2454.243374	247.666667
2455.746036	272.666667
2457.248421	244.666667
2458.748901	272.666667
2460.250734	256.666667
2461.750662	234.666667
2463.250315	237.000000
2464.749693	273.333333
2466.247168	255.666667
2467.742741	254.666667
2469.241294	227.000000
2470.736319	208.666667
2472.232696	221.000000
2473.725547	206.000000
2475.219751	197.666667
2476.713681	204.666667
2478.204087	252.333333
2479.697471	211.333333
2481.188957	241.666667
2482.678546	219.666667
2484.167863	203.666667
2485.655284	193.333333
2487.145681	186.666667
2488.632560	218.000000
2490.120790	220.666667
2491.605503	207.666667
2493.089947	199.666667
2494.575741	185.333333
2496.059644	209.333333
2497.544897	210.666667
2499.025017	221.333333
2500.508110	207.666667
2501.989312	206.666667
2503.470245	173.000000
2504.949289	188.000000
2506.428064	233.000000
2507.906571	202.666667
2509.384810	205.000000
2510.862780	178.666667
2512.337245	212.333333
2513.814680	214.000000
2515.288611	218.000000
2516.763892	234.000000
2518.238906	231.000000
2519.710419	166.000000
2521.183283	197.000000
2522.654264	195.000000
2524.126595	207.000000
2525.593812	206.000000
2527.063996	168.666667
2528.532299	216.666667
2530.000337	171.666667
2531.468110	220.333333
2532.935618	197.666667
2534.402861	205.000000
2535.866612	193.666667
2537.331713	201.333333
2538.794937	191.000000
2540.259510	184.666667
2541.720595	222.333333
2543.183029	225.333333
2544.645200	173.666667
2546.103885	216.000000
2547.567141	204.000000
2549.025302	216.000000
2550.484811	174.333333
2551.939226	168.333333
2553.398212	198.333333
2554.855326	181.000000
2556.310569	205.000000
2557.765550	195.333333
2559.218663	194.333333
2560.673124	200.666667
2562.125715	215.666667
2563.578047	204.666667
2565.028512	209.000000
2566.481932	189.000000
2567.930270	207.333333
2569.381563	198.666667
2570.830991	228.666667
2572.276946	204.666667
2573.725856	223.000000
2575.171296	202.000000
2576.618083	234.333333
2578.063008	234.000000
2579.507674	248.000000
2580.953688	192.666667
2582.396236	221.000000
2583.840131	191.333333
2585.280561	177.000000
2586.722338	227.000000
2588.162256	225.333333
2589.603521	228.666667
2591.041324	225.333333
2592.482077	218.000000
2593.917768	203.000000
2595.356408	223.333333
2596.793190	220.333333
2598.228117	198.333333
2599.665991	222.000000
2601.098808	213.333333
2602.532972	227.000000
2603.965282	180.333333
2605.398938	235.666667
2606.830741	223.666667
2608.262290	235.666667
2609.693587	245.333333
2611.123031	202.000000
2612.552223	242.000000
2613.979565	251.666667
2615.408252	256.333333
2616.836688	253.666667
2618.261676	251.666667
2619.688011	240.000000
2621.112497	236.666667
2622.538329	241.000000
2623.960717	255.000000
2625.384451	215.666667
2626.806338	276.333333
2628.227976	267.666667
2629.647768	256.333333
2631.068906	274.000000
2632.489794	332.000000
2633.907244	286.666667
2635.327633	291.333333
2636.744585	289.666667
2638.161288	302.333333
2639.577743	340.000000
2640.993950	350.000000
2642.409909	349.666667
2643.824027	365.333333
2645.237897	397.000000
2646.649929	399.333333
2648.063304	415.666667
2649.473250	454.333333
2650.886132	447.000000
2652.295585	525.333333
2653.704792	521.333333
2655.112163	502.000000
2656.522468	541.666667
2657.930938	589.666667
2659.337572	618.666667
2660.743961	634.333333
2662.148516	639.666667
2663.554415	680.000000
2664.958481	793.666667
2666.362302	789.000000
2667.765879	846.333333
2669.167625	859.333333
2670.570714	922.000000
2671.970385	964.666667
2673.371400	1050.666667
2674.768999	1053.000000
2676.169527	1104.333333
2677.566641	1124.666667
2678.965098	1173.000000
2680.361728	1175.000000
2681.758115	1211.000000
2683.154260	1220.666667
2684.548579	1188.333333
2685.944241	1310.000000
2687.336494	1269.666667
2688.730089	1311.333333
2690.121860	1241.333333
2691.514974	1253.666667
2692.906264	1217.333333
2694.295731	1196.333333
2695.684958	1226.000000
2697.073946	1181.000000
2698.464275	1199.000000
2699.849621	1156.000000
2701.237890	1080.333333
2702.624339	1058.666667
2704.010549	1012.000000
2705.396520	978.666667
2706.779093	945.000000
2708.163008	876.333333
2709.546685	858.000000
2710.930123	807.000000
2712.310167	753.000000
2713.691551	742.666667
2715.071121	702.000000
2716.452031	651.333333
2717.831127	607.666667
2719.208409	613.333333
2720.587032	566.000000
2721.963842	528.333333
2723.340415	512.000000
2724.716753	470.000000
2726.091280	457.000000
2727.467147	431.333333
2728.839627	398.666667
2730.215023	433.666667
2731.585459	392.000000
2732.957236	331.333333
2734.328778	334.000000
2735.698512	358.000000
2737.069587	315.000000
2738.438853	296.000000
2739.807886	304.666667
2741.175113	303.666667
2742.542106	294.000000
2743.908867	287.000000
2745.275396	284.333333
2746.640119	275.333333
2748.004610	259.666667
2749.368870	288.333333
2750.732897	262.000000
2752.096693	220.333333
2753.457115	210.000000
2754.820447	229.000000
2756.178837	226.666667
2757.540137	261.666667
2758.898067	208.000000
2760.258905	201.000000
2761.617944	220.000000
2762.973614	235.666667
2764.332192	220.333333
2765.687403	184.333333
2767.042385	199.666667
2768.395571	226.333333
2769.751662	202.000000
2771.104390	197.666667
2772.456890	226.000000
2773.809161	188.666667
2775.162770	212.000000
2776.513019	213.666667
2777.861473	167.333333
2779.212833	218.333333
2780.560833	170.666667
2781.910171	211.666667
2783.257717	194.333333
2784.605037	184.000000
2785.952130	178.333333
2787.297432	170.000000
2788.642507	187.000000
2789.987357	174.666667
2791.331981	221.666667
2792.673253	185.333333
2794.015863	157.333333
2795.358247	208.666667
2796.700406	204.000000
2798.039216	183.000000
2799.380926	194.333333
2800.719288	164.333333
2802.058986	183.666667
2803.396900	187.666667
2804.733029	193.000000
2806.068934	164.000000
2807.406177	214.000000
2808.741636	191.333333
2810.076872	206.333333
2811.410325	187.333333
2812.745115	168.666667
2814.076565	187.000000
2815.410910	200.000000
2816.740357	222.666667
2818.071141	187.666667
2819.401703	194.000000
2820.730486	157.000000
2822.060605	186.000000
2823.388946	178.666667
2824.717066	158.000000
2826.043408	200.666667
2827.371087	160.666667
2828.695432	169.000000
2830.021114	157.333333
2831.345020	156.000000
2832.668707	181.000000
2833.993729	177.333333
2835.315421	148.666667
2836.636895	155.000000
2837.958150	165.333333
2839.279186	153.666667
2840.598449	172.333333
2841.919048	148.666667
2843.237876	196.333333
2844.556485	150.000000
2845.873323	163.000000
2847.189944	178.000000
2848.506348	166.333333
2849.820982	161.000000
2851.136952	150.666667
2852.449601	175.333333
2853.763585	140.666667
2855.077353	190.666667
2856.390904	142.333333
2857.702689	183.000000
2859.012707	157.000000
2860.324060	164.000000
2861.632098	185.000000
2862.941470	198.000000
2864.250628	201.666667
2865.559570	160.666667
2866.866748	187.666667
2868.172164	155.000000
2869.478913	187.000000
2870.783901	167.333333
2872.088675	199.666667
2873.391687	168.333333
2874.697580	136.000000
2875.998619	156.333333
2877.300992	171.333333
2878.601605	152.666667
2879.903552	177.000000
2881.205285	155.666667
2882.503715	186.666667
2883.803478	165.333333
2885.101484	155.333333
2886.399278	187.000000
2887.695316	152.000000
2888.992687	135.000000
2890.288302	171.666667
2891.583706	144.333333
2892.878899	134.666667
2894.170795	159.000000
2895.465567	152.666667
2896.757042	138.000000
2898.049850	150.666667
2899.342448	142.333333
2900.631752	145.000000
2901.922388	131.333333
2903.211273	141.000000
2904.501490	159.333333
2905.788416	133.333333
2907.076674	212.000000
2908.363183	161.000000
2909.649483	149.000000
2910.935576	173.666667
2912.219920	145.666667
2913.507135	137.333333
2914.789524	167.666667
2916.073245	155.666667
2917.355220	162.333333
2918.636987	151.000000
2919.917010	163.666667
2921.199902	186.666667
2922.481049	180.666667
2923.758914	176.666667
2925.039648	129.333333
2926.317101	131.333333
2927.594348	159.000000
2928.869853	182.666667
2930.148226	125.333333
2931.421785	138.333333
2932.698211	123.666667
2933.972896	156.333333
2935.245840	133.000000
2936.520116	123.333333
2937.792652	153.666667
2939.064983	128.000000
2940.334042	132.000000
2941.605966	160.666667
2942.876152	128.666667
2944.146134	147.666667
2945.415913	146.333333
2946.683956	133.000000
2947.950262	133.333333
2949.216367	155.333333
2950.483801	157.666667
2951.749501	132.666667
2953.014998	142.000000
2954.280293	143.666667
2955.542323	112.333333
2956.805683	117.666667
2958.068842	136.666667
2959.330269	114.333333
2960.593025	166.333333
2961.854049	151.333333
2963.113343	148.000000
2964.372437	162.000000
2965.631330	156.666667
2966.890023	112.666667
2968.148516	128.000000
2969.405280	172.000000
2970.661844	170.666667
2971.916681	148.000000
2973.172846	137.000000
2974.425757	117.333333
2975.679997	144.333333
2976.934037	134.000000
2978.186353	174.000000
2979.438469	133.000000
2980.688861	148.000000
2981.942108	122.333333
2983.190578	113.666667
2984.441903	160.000000
2985.689978	131.666667
2986.937857	144.333333
2988.185538	134.666667
2989.433022	137.000000
2990.678785	133.000000
2991.924352	116.666667
2993.171246	136.666667
2994.414896	133.000000
2995.659874	170.666667
2996.901608	156.333333
2998.146194	130.000000
2999.389061	131.666667
3000.628687	138.333333
3001.871163	141.000000
3003.110399	161.000000
3004.350963	138.666667
3005.589810	132.000000
3006.828463	152.333333
3008.065400	137.333333
3009.303665	131.333333
3010.540214	140.666667
3011.776570	123.666667
3013.012732	152.000000
3014.247180	140.333333
3015.481436	128.666667
3016.715498	147.666667
3017.947848	138.000000
3019.178486	111.000000
3020.411970	130.333333
3021.643742	151.666667
3022.873804	125.333333
3024.103673	152.000000
3025.331833	127.666667
3026.561320	148.666667
3027.789097	142.666667
3029.016683	116.666667
3030.245596	126.666667
3031.469766	128.000000
3032.696779	127.666667
3033.920568	103.000000
3035.145684	158.666667
3036.369093	149.000000
3037.592312	119.000000
3038.813826	126.666667
3040.038181	118.000000
3041.257801	138.000000
3042.478747	139.666667
3043.699504	170.000000
3044.918557	147.000000
3046.138935	112.666667
3047.356097	140.000000
3048.574585	139.333333
3049.791370	108.333333
3051.007968	124.000000
3052.224377	114.000000
3053.437574	143.000000
3054.653608	108.000000
3055.866430	108.666667
3057.082089	137.333333
3058.293025	135.000000
3059.505286	124.333333
3060.717361	154.666667
3061.929248	122.666667
3063.139439	121.666667
3064.349443	144.000000
3065.559261	125.666667
3066.767383	103.666667
3067.975320	104.666667
3069.181561	125.666667
3070.389127	112.333333
3071.594998	122.833333
3072.800685	133.333333
3074.006186	128.000000
3075.209994	108.666667
3076.415126	84.333333
3077.618565	119.000000
3078.820313	148.666667
3080.021876	121.666667
3081.223256	128.666667
3082.424452	117.666667
3083.623958	119.666667
3084.823281	116.666667
3086.023927	103.666667
3087.222883	139.666667
3088.418645	151.666667
3089.617236	103.000000
3090.812633	130.000000
3092.009353	145.333333
3093.202881	116.000000
3094.399237	120.333333
3095.593907	88.000000
3096.785385	114.333333
3097.981196	115.000000
3099.172312	140.000000
3100.364752	137.666667
3101.554004	97.333333
3102.746081	124.333333
3103.936475	99.333333
3105.123683	111.333333
3106.312213	107.000000
3107.502066	101.666667
3108.688735	131.333333
3109.875223	123.333333
3111.061533	137.000000
3112.249164	111.333333
3113.433613	101.666667
3114.616383	125.666667
3115.801975	95.666667
3116.985888	114.333333
3118.168122	114.000000
3119.350177	126.333333
3120.532054	116.666667
3121.713753	133.333333
3122.893775	86.666667
3124.072120	104.000000
3125.253285	114.333333
3126.431275	106.666667
3127.609089	124.000000
3128.786725	156.333333
3129.962686	94.666667
3131.138470	122.000000
3132.315576	87.666667
3133.491007	116.333333
3134.664765	131.666667
3135.836850	148.333333
3137.010257	125.000000
3138.183487	110.666667
3139.355046	141.333333
3140.527925	132.666667
3141.697637	127.333333
3142.868670	126.000000
3144.038033	102.000000
3145.205725	114.000000
3146.376233	90.000000
3147.542083	119.333333
3148.712241	146.666667
3149.877743	113.333333
3151.043070	118.000000
3152.208224	134.000000
3153.373205	109.000000
3154.539505	126.666667
3155.701153	109.000000
3156.864120	105.333333
3158.026915	113.666667
3159.189537	130.333333
3160.350494	144.666667
3161.511278	106.666667
3162.671890	116.333333
3163.830838	115.000000
3164.989615	114.666667
3166.148220	127.666667
3167.306652	112.333333
3168.464914	120.000000
3169.621513	95.000000
3170.776451	128.666667
3171.932708	127.000000
3173.087304	100.666667
3174.241730	101.666667
3175.394496	121.333333
3176.547091	125.666667
3177.699517	90.666667
3178.851773	97.333333
3180.003858	142.000000
3181.152798	108.000000
3182.304544	101.666667
3183.454632	120.000000
3184.603064	112.666667
3185.751326	130.333333
3186.899420	141.000000
3188.047345	126.333333
3189.193614	108.333333
3190.339715	159.000000
3191.484162	122.000000
3192.628441	123.666667
3193.772552	84.000000
3194.917980	154.333333
3196.060270	129.000000
3197.202393	114.666667
3198.344348	140.333333
3199.486136	130.666667
3200.627757	99.000000
3201.766243	117.333333
3202.906046	143.000000
3204.047167	142.333333
3205.185153	133.000000
3206.321490	138.333333
3207.457661	97.000000
3208.595149	106.333333
3209.730989	89.333333
3210.868146	97.000000
3212.000690	89.666667
3213.137516	127.333333
3214.269730	108.000000
3215.403261	136.333333
3216.536628	116.333333
3217.666867	90.333333
3218.799904	131.666667
3219.929815	94.666667
3221.061042	125.333333
3222.189145	142.333333
3223.320044	115.333333
3224.449299	122.000000
3225.576911	131.666667
3226.701400	143.333333
3227.830165	126.333333
3228.955808	130.333333
3230.081289	105.666667
3231.205128	157.000000
3232.331761	129.333333
3233.453797	176.333333
3234.577149	123.000000
3235.700339	138.333333
3236.823366	131.333333
3237.944755	129.000000
3239.065981	123.666667
3240.185570	153.666667
3241.304997	143.000000
3242.422786	126.666667
3243.543367	170.000000
3244.660835	122.666667
3245.778142	152.333333
3246.895289	114.333333
3248.010800	158.000000
3249.127625	123.000000
3250.241341	160.000000
3251.357846	154.333333
3252.472717	161.000000
3253.584479	111.000000
3254.696081	126.333333
3255.808999	107.666667
3256.921757	133.000000
3258.031409	142.333333
3259.142376	124.000000
3260.253184	125.333333
3261.362360	124.333333
3262.469906	95.666667
3263.578765	142.000000
3264.687467	136.000000
3265.793066	114.000000
3266.899979	118.000000
3268.005263	115.666667
3269.111861	116.666667
3270.215359	103.000000
3271.320172	88.000000
3272.424827	144.666667
3273.526383	101.666667
3274.627783	93.000000
3275.730497	120.666667
3276.833055	128.000000
3277.932516	116.000000
3279.034761	80.000000
3280.133910	80.333333
3281.231435	108.666667
3282.328804	103.666667
3283.428955	93.000000
3284.526014	91.333333
3285.622917	74.666667
3286.719665	106.000000
3287.811855	104.666667
3288.908293	100.000000
3290.003109	105.000000
3291.097771	75.666667
3292.190811	83.666667
3293.283696	105.000000
3294.374962	100.333333
3295.467539	120.666667
3296.558497	98.000000
3297.647835	77.666667
3298.737020	78.333333
3299.827518	77.000000
3300.914931	119.000000
3302.002191	78.000000
3303.090764	108.000000
3304.179185	81.333333
3305.263058	122.666667
3306.351173	90.666667
3307.436206	87.333333
3308.519624	79.000000
3309.604354	111.666667
3310.687468	115.333333
3311.771895	102.666667
3312.853243	84.333333
3313.935903	55.000000
3315.016949	89.333333
3316.097844	92.333333
3317.177125	91.000000
3318.256256	122.666667
3319.336699	94.000000
3320.414067	101.666667
3321.492747	141.666667
3322.569815	113.000000
3323.646734	101.333333
3324.722041	62.666667
3325.797199	87.333333
3326.873668	87.000000
3327.947067	100.000000
3329.020317	92.000000
3330.094877	117.000000
3331.167829	90.666667
3332.239172	104.000000
3333.311826	88.333333
3334.381414	107.666667
3335.452312	110.333333
3336.521603	119.000000
3337.592205	79.000000
3338.661200	87.666667
3339.728589	100.666667
3340.794373	99.000000
3341.864383	84.666667
3342.931330	101.333333
3343.995215	120.666667
3345.061868	86.000000
3346.126916	99.000000
3347.190361	79.333333
3348.253660	77.666667
3349.316812	109.333333
3350.379818	103.666667
3351.442678	84.333333
3352.503936	73.333333
3353.562137	66.333333
3354.624558	120.666667
3355.683924	97.666667
3356.743144	118.666667
3357.803673	67.333333
3358.859694	101.666667
3359.918478	59.666667
3360.972755	93.333333
3362.029796	80.333333
3363.085238	105.666667
3364.141990	74.333333
3365.197143	99.000000
3366.250699	123.000000
3367.302659	121.000000
3368.357380	117.000000
3369.409052	85.666667
3370.460581	93.000000
3371.513418	85.666667
3372.563208	106.000000
3373.614307	81.000000
3374.662360	82.333333
3375.713172	78.666667
3376.760940	82.333333
3377.808565	69.000000
3378.856047	102.000000
3379.901937	87.666667
3380.949135	87.000000
3381.993291	88.000000
3383.040205	99.333333
3384.085527	91.333333
3385.127808	101.000000
3386.169949	95.333333
3387.213397	88.666667
3388.256704	62.666667
3389.298422	71.000000
3390.339998	68.666667
3391.381433	81.000000
3392.421280	58.000000
3393.459538	91.666667
3394.499104	118.000000
3395.538530	104.000000
3396.576368	78.000000
3397.612619	71.000000
3398.648731	46.666667
3399.686150	84.333333
3400.720536	53.333333
3401.756229	61.000000
3402.791783	81.333333
3403.824306	104.333333
3404.859582	98.666667
3405.891827	104.000000
3406.923934	80.333333
3407.954457	88.000000
3408.986287	84.000000
3410.017979	97.666667
3411.046643	65.000000
3412.075170	113.333333
3413.105003	93.333333
3414.134699	92.666667
3415.161369	94.333333
3416.189346	61.333333
3417.214298	89.000000
3418.242000	79.666667
3419.266679	85.000000
3420.292664	87.333333
3421.317069	102.000000
3422.341338	94.666667
3423.364028	82.333333
3424.386582	108.000000
3425.410442	89.000000
3426.431282	84.666667
3427.451986	85.000000
3428.473997	60.333333
3429.492989	90.666667
3430.511845	67.666667
3431.532008	69.333333
3432.549154	95.666667
