-116.707459	-20.666667
-114.037859	25.333333
-111.371194	1.000000
-108.705281	9.000000
-106.042300	-12.333333
-103.377890	12.000000
-100.716410	-13.333333
-98.053501	-23.666667
-95.395698	-5.333333
-92.736466	0.666667
-90.077982	-28.666667
-87.422422	-13.666667
-84.765434	20.000000
-82.113544	-0.666667
-79.460224	7.333333
-76.809823	10.000000
-74.157993	-6.666667
-71.511254	1.666667
-68.863086	-27.000000
-66.215660	41.333333
-63.571148	10.666667
-60.925208	11.333333
-58.284349	-17.000000
-55.642061	16.000000
-53.002682	-5.000000
-50.361873	-3.666667
-47.721805	-33.333333
-45.086809	-6.333333
-42.450385	-0.666667
-39.816863	6.000000
-37.181913	6.333333
-34.552028	23.333333
-31.918551	3.333333
-29.290136	18.333333
-26.662455	33.666667
-24.033345	14.000000
-21.409292	48.000000
-18.781650	38.000000
-16.159061	27.666667
-13.537204	57.666667
-10.916077	131.333333
-8.295680	291.333333
-5.678172	964.666667
-3.059235	3645.666667
-0.443183	10791.333333
2.172140	16806.000000
4.786736	10453.333333
7.398449	1208.000000
10.011591	109.000000
12.619699	40.666667
15.231389	49.333333
17.838048	41.333333
20.446135	45.666667
23.053498	41.333333
25.655836	11.000000
28.261752	38.000000
30.862646	25.333333
33.464968	9.333333
36.062273	10.666667
38.663153	25.666667
41.259018	18.666667
43.856312	22.333333
46.452886	18.333333
49.044451	30.333333
51.637444	-6.666667
54.227576	-2.333333
56.819136	-23.000000
59.407836	-2.000000
61.997963	10.666667
64.583091	-14.000000
67.169647	-19.333333
69.755489	-36.000000
72.338477	3.666667
74.922891	5.000000
77.500177	1.333333
80.081029	19.333333
82.659032	2.000000
85.236325	-24.333333
87.815044	0.333333
90.388781	9.666667
92.963946	-17.000000
95.536267	7.000000
98.107880	-6.333333
100.676653	5.666667
103.246853	5.000000
105.814215	13.666667
108.383002	21.333333
110.948953	7.333333
113.512069	24.333333
116.078741	-4.000000
118.636192	33.333333
121.199328	60.333333
123.757504	20.333333
126.319235	43.333333
128.876009	56.666667
131.434210	131.666667
133.987457	146.333333
136.540007	263.666667
139.096107	338.000000
141.647259	437.666667
144.197714	568.000000
146.747471	650.333333
149.294409	677.000000
151.840652	762.000000
154.388320	760.333333
156.935292	768.000000
159.477329	769.666667
162.018672	782.000000
164.559322	715.333333
167.101398	804.333333
169.640662	737.000000
172.177118	749.333333
174.712882	755.000000
177.250072	689.333333
179.786571	732.000000
182.320264	714.666667
184.851153	691.333333
187.381355	722.000000
189.912981	692.000000
192.441806	709.000000
194.967832	684.666667
197.493172	707.333333
200.019937	692.000000
202.543906	721.000000
205.067190	705.666667
207.589789	713.333333
210.109595	737.666667
212.628718	701.666667
215.147158	682.000000
217.667022	714.333333
220.179885	715.000000
222.696279	764.000000
225.211991	737.333333
227.722813	706.666667
230.235060	761.000000
232.744525	773.000000
235.253311	771.666667
237.761418	788.333333
240.270950	811.666667
242.775601	732.666667
245.279576	743.666667
247.784975	751.000000
250.285499	741.000000
252.789547	778.000000
255.286623	770.000000
257.787223	765.000000
260.285051	757.333333
262.782206	733.333333
265.278688	780.333333
267.770307	786.666667
270.265446	763.000000
272.757818	742.000000
275.249520	765.666667
277.738459	787.333333
280.228822	798.000000
282.716422	822.333333
285.201263	785.333333
287.689619	839.666667
290.171035	783.333333
292.655965	850.666667
295.136050	854.333333
297.619647	851.000000
300.098401	853.000000
302.578579	864.666667
305.056004	892.000000
307.532766	845.000000
310.008865	867.333333
312.482215	857.333333
314.954903	845.000000
317.426930	792.000000
319.898296	898.333333
322.366917	876.666667
324.834880	840.000000
327.304264	889.000000
329.768826	752.666667
332.236892	795.000000
334.700138	780.333333
337.162726	766.666667
339.624658	751.000000
342.085933	716.333333
344.544474	674.000000
347.004437	666.000000
349.461667	732.333333
351.918243	699.000000
354.374165	681.333333
356.827357	697.666667
359.281972	683.333333
361.731785	698.666667
364.185094	665.000000
366.633605	636.000000
369.081464	671.000000
371.530746	618.666667
373.975234	624.666667
376.421144	612.333333
378.866404	613.666667
381.308946	646.666667
383.750840	614.333333
386.192087	628.333333
388.630618	587.000000
391.070571	582.000000
393.507810	567.000000
395.942337	622.666667
398.380352	605.666667
400.813590	571.000000
403.248249	568.333333
405.678136	579.666667
408.111508	612.333333
410.540110	634.666667
412.968070	558.666667
415.397452	572.666667
417.822068	581.000000
420.248106	592.000000
422.673503	579.333333
425.098260	565.666667
427.518259	587.666667
429.939679	604.666667
432.358402	549.333333
434.778546	547.333333
437.195995	515.000000
439.614864	536.000000
442.031040	518.000000
444.442468	542.333333
446.857374	478.333333
449.269589	490.333333
451.681170	466.666667
454.092117	457.333333
456.500378	442.666667
458.908006	460.666667
461.315002	415.666667
463.721367	453.666667
466.125049	452.000000
468.528101	477.666667
470.930523	468.666667
473.332315	452.666667
475.731430	447.000000
478.131964	464.000000
480.531869	456.666667
482.927051	459.333333
485.325700	458.000000
487.719629	487.000000
490.112932	517.333333
492.505609	516.000000
494.897661	602.333333
497.291131	612.000000
499.679889	703.333333
502.065981	825.666667
504.453493	950.666667
506.840382	1333.666667
509.224607	1784.000000
511.610250	2542.666667
513.993232	3594.666667
516.373553	4921.666667
518.755293	5911.000000
521.134374	6102.666667
523.514874	5469.333333
525.892716	4584.000000
528.267903	3645.666667
530.642472	2972.666667
533.018459	2524.333333
535.391794	2195.666667
537.766546	1925.666667
540.136613	1703.666667
542.506064	1554.333333
544.876933	1411.333333
547.243122	1341.666667
549.610729	1182.000000
551.975690	1105.000000
554.340038	1102.000000
556.703773	1042.333333
559.068926	1007.666667
561.429407	978.666667
563.791306	902.666667
566.150564	924.000000
568.507185	905.666667
570.867250	840.666667
573.220624	819.333333
575.577443	815.333333
577.931627	805.666667
580.285202	820.666667
582.638170	752.000000
584.988505	724.666667
587.340258	679.333333
589.685334	682.000000
592.035874	666.000000
594.379740	652.333333
596.729068	625.666667
599.073747	621.000000
601.415802	647.000000
603.759274	613.333333
606.100123	599.000000
608.440370	596.000000
610.777996	658.000000
613.119057	663.000000
615.455480	699.000000
617.793320	746.000000
620.128543	703.666667
622.461150	673.666667
624.795173	666.000000
627.126582	613.333333
629.457393	620.333333
631.787607	598.333333
634.117222	600.000000
636.442214	593.333333
638.772648	601.333333
641.098461	572.333333
643.421666	566.000000
645.746288	542.000000
648.068304	594.333333
650.389726	580.000000
652.708546	542.000000
655.028781	497.333333
657.348423	534.666667
659.665464	538.000000
661.981913	514.666667
664.295764	536.333333
666.611031	519.666667
668.923701	529.000000
671.237786	507.333333
673.547271	499.666667
675.858172	536.000000
678.166480	517.333333
680.474200	528.666667
682.783334	531.333333
685.087876	520.666667
687.391832	475.333333
689.695202	529.000000
691.999986	502.666667
694.300184	464.000000
696.601796	397.000000
698.902823	470.666667
701.199269	459.666667
703.497130	480.666667
705.794407	405.333333
708.091101	436.666667
710.383219	399.666667
712.678748	449.333333
714.969703	432.000000
717.262073	408.333333
719.551868	382.000000
721.841082	435.666667
724.129717	408.333333
726.415779	393.000000
728.703256	402.333333
730.988161	423.666667
733.272489	419.000000
735.554248	427.333333
737.837421	419.000000
740.120017	400.333333
742.398057	449.000000
744.677512	440.000000
746.956390	426.333333
749.234694	425.333333
751.508448	387.333333
753.783615	362.333333
756.058209	394.333333
758.330244	425.000000
760.603692	389.333333
762.874582	396.000000
765.142916	397.666667
767.412663	406.000000
769.679856	387.000000
771.946478	417.000000
774.212530	403.666667
776.476031	421.666667
778.740945	427.000000
781.005289	428.000000
783.265104	427.000000
785.526331	378.333333
787.786991	389.666667
790.045105	447.333333
792.300674	434.666667
794.559634	423.000000
796.812095	375.000000
799.069922	420.333333
801.323231	397.000000
803.574000	400.666667
805.826181	391.333333
808.075823	476.333333
810.326878	381.333333
812.573421	423.666667
814.821376	375.666667
817.066797	442.000000
819.313629	414.000000
821.559900	406.666667
823.801666	368.000000
826.046816	422.666667
828.285493	413.000000
830.527552	403.666667
832.765113	381.000000
835.004086	422.666667
837.240532	412.000000
839.478389	383.666667
841.713721	361.333333
843.946530	434.666667
846.180750	442.000000
848.412447	367.666667
850.643590	404.333333
852.874178	393.666667
855.104212	369.333333
857.333692	383.333333
859.558690	409.000000
861.787063	373.666667
864.010956	399.666667
866.236261	385.333333
868.457090	373.333333
870.681291	353.666667
872.901019	363.000000
875.122157	408.666667
877.342745	374.000000
879.560824	400.333333
881.780312	379.333333
883.995334	368.333333
886.209808	384.666667
888.423735	421.333333
890.637115	358.333333
892.849947	376.666667
895.062233	351.333333
897.272016	338.333333
899.481254	358.000000
901.689947	409.000000
903.896141	364.000000
906.103744	385.666667
908.308849	410.333333
910.513411	362.333333
912.715478	345.333333
914.918954	381.666667
917.119936	393.333333
919.320376	439.333333
921.522225	405.333333
923.717683	474.666667
925.916500	474.000000
928.110878	526.000000
930.308614	543.666667
932.501914	627.666667
934.696623	700.666667
936.888846	725.333333
939.080530	810.333333
941.271677	866.666667
943.460341	862.333333
945.648469	868.000000
947.834116	878.333333
950.023115	876.333333
952.207691	849.333333
954.391732	847.000000
956.579123	874.333333
958.758210	875.000000
960.940648	839.333333
963.122552	893.333333
965.301981	878.666667
967.478938	899.333333
969.657303	869.333333
971.837075	912.000000
974.010498	868.333333
976.187267	890.666667
978.359629	900.666667
980.533399	883.000000
982.702765	841.000000
984.875475	821.000000
987.045720	749.000000
989.215436	744.000000
991.384623	687.333333
993.549413	618.333333
995.717544	597.333333
997.881281	540.000000
1000.046424	535.000000
1002.209108	564.666667
1004.371267	492.333333
1006.530969	525.000000
1008.690146	506.000000
1010.850730	490.333333
1013.008859	440.000000
1015.166465	438.000000
1017.323547	465.666667
1019.480105	436.666667
1021.632284	428.666667
1023.785870	422.666667
1025.938934	401.666667
1028.089549	423.333333
1030.241571	398.000000
1032.389219	367.666667
1034.540199	376.333333
1036.686808	389.666667
1038.832898	384.666667
1040.978470	389.333333
1043.125447	367.666667
1045.266135	376.666667
1047.410153	393.666667
1049.551730	382.000000
1051.692791	376.000000
1053.835256	366.666667
1055.971442	374.333333
1058.110953	381.333333
1060.246110	374.666667
1062.384591	384.000000
1064.518718	381.666667
1066.652332	388.666667
1068.787351	394.333333
1070.918020	386.333333
1073.050094	341.333333
1075.179739	376.666667
1077.308872	355.000000
1079.437493	360.666667
1081.565603	373.333333
1083.691287	365.666667
1085.816461	354.000000
1087.943039	339.666667
1090.065279	333.000000
1092.188924	372.000000
1094.308234	377.333333
1096.432774	334.333333
1098.551068	311.666667
1100.670767	347.000000
1102.788047	362.000000
1104.904821	344.666667
1107.021088	303.666667
1109.134939	355.666667
1111.250195	375.333333
1113.361127	382.000000
1115.475372	326.666667
1117.585296	362.000000
1119.696624	348.333333
1121.807447	359.666667
1123.913954	333.666667
1126.023771	355.333333
1128.129273	319.000000
1130.236178	318.666667
1132.336868	362.333333
1134.442770	347.000000
1136.544363	343.000000
1138.647359	351.333333
1140.749854	308.000000
1142.846142	326.666667
1144.947637	319.333333
1147.044830	341.000000
1149.141525	358.666667
1151.237721	308.333333
1153.333420	299.666667
1155.428620	311.000000
1157.521424	307.000000
1159.615631	311.000000
1161.703646	300.000000
1163.796859	340.000000
1165.883884	349.333333
1167.974208	325.666667
1170.060244	345.333333
1172.149579	323.000000
1174.232732	333.000000
1176.317287	349.666667
1178.403244	299.333333
1180.484919	308.666667
1182.567996	318.666667
1184.648687	306.333333
1186.728886	350.666667
1188.808594	357.666667
1190.887811	356.333333
1192.964646	295.000000
1195.039100	324.333333
1197.116845	304.333333
1199.190321	278.333333
1201.265197	325.666667
1203.335806	331.000000
1205.407816	299.333333
1207.477451	304.666667
1209.548486	357.666667
1211.619033	318.666667
1213.685319	303.000000
1215.753006	301.000000
1217.818321	306.333333
1219.885036	326.333333
1221.947495	311.000000
1224.013239	281.333333
1226.074729	349.000000
1228.137620	291.333333
1230.198143	331.666667
1232.258182	345.666667
1234.317739	311.666667
1236.374930	301.000000
1238.431640	339.000000
1240.485986	301.666667
1242.543614	316.000000
1244.598879	329.666667
1246.649903	332.000000
1248.702327	339.666667
1250.754271	343.000000
1252.803857	302.666667
1254.852964	308.000000
1256.901593	308.333333
1258.949743	338.333333
1260.997414	315.000000
1263.040855	305.666667
1265.087572	321.666667
1267.131935	345.333333
1269.175822	344.000000
1271.217357	336.000000
1273.256543	340.000000
1275.299002	313.666667
1277.337238	339.666667
1279.376873	327.666667
1281.416033	337.000000
1283.450974	340.666667
1285.487314	309.000000
1287.521310	351.666667
1289.556703	326.333333
1291.587884	347.000000
1293.620462	333.333333
1295.652569	304.000000
1297.682335	334.333333
1299.713498	331.000000
1301.740455	331.000000
1303.768809	333.000000
1305.792958	386.666667
1307.820373	318.666667
1309.843585	321.000000
1311.868195	334.333333
1313.890471	312.000000
1315.914144	337.000000
1317.935484	285.000000
1319.956356	360.333333
1321.976761	308.000000
1323.992973	340.333333
1326.010582	309.000000
1328.025863	333.666667
1330.044403	283.666667
1332.058754	322.666667
1334.070779	344.000000
1336.086061	312.000000
1338.097158	338.000000
1340.109652	308.333333
1342.117963	327.666667
1344.129529	339.000000
1346.135057	342.000000
1348.143840	338.000000
1350.148445	296.000000
1352.156304	340.333333
1354.163701	354.333333
1356.165067	310.333333
1358.167829	349.000000
1360.170132	341.333333
1362.171975	325.000000
1364.173358	352.333333
1366.172428	356.000000
1368.171039	312.000000
1370.169192	311.666667
1372.166886	363.000000
1374.160418	341.666667
1376.155345	370.333333
1378.149816	349.333333
1380.143830	365.666667
1382.135537	357.000000
1384.126789	365.666667
1386.115735	344.666667
1388.106076	328.333333
1390.095962	306.666667
1392.083544	307.000000
1394.070673	316.000000
1396.055500	318.333333
1398.041722	299.333333
1400.025644	362.333333
1402.009113	292.333333
1403.992129	317.000000
1405.972848	320.333333
1407.954961	362.000000
1409.934778	336.333333
1411.914143	339.666667
1413.889370	313.000000
1415.867835	327.666667
1417.844007	350.666667
1419.819730	290.000000
1421.795003	310.000000
1423.767985	368.000000
1425.740519	331.666667
1427.712605	291.666667
1429.684244	300.000000
1431.651754	316.000000
1433.624338	321.333333
1435.589116	322.333333
1437.558967	306.666667
1439.524694	345.666667
1441.491813	337.333333
1443.456649	330.333333
1445.417365	345.666667
1447.383149	319.000000
1449.342978	367.000000
1451.304201	343.000000
1453.266816	333.666667
1455.225316	348.666667
1457.183373	393.333333
1459.140989	374.000000
1461.098162	358.000000
1463.053060	380.333333
1465.009351	356.666667
1466.963367	374.000000
1468.916942	328.000000
1470.868245	342.333333
1472.820941	345.666667
1474.771364	367.000000
1476.721349	387.333333
1478.670895	376.333333
1480.618172	383.000000
1482.563181	359.000000
1484.509583	398.000000
1486.455547	421.000000
1488.401074	399.666667
1490.344335	399.666667
1492.287161	398.333333
1494.227723	395.333333
1496.169676	397.666667
1498.109367	440.333333
1500.048624	373.333333
1501.987445	405.000000
1503.924007	383.000000
1505.861960	381.000000
1507.797654	420.333333
1509.732915	446.666667
1511.665920	411.333333
1513.598492	443.000000
1515.530632	395.333333
1517.462340	436.333333
1519.391794	435.333333
1521.322639	475.333333
1523.253052	459.666667
1525.179393	491.666667
1527.107125	475.333333
1529.032606	492.000000
1530.957658	495.000000
1532.882281	529.666667
1534.806475	519.666667
1536.728421	504.333333
1538.651758	531.000000
1540.572848	552.000000
1542.491694	595.000000
1544.411930	648.000000
1546.329923	621.000000
1548.247489	657.666667
1550.162813	731.000000
1552.079527	811.000000
1553.992186	811.333333
1555.908049	954.666667
1557.821672	1145.000000
1559.733057	1263.666667
1561.645832	1378.666667
1563.554557	1633.333333
1565.464671	1881.666667
1567.374362	2273.666667
1569.283630	2779.000000
1571.190664	3214.333333
1573.095465	3730.333333
1575.001655	4202.333333
1576.905613	4724.000000
1578.809150	4965.333333
1580.712267	5141.666667
1582.613154	5297.666667
1584.515430	4809.000000
1586.415478	4471.666667
1588.316913	3884.000000
1590.214315	3306.000000
1592.111298	2805.333333
1594.007863	2372.000000
1595.905816	1995.333333
1597.797934	1694.333333
1599.693245	1402.333333
1601.588139	1279.666667
1603.480811	1030.333333
1605.373066	981.000000
1607.263102	848.333333
1609.152722	803.000000
1611.041927	690.666667
1612.930717	646.000000
1614.817289	604.333333
1616.705249	638.666667
1618.589192	550.666667
1620.474522	539.666667
1622.359439	503.666667
1624.242142	530.333333
1626.126232	457.333333
1628.006310	426.666667
1629.887776	429.333333
1631.767031	419.000000
1633.647672	406.000000
1635.522509	391.333333
1637.402327	341.666667
1639.278141	359.666667
1641.153544	320.666667
1643.030333	363.000000
1644.901326	362.333333
1646.775500	352.000000
1648.645675	331.666667
1650.519032	336.666667
1652.390184	342.000000
1654.259136	371.000000
1656.129472	304.333333
1657.995816	318.000000
1659.863545	269.000000
1661.729075	310.666667
1663.595991	262.666667
1665.458918	301.000000
1667.323230	307.333333
1669.185346	284.333333
1671.047057	297.333333
1672.910154	283.000000
1674.771055	251.000000
1676.629764	270.000000
1678.488069	289.000000
1680.347759	299.666667
1682.201681	242.333333
1684.058777	261.333333
1685.915470	246.333333
1687.768186	256.000000
1689.624074	239.666667
1691.475988	251.666667
1693.327501	253.666667
1695.178613	240.000000
1697.029325	240.000000
1698.879635	237.333333
1700.727762	233.000000
1702.577273	229.000000
1704.421035	265.666667
1706.269746	226.000000
1708.112711	226.333333
1709.958843	262.333333
1711.801012	258.000000
1713.646347	232.333333
1715.485941	229.666667
1717.326919	224.000000
1719.169280	244.333333
1721.007685	217.333333
1722.847473	221.333333
1724.685086	219.666667
1726.522303	234.333333
1728.357347	216.333333
1730.193774	238.000000
1732.028029	246.666667
1733.861889	209.333333
1735.695355	242.333333
1737.524876	232.000000
1739.357555	178.333333
1741.186290	199.333333
1743.018182	221.666667
1744.846132	203.333333
1746.673691	225.000000
1748.500857	218.333333
1750.327632	208.000000
1752.154015	236.333333
1753.976462	206.666667
1755.802064	249.666667
1757.623731	222.000000
1759.446780	218.333333
1761.267667	229.666667
1763.088166	220.333333
1764.910045	204.000000
1766.726226	224.666667
1768.545558	259.666667
1770.360963	197.333333
1772.179518	190.333333
1773.994148	222.666667
1775.808391	229.666667
1777.622248	222.333333
1779.435718	243.666667
1781.247035	230.000000
1783.059732	189.000000
1784.872044	206.666667
1786.680438	225.666667
1788.490212	183.666667
1790.296072	187.333333
1792.105077	210.333333
1793.910169	197.666667
1795.716642	224.000000
1797.522731	208.333333
1799.324909	222.666667
1801.130232	204.666667
1802.931646	229.333333
1804.734440	189.666667
1806.533328	189.333333
1808.333597	238.000000
1810.133484	195.000000
1811.931229	175.666667
1813.728594	214.000000
1815.525579	187.000000
1817.322183	167.666667
1819.116648	207.000000
1820.912492	195.333333
1822.702681	186.666667
1824.497767	224.666667
1826.287201	217.666667
1828.079771	197.666667
1829.870206	222.666667
1831.658507	177.666667
1833.449943	220.666667
1835.235733	216.333333
1837.022903	209.333333
1838.807941	202.000000
1840.596113	228.666667
1842.380399	204.000000
1844.162555	221.000000
1845.946091	233.666667
1847.727498	231.333333
1849.510284	196.333333
1851.289189	200.333333
1853.069474	209.000000
1854.847632	254.666667
1856.627169	199.666667
1858.404581	219.000000
1860.179869	223.333333
1861.956535	209.000000
1863.731079	206.000000
1865.507001	205.666667
1867.277302	216.000000
1869.050731	193.333333
1870.822040	233.000000
1872.592978	209.000000
1874.365294	219.333333
1876.131996	223.666667
1877.901824	214.333333
1879.667788	207.666667
1881.436875	242.333333
1883.202101	232.333333
1884.966959	214.666667
1886.733194	240.666667
1888.495570	231.666667
1890.257579	207.333333
1892.019220	207.333333
1893.780495	223.000000
1895.541402	217.000000
1897.301943	187.333333
1899.060374	207.000000
1900.818439	199.333333
1902.574397	233.333333
1904.331731	189.666667
1906.088700	192.666667
1907.843562	227.333333
1909.596320	174.333333
1911.348713	219.666667
1913.102483	204.333333
1914.854149	192.000000
1916.603713	214.333333
1918.354652	206.333333
1920.105229	172.333333
1921.851966	212.000000
1923.600080	198.000000
1925.346094	179.000000
1927.093483	195.000000
1928.838775	180.000000
1930.581969	221.000000
1932.326538	206.666667
1934.069012	199.333333
1935.811125	173.333333
1937.552878	193.666667
1939.294271	196.333333
1941.033571	176.333333
1942.772512	241.333333
1944.511094	188.333333
1946.247585	211.333333
1947.983718	197.833333
1949.721225	184.333333
1951.454910	193.333333
1953.189970	201.666667
1954.922941	181.666667
1956.655556	208.666667
1958.387815	246.000000
1960.119717	213.000000
1961.849533	187.333333
1963.577264	187.333333
1965.306370	186.000000
1967.035121	230.666667
1968.761788	196.333333
1970.488101	188.333333
1972.215787	195.666667
1973.937937	189.666667
1975.663188	197.333333
1977.384632	223.000000
1979.109177	206.000000
1980.831641	193.000000
1982.550303	204.333333
1984.272063	235.666667
1985.990021	245.333333
1987.709352	213.333333
1989.424884	165.666667
1991.145236	222.000000
1992.861790	177.666667
1994.574547	205.333333
1996.290400	200.000000
1998.004181	198.666667
1999.717612	244.333333
2001.428972	176.666667
2003.141704	187.333333
2004.850646	180.666667
2006.562680	211.333333
2008.269206	171.000000
2009.978823	194.666667
2011.686374	198.000000
2013.393576	197.333333
2015.098713	235.333333
2016.803504	186.666667
2018.509666	220.333333
2020.212046	213.000000
2021.915797	208.333333
2023.617486	179.333333
2025.318830	186.333333
2027.019828	195.000000
2028.718765	197.333333
2030.419074	190.666667
2032.115608	175.666667
2033.813513	193.666667
2035.509359	209.000000
2037.208291	182.666667
2038.901737	200.000000
2040.596554	187.000000
2042.291029	213.000000
2043.981735	207.000000
2045.675525	235.666667
2047.365548	197.000000
2049.056942	203.333333
2050.746283	188.666667
2052.436994	180.000000
2054.123942	175.000000
2055.810551	200.333333
2057.498529	195.333333
2059.182748	212.333333
2060.868338	191.333333
2062.553588	206.666667
2064.236789	149.000000
2065.921361	188.000000
2067.600470	157.333333
2069.284364	222.000000
2070.962797	203.333333
2072.644308	211.000000
2074.322067	194.000000
2075.999490	213.000000
2077.678282	214.333333
2079.355032	175.000000
2081.029740	193.333333
2082.705817	229.333333
2084.379853	171.666667
2086.053555	191.666667
2087.726921	153.333333
2089.398248	189.000000
2091.069241	201.333333
2092.739900	173.000000
2094.410225	217.666667
2096.080216	206.666667
2097.748171	181.333333
2099.415793	199.333333
2101.081380	195.666667
2102.748336	210.000000
2104.413259	187.000000
2106.077850	202.333333
2107.740409	168.333333
2109.404336	186.333333
2111.066232	185.666667
2112.727798	193.000000
2114.389032	140.333333
2116.048238	175.666667
2117.707113	174.666667
2119.365659	166.333333
2121.023874	180.333333
2122.678367	191.000000
2124.335924	129.666667
2125.993152	193.333333
2127.646658	182.666667
2129.301532	156.333333
2130.952687	169.000000
2132.606905	160.666667
2134.257406	171.333333
2135.909273	224.333333
2137.555732	190.666667
2139.206946	216.666667
2140.854446	199.333333
2142.503313	161.333333
2144.150161	158.000000
2145.796684	152.666667
2147.442881	174.333333
2149.085370	156.666667
2150.730917	176.333333
2152.372757	197.333333
2154.017654	154.666667
2155.658845	236.000000
2157.299714	161.000000
2158.940258	179.666667
2160.578790	180.333333
2162.218688	179.000000
2163.854886	214.000000
2165.492450	175.333333
2167.129692	207.333333
2168.764924	188.000000
2170.399835	176.666667
2172.034423	192.000000
2173.668691	185.000000
2175.299265	197.333333
2176.932891	160.666667
2178.562825	174.666667
2180.194124	185.666667
2181.823418	167.333333
2183.452393	176.666667
2185.081048	203.333333
2186.709384	180.000000
2188.335718	198.333333
2189.961733	171.666667
2191.585746	196.333333
2193.211125	165.333333
2194.834503	206.333333
2196.459246	210.666667
2198.080308	161.333333
2199.701053	180.000000
2201.323163	227.000000
2202.943275	180.000000
2204.561390	186.000000
2206.179190	188.333333
2207.796675	209.333333
2209.413844	200.000000
2211.030698	190.666667
2212.647236	182.333333
2214.261782	162.333333
2215.874335	184.000000
2217.488252	212.666667
2219.100178	184.333333
2220.713467	178.333333
2222.324766	166.333333
2223.934075	168.333333
2225.544748	174.666667
2227.153432	175.666667
2228.761803	185.333333
2230.368188	169.333333
2231.975936	207.333333
2233.581697	198.000000
2235.187147	172.000000
2236.790612	187.000000
2238.395440	141.666667
2239.998284	180.666667
2241.599145	168.333333
2243.201369	161.333333
2244.801611	142.333333
2246.403215	211.666667
2248.001166	180.000000
2249.600480	201.666667
2251.197814	211.000000
2252.794840	165.666667
2254.393228	180.333333
2255.987967	185.000000
2257.580729	192.000000
2259.174854	204.000000
2260.770340	221.333333
2262.362181	208.000000
2263.953716	205.333333
2265.546613	160.000000
2267.134200	171.333333
2268.726483	165.333333
2270.313460	189.000000
2271.903464	155.000000
2273.488164	178.666667
2275.077558	152.666667
2276.661650	179.000000
2278.247102	191.666667
2279.830586	170.666667
2281.417095	162.666667
2282.999971	188.333333
2284.582544	194.000000
2286.164813	191.666667
2287.743452	205.666667
2289.325116	193.000000
2290.903151	170.000000
2292.484209	177.333333
2294.061640	172.666667
2295.637108	168.000000
2297.215598	164.000000
2298.790464	195.666667
2300.365029	193.333333
2301.939294	179.000000
2303.513258	192.666667
2305.086921	178.000000
2306.660285	191.666667
2308.230030	157.666667
2309.799476	174.333333
2311.371940	171.666667
2312.939130	184.333333
2314.509338	151.000000
2316.075931	175.666667
2317.643884	187.666667
2319.209881	164.000000
2320.775581	182.000000
2322.340983	167.333333
2323.904432	170.000000
2325.469240	193.666667
2327.030440	191.333333
2328.594654	200.000000
2330.153606	199.666667
2331.715573	154.000000
2333.275588	201.000000
2334.835309	170.666667
2336.393080	162.000000
2337.950556	145.000000
2339.507738	170.333333
2341.062972	168.000000
2342.617913	160.000000
2344.172559	199.666667
2345.726912	174.333333
2347.280972	195.333333
2348.834737	187.666667
2350.386558	224.000000
2351.936437	171.000000
2353.489323	177.666667
2355.036966	165.333333
2356.587618	159.666667
2358.134678	192.333333
2359.683096	199.666667
2361.231223	171.666667
2362.775761	174.666667
2364.321657	159.000000
2365.865615	189.333333
2367.410930	192.000000
2368.952660	188.333333
2370.495747	187.666667
2372.036898	170.666667
2373.577760	168.000000
2375.118333	209.333333
2376.658617	163.333333
2378.198612	152.666667
2379.735029	200.000000
2381.274447	196.666667
2382.810287	213.666667
2384.347485	180.333333
2385.881107	186.000000
2387.417729	190.000000
2388.952421	179.666667
2390.485183	190.666667
2392.017658	174.333333
2393.548205	141.000000
2395.081750	171.000000
2396.610084	193.666667
2398.139774	159.666667
2399.669179	175.000000
2401.198299	149.000000
2402.727134	189.333333
2404.250763	186.000000
2405.779028	212.666667
2407.302091	167.333333
2408.829787	195.000000
2410.350644	159.666667
2411.876134	206.666667
2413.398063	189.000000
2414.921348	213.333333
2416.442711	164.666667
2417.962155	211.666667
2419.482954	163.666667
2421.001835	186.333333
2422.520433	193.000000
2424.037114	154.666667
2425.555149	168.000000
2427.072903	224.000000
2428.587106	200.000000
2430.101028	190.000000
2431.614670	211.000000
2433.129667	188.666667
2434.641115	226.333333
2436.153918	189.666667
2437.664807	208.000000
2439.175418	201.000000
2440.684117	175.666667
2442.195802	199.000000
2443.703944	224.666667
2445.211808	241.333333
2446.719394	209.666667
2448.223439	243.666667
2449.730469	197.000000
2451.235591	224.000000
2452.740436	228.000000
2454.243374	245.000000
2455.746036	232.333333
2457.248421	213.000000
2458.748901	223.333333
2460.250734	227.666667
2461.750662	221.666667
2463.250315	204.000000
2464.749693	227.333333
2466.247168	194.666667
2467.742741	202.000000
2469.241294	218.000000
2470.736319	198.333333
2472.232696	192.666667
2473.725547	213.000000
2475.219751	212.333333
2476.713681	166.666667
2478.204087	175.000000
2479.697471	171.666667
2481.188957	188.333333
2482.678546	193.333333
2484.167863	183.666667
2485.655284	183.333333
2487.145681	222.666667
2488.632560	182.000000
2490.120790	200.333333
2491.605503	208.000000
2493.089947	195.333333
2494.575741	194.333333
2496.059644	192.000000
2497.544897	204.000000
2499.025017	220.333333
2500.508110	180.333333
2501.989312	193.333333
2503.470245	210.000000
2504.949289	157.333333
2506.428064	153.333333
2507.906571	151.333333
2509.384810	179.000000
2510.862780	178.666667
2512.337245	160.333333
2513.814680	190.333333
2515.288611	168.000000
2516.763892	177.333333
2518.238906	212.000000
2519.710419	230.000000
2521.183283	147.333333
2522.654264	198.333333
2524.126595	161.000000
2525.593812	177.333333
2527.063996	183.000000
2528.532299	167.333333
2530.000337	164.333333
2531.468110	156.666667
2532.935618	176.000000
2534.402861	177.333333
2535.866612	211.333333
2537.331713	186.333333
2538.794937	164.333333
2540.259510	166.666667
2541.720595	180.000000
2543.183029	190.000000
2544.645200	187.333333
2546.103885	176.666667
2547.567141	195.666667
2549.025302	187.000000
2550.484811	180.666667
2551.939226	197.333333
2553.398212	159.000000
2554.855326	200.333333
2556.310569	160.000000
2557.765550	208.000000
2559.218663	182.333333
2560.673124	187.666667
2562.125715	190.000000
2563.578047	186.333333
2565.028512	203.000000
2566.481932	190.333333
2567.930270	172.333333
2569.381563	173.666667
2570.830991	149.333333
2572.276946	202.000000
2573.725856	178.666667
2575.171296	152.333333
2576.618083	203.666667
2578.063008	250.000000
2579.507674	170.666667
2580.953688	211.666667
2582.396236	197.000000
2583.840131	273.666667
2585.280561	172.333333
2586.722338	199.666667
2588.162256	197.000000
2589.603521	197.666667
2591.041324	180.333333
2592.482077	212.333333
2593.917768	174.333333
2595.356408	177.333333
2596.793190	235.000000
2598.228117	222.333333
2599.665991	195.666667
2601.098808	200.666667
2602.532972	207.333333
2603.965282	204.333333
2605.398938	180.000000
2606.830741	207.000000
2608.262290	197.333333
2609.693587	230.000000
2611.123031	216.666667
2612.552223	198.000000
2613.979565	230.000000
2615.408252	225.000000
2616.836688	219.000000
2618.261676	228.666667
2619.688011	201.666667
2621.112497	236.666667
2622.538329	254.333333
2623.960717	269.333333
2625.384451	225.000000
2626.806338	252.333333
2628.227976	231.666667
2629.647768	298.666667
2631.068906	290.000000
2632.489794	266.333333
2633.907244	263.333333
2635.327633	328.666667
2636.744585	271.666667
2638.161288	343.666667
2639.577743	333.333333
2640.993950	362.666667
2642.409909	359.333333
2643.824027	404.000000
2645.237897	435.000000
2646.649929	415.000000
2648.063304	431.333333
2649.473250	444.000000
2650.886132	481.666667
2652.295585	465.666667
2653.704792	509.333333
2655.112163	555.000000
2656.522468	550.000000
2657.930938	606.000000
2659.337572	595.333333
2660.743961	661.000000
2662.148516	659.333333
2663.554415	696.666667
2664.958481	787.666667
2666.362302	814.000000
2667.765879	793.000000
2669.167625	871.000000
2670.570714	920.333333
2671.970385	968.333333
2673.371400	1026.666667
2674.768999	995.333333
2676.169527	1033.333333
2677.566641	1087.666667
2678.965098	1113.000000
2680.361728	1084.333333
2681.758115	1102.333333
2683.154260	1196.333333
2684.548579	1156.333333
2685.944241	1137.333333
2687.336494	1084.666667
2688.730089	1105.333333
2690.121860	1080.000000
2691.514974	1073.666667
2692.906264	985.666667
2694.295731	1060.666667
2695.684958	971.666667
2697.073946	963.333333
2698.464275	898.000000
2699.849621	882.000000
2701.237890	832.666667
2702.624339	842.666667
2704.010549	806.000000
2705.396520	791.000000
2706.779093	747.333333
2708.163008	701.000000
2709.546685	633.333333
2710.930123	691.666667
2712.310167	591.000000
2713.691551	627.333333
2715.071121	568.333333
2716.452031	507.000000
2717.831127	494.000000
2719.208409	511.666667
2720.587032	472.333333
2721.963842	455.666667
2723.340415	424.000000
2724.716753	448.000000
2726.091280	402.333333
2727.467147	402.333333
2728.839627	372.333333
2730.215023	391.666667
2731.585459	319.666667
2732.957236	334.000000
2734.328778	311.000000
2735.698512	311.000000
2737.069587	295.000000
2738.438853	297.000000
2739.807886	257.333333
2741.175113	253.000000
2742.542106	292.333333
2743.908867	256.000000
2745.275396	260.333333
2746.640119	247.333333
2748.004610	243.000000
2749.368870	214.666667
2750.732897	207.000000
2752.096693	242.333333
2753.457115	220.666667
2754.820447	201.666667
2756.178837	199.000000
2757.540137	173.666667
2758.898067	201.333333
2760.258905	212.000000
2761.617944	187.000000
2762.973614	185.000000
2764.332192	189.666667
2765.687403	204.666667
2767.042385	176.666667
2768.395571	192.000000
2769.751662	192.000000
2771.104390	196.666667
2772.456890	137.666667
2773.809161	205.333333
2775.162770	183.666667
2776.513019	205.000000
2777.861473	215.333333
2779.212833	179.000000
2780.560833	192.666667
2781.910171	190.666667
2783.257717	213.000000
2784.605037	172.000000
2785.952130	165.666667
2787.297432	176.333333
2788.642507	194.666667
2789.987357	197.000000
2791.331981	171.000000
2792.673253	167.000000
2794.015863	199.333333
2795.358247	151.666667
2796.700406	176.666667
2798.039216	196.333333
2799.380926	173.666667
2800.719288	163.333333
2802.058986	211.333333
2803.396900	186.000000
2804.733029	132.000000
2806.068934	189.333333
2807.406177	153.666667
2808.741636	176.000000
2810.076872	194.000000
2811.410325	171.333333
2812.745115	162.333333
2814.076565	188.666667
2815.410910	192.000000
2816.740357	161.333333
2818.071141	153.000000
2819.401703	165.333333
2820.730486	165.000000
2822.060605	157.000000
2823.388946	140.666667
2824.717066	158.000000
2826.043408	174.000000
2827.371087	151.000000
2828.695432	179.666667
2830.021114	160.666667
2831.345020	154.000000
2832.668707	162.333333
2833.993729	167.000000
2835.315421	138.000000
2836.636895	135.333333
2837.958150	147.333333
2839.279186	135.000000
2840.598449	178.333333
2841.919048	139.333333
2843.237876	172.000000
2844.556485	123.666667
2845.873323	159.666667
2847.189944	145.333333
2848.506348	145.333333
2849.820982	136.000000
2851.136952	162.000000
2852.449601	188.333333
2853.763585	169.000000
2855.077353	122.666667
2856.390904	179.000000
2857.702689	142.000000
2859.012707	138.000000
2860.324060	145.333333
2861.632098	135.333333
2862.941470	192.666667
2864.250628	160.666667
2865.559570	130.000000
2866.866748	126.333333
2868.172164	138.000000
2869.478913	141.000000
2870.783901	168.333333
2872.088675	150.333333
2873.391687	125.666667
2874.697580	145.666667
2875.998619	127.000000
2877.300992	141.000000
2878.601605	130.000000
2879.903552	133.333333
2881.205285	142.000000
2882.503715	125.666667
2883.803478	105.000000
2885.101484	116.666667
2886.399278	120.666667
2887.695316	105.333333
2888.992687	138.666667
2890.288302	151.333333
2891.583706	111.000000
2892.878899	150.666667
2894.170795	141.000000
2895.465567	119.000000
2896.757042	177.000000
2898.049850	125.000000
2899.342448	160.333333
2900.631752	131.666667
2901.922388	127.666667
2903.211273	176.000000
2904.501490	155.000000
2905.788416	132.000000
2907.076674	114.000000
2908.363183	151.666667
2909.649483	126.666667
2910.935576	152.333333
2912.219920	116.666667
2913.507135	134.666667
2914.789524	110.666667
2916.073245	147.000000
2917.355220	151.000000
2918.636987	106.000000
2919.917010	152.666667
2921.199902	141.333333
2922.481049	116.666667
2923.758914	131.333333
2925.039648	136.666667
2926.317101	136.000000
2927.594348	153.000000
2928.869853	118.000000
2930.148226	109.000000
2931.421785	123.000000
2932.698211	125.666667
2933.972896	100.333333
2935.245840	143.000000
2936.520116	130.666667
2937.792652	103.666667
2939.064983	123.666667
2940.334042	101.333333
2941.605966	139.333333
2942.876152	141.333333
2944.146134	125.000000
2945.415913	131.333333
2946.683956	125.333333
2947.950262	111.333333
2949.216367	121.666667
2950.483801	107.666667
2951.749501	132.666667
2953.014998	106.333333
2954.280293	130.666667
2955.542323	111.333333
2956.805683	144.666667
2958.068842	116.000000
2959.330269	114.000000
2960.593025	134.666667
2961.854049	137.333333
2963.113343	119.000000
2964.372437	145.666667
2965.631330	120.333333
2966.890023	134.666667
2968.148516	135.000000
2969.405280	141.666667
2970.661844	150.000000
2971.916681	119.000000
2973.172846	114.333333
2974.425757	120.000000
2975.679997	96.000000
2976.934037	148.333333
2978.186353	88.666667
2979.438469	117.333333
2980.688861	127.000000
2981.942108	123.000000
2983.190578	91.666667
2984.441903	129.666667
2985.689978	91.000000
2986.937857	99.333333
2988.185538	105.666667
2989.433022	116.666667
2990.678785	120.666667
2991.924352	118.333333
2993.171246	121.333333
2994.414896	156.333333
2995.659874	129.666667
2996.901608	128.000000
2998.146194	111.000000
2999.389061	115.333333
3000.628687	127.000000
3001.871163	124.000000
3003.110399	119.333333
3004.350963	146.000000
3005.589810	147.666667
3006.828463	122.000000
3008.065400	140.333333
3009.303665	115.666667
3010.540214	110.666667
3011.776570	137.333333
3013.012732	115.000000
3014.247180	141.666667
3015.481436	127.000000
3016.715498	135.000000
3017.947848	117.666667
3019.178486	94.000000
3020.411970	117.666667
3021.643742	105.000000
3022.873804	87.000000
3024.103673	121.333333
3025.331833	96.333333
3026.561320	141.666667
3027.789097	120.000000
3029.016683	183.000000
3030.245596	123.666667
3031.469766	133.000000
3032.696779	91.333333
3033.920568	112.000000
3035.145684	130.666667
3036.369093	120.000000
3037.592312	129.000000
3038.813826	130.333333
3040.038181	123.000000
3041.257801	119.666667
3042.478747	120.000000
3043.699504	96.666667
3044.918557	92.333333
3046.138935	136.333333
3047.356097	121.000000
3048.574585	132.000000
3049.791370	123.333333
3051.007968	105.000000
3052.224377	97.000000
3053.437574	141.333333
3054.653608	116.333333
3055.866430	149.333333
3057.082089	97.000000
3058.293025	130.333333
3059.505286	90.666667
3060.717361	105.666667
3061.929248	108.666667
3063.139439	146.000000
3064.349443	112.666667
3065.559261	108.333333
3066.767383	105.333333
3067.975320	148.666667
3069.181561	113.333333
3070.389127	105.000000
3071.594998	111.333333
3072.800685	117.666667
3074.006186	120.666667
3075.209994	95.000000
3076.415126	116.000000
3077.618565	88.666667
3078.820313	87.333333
3080.021876	139.333333
3081.223256	113.000000
3082.424452	96.333333
3083.623958	108.666667
3084.823281	125.333333
3086.023927	96.333333
3087.222883	98.000000
3088.418645	122.666667
3089.617236	108.666667
3090.812633	99.333333
3092.009353	131.666667
3093.202881	137.666667
3094.399237	124.666667
3095.593907	83.333333
3096.785385	114.333333
3097.981196	93.333333
3099.172312	100.333333
3100.364752	100.000000
3101.554004	98.000000
3102.746081	66.666667
3103.936475	108.000000
3105.123683	82.666667
3106.312213	118.666667
3107.502066	80.666667
3108.688735	130.333333
3109.875223	114.333333
3111.061533	93.666667
3112.249164	112.333333
3113.433613	123.333333
3114.616383	121.666667
3115.801975	139.666667
3116.985888	123.000000
3118.168122	119.666667
3119.350177	133.333333
3120.532054	129.333333
3121.713753	103.333333
3122.893775	130.000000
3124.072120	105.000000
3125.253285	103.000000
3126.431275	118.666667
3127.609089	94.666667
3128.786725	92.000000
3129.962686	99.333333
3131.138470	89.666667
3132.315576	136.000000
3133.491007	85.000000
3134.664765	112.333333
3135.836850	88.666667
3137.010257	101.666667
3138.183487	109.666667
3139.355046	113.666667
3140.527925	117.666667
3141.697637	128.000000
3142.868670	128.000000
3144.038033	113.333333
3145.205725	81.333333
3146.376233	101.000000
3147.542083	91.333333
3148.712241	118.666667
3149.877743	138.666667
3151.043070	107.000000
3152.208224	83.666667
3153.373205	105.000000
3154.539505	128.000000
3155.701153	124.666667
3156.864120	92.666667
3158.026915	124.000000
3159.189537	108.000000
3160.350494	126.000000
3161.511278	99.666667
3162.671890	101.333333
3163.830838	143.000000
3164.989615	97.000000
3166.148220	101.000000
3167.306652	107.666667
3168.464914	100.666667
3169.621513	115.666667
3170.776451	119.000000
3171.932708	120.333333
3173.087304	103.000000
3174.241730	132.000000
3175.394496	118.000000
3176.547091	93.000000
3177.699517	120.666667
3178.851773	105.000000
3180.003858	82.000000
3181.152798	105.666667
3182.304544	103.333333
3183.454632	123.333333
3184.603064	113.000000
3185.751326	92.666667
3186.899420	121.333333
3188.047345	121.333333
3189.193614	89.333333
3190.339715	101.333333
3191.484162	106.666667
3192.628441	127.333333
3193.772552	106.666667
3194.917980	96.000000
3196.060270	114.333333
3197.202393	76.333333
3198.344348	79.000000
3199.486136	101.000000
3200.627757	97.333333
3201.766243	94.000000
3202.906046	110.333333
3204.047167	81.000000
3205.185153	99.333333
3206.321490	140.333333
3207.457661	84.000000
3208.595149	115.333333
3209.730989	79.666667
3210.868146	56.000000
3212.000690	102.333333
3213.137516	88.333333
3214.269730	93.000000
3215.403261	86.000000
3216.536628	88.333333
3217.666867	108.000000
3218.799904	80.333333
3219.929815	124.666667
3221.061042	95.333333
3222.189145	89.666667
3223.320044	100.666667
3224.449299	106.000000
3225.576911	126.000000
3226.701400	92.333333
3227.830165	111.000000
3228.955808	120.333333
3230.081289	146.333333
3231.205128	150.666667
3232.331761	140.666667
3233.453797	134.000000
3234.577149	79.000000
3235.700339	103.333333
3236.823366	135.333333
3237.944755	112.666667
3239.065981	108.000000
3240.185570	115.666667
3241.304997	114.333333
3242.422786	127.000000
3243.543367	122.666667
3244.660835	140.333333
3245.778142	117.666667
3246.895289	122.000000
3248.010800	137.666667
3249.127625	135.333333
3250.241341	98.666667
3251.357846	140.333333
3252.472717	126.666667
3253.584479	125.666667
3254.696081	74.333333
3255.808999	68.333333
3256.921757	128.000000
3258.031409	119.666667
3259.142376	85.333333
3260.253184	104.666667
3261.362360	90.333333
3262.469906	108.333333
3263.578765	95.666667
3264.687467	97.666667
3265.793066	96.000000
3266.899979	94.333333
3268.005263	74.666667
3269.111861	80.000000
3270.215359	94.333333
3271.320172	88.666667
3272.424827	53.666667
3273.526383	105.000000
3274.627783	47.666667
3275.730497	97.333333
3276.833055	71.666667
3277.932516	79.000000
3279.034761	84.333333
3280.133910	111.666667
3281.231435	78.666667
3282.328804	93.333333
3283.428955	130.000000
3284.526014	72.000000
3285.622917	97.000000
3286.719665	87.000000
3287.811855	50.666667
3288.908293	79.333333
3290.003109	66.666667
3291.097771	99.333333
3292.190811	73.333333
3293.283696	80.666667
3294.374962	78.333333
3295.467539	66.000000
3296.558497	99.333333
3297.647835	88.000000
3298.737020	110.000000
3299.827518	107.666667
3300.914931	38.333333
3302.002191	78.666667
3303.090764	84.000000
3304.179185	43.333333
3305.263058	112.000000
3306.351173	59.666667
3307.436206	91.333333
3308.519624	84.666667
3309.604354	35.333333
3310.687468	78.333333
3311.771895	67.000000
3312.853243	81.666667
3313.935903	80.666667
3315.016949	86.000000
3316.097844	77.666667
3317.177125	79.333333
3318.256256	74.666667
3319.336699	68.666667
3320.414067	82.333333
3321.492747	55.000000
3322.569815	81.000000
3323.646734	93.000000
3324.722041	78.666667
3325.797199	110.000000
3326.873668	63.333333
3327.947067	91.666667
3329.020317	100.333333
3330.094877	82.333333
3331.167829	47.000000
3332.239172	85.333333
3333.311826	65.333333
3334.381414	74.333333
3335.452312	90.666667
3336.521603	94.333333
3337.592205	94.000000
3338.661200	97.666667
3339.728589	45.666667
3340.794373	78.666667
3341.864383	108.333333
3342.931330	103.000000
3343.995215	72.000000
3345.061868	97.666667
3346.126916	72.000000
3347.190361	81.333333
3348.253660	54.000000
3349.316812	69.000000
3350.379818	82.000000
3351.442678	87.666667
3352.503936	75.333333
3353.562137	88.333333
3354.624558	73.000000
3355.683924	84.333333
3356.743144	86.666667
3357.803673	82.666667
3358.859694	54.333333
3359.918478	67.666667
3360.972755	68.000000
3362.029796	66.333333
3363.085238	77.000000
3364.141990	56.000000
3365.197143	49.666667
3366.250699	51.333333
3367.302659	44.333333
3368.357380	67.333333
3369.409052	104.000000
3370.460581	46.000000
3371.513418	48.000000
3372.563208	93.666667
3373.614307	71.000000
3374.662360	113.000000
3375.713172	72.000000
3376.760940	99.000000
3377.808565	67.000000
3378.856047	85.000000
3379.901937	50.000000
3380.949135	107.666667
3381.993291	61.000000
3383.040205	77.000000
3384.085527	47.666667
3385.127808	72.666667
3386.169949	103.000000
3387.213397	95.333333
3388.256704	65.666667
3389.298422	58.333333
3390.339998	76.000000
3391.381433	76.333333
3392.421280	78.333333
3393.459538	102.333333
3394.499104	68.333333
3395.538530	84.333333
3396.576368	102.000000
3397.612619	99.666667
3398.648731	89.333333
3399.686150	57.333333
3400.720536	74.333333
3401.756229	81.000000
3402.791783	59.333333
3403.824306	70.000000
3404.859582	79.666667
3405.891827	113.000000
3406.923934	81.000000
3407.954457	77.000000
3408.986287	74.333333
3410.017979	67.666667
3411.046643	74.666667
3412.075170	77.333333
3413.105003	64.333333
3414.134699	58.000000
3415.161369	63.000000
3416.189346	95.666667
3417.214298	83.666667
3418.242000	53.333333
3419.266679	65.333333
3420.292664	51.333333
3421.317069	55.333333
3422.341338	72.000000
3423.364028	49.000000
3424.386582	87.000000
3425.410442	59.000000
3426.431282	95.666667
3427.451986	63.666667
3428.473997	105.000000
3429.492989	46.666667
3430.511845	80.000000
3431.532008	70.333333
3432.549154	64.666667
