-116.707459	-4.333333
-114.037859	-18.666667
-111.371194	12.666667
-108.705281	-42.333333
-106.042300	-13.000000
-103.377890	5.666667
-100.716410	12.000000
-98.053501	-12.666667
-95.395698	7.333333
-92.736466	-3.666667
-90.077982	19.666667
-87.422422	12.333333
-84.765434	2.333333
-82.113544	-7.666667
-79.460224	22.333333
-76.809823	21.666667
-74.157993	2.666667
-71.511254	-26.333333
-68.863086	4.000000
-66.215660	6.666667
-63.571148	10.000000
-60.925208	9.000000
-58.284349	8.666667
-55.642061	3.000000
-53.002682	15.666667
-50.361873	-9.000000
-47.721805	-7.333333
-45.086809	-10.666667
-42.450385	24.000000
-39.816863	26.666667
-37.181913	-3.333333
-34.552028	1.333333
-31.918551	24.000000
-29.290136	20.000000
-26.662455	37.000000
-24.033345	49.000000
-21.409292	47.666667
-18.781650	61.666667
-16.159061	62.000000
-13.537204	58.333333
-10.916077	106.000000
-8.295680	306.333333
-5.678172	948.666667
-3.059235	3176.000000
-0.443183	10233.000000
2.172140	15367.333333
4.786736	9341.666667
7.398449	944.666667
10.011591	125.333333
12.619699	78.666667
15.231389	31.333333
17.838048	42.333333
20.446135	37.000000
23.053498	7.000000
25.655836	32.333333
28.261752	20.333333
30.862646	45.333333
33.464968	26.666667
36.062273	-8.000000
38.663153	9.000000
41.259018	-12.666667
43.856312	-2.333333
46.452886	-5.333333
49.044451	24.666667
51.637444	29.333333
54.227576	-7.000000
56.819136	31.000000
59.407836	-1.000000
61.997963	20.666667
64.583091	-10.000000
67.169647	22.333333
69.755489	0.666667
72.338477	9.000000
74.922891	14.666667
77.500177	-34.000000
80.081029	-10.666667
82.659032	23.000000
85.236325	19.666667
87.815044	38.666667
90.388781	22.000000
92.963946	35.333333
95.536267	-1.333333
98.107880	-6.333333
100.676653	-10.666667
103.246853	25.333333
105.814215	3.666667
108.383002	11.333333
110.948953	43.333333
113.512069	-11.333333
116.078741	10.000000
118.636192	2.000000
121.199328	20.666667
123.757504	60.333333
126.319235	50.333333
128.876009	78.000000
131.434210	123.333333
133.987457	159.666667
136.540007	240.000000
139.096107	355.333333
141.647259	455.333333
144.197714	570.333333
146.747471	599.333333
149.294409	673.333333
151.840652	683.666667
154.388320	723.333333
156.935292	722.333333
159.477329	683.666667
162.018672	726.333333
164.559322	694.333333
167.101398	698.333333
169.640662	696.000000
172.177118	677.000000
174.712882	717.000000
177.250072	661.000000
179.786571	682.666667
182.320264	649.333333
184.851153	705.000000
187.381355	663.333333
189.912981	627.666667
192.441806	629.666667
194.967832	682.333333
197.493172	690.000000
200.019937	624.666667
202.543906	669.666667
205.067190	671.666667
207.589789	649.666667
210.109595	649.666667
212.628718	676.666667
215.147158	661.000000
217.667022	670.666667
220.179885	685.666667
222.696279	704.333333
225.211991	693.333333
227.722813	707.000000
230.235060	793.000000
232.744525	689.333333
235.253311	710.666667
237.761418	691.333333
240.270950	739.666667
242.775601	751.000000
245.279576	765.333333
247.784975	746.333333
250.285499	738.000000
252.789547	742.666667
255.286623	731.333333
257.787223	699.666667
260.285051	746.666667
262.782206	721.333333
265.278688	742.333333
267.770307	711.333333
270.265446	704.333333
272.757818	738.000000
275.249520	760.000000
277.738459	757.666667
280.228822	745.666667
282.716422	743.000000
285.201263	788.333333
287.689619	753.000000
290.171035	762.000000
292.655965	774.000000
295.136050	798.666667
297.619647	842.666667
300.098401	880.333333
302.578579	847.666667
305.056004	902.000000
307.532766	853.000000
310.008865	868.666667
312.482215	779.333333
314.954903	814.333333
317.426930	819.666667
319.898296	859.666667
322.366917	823.000000
324.834880	849.333333
327.304264	798.000000
329.768826	768.333333
332.236892	720.333333
334.700138	688.666667
337.162726	710.666667
339.624658	727.666667
342.085933	685.000000
344.544474	674.666667
347.004437	643.333333
349.461667	634.000000
351.918243	670.333333
354.374165	646.666667
356.827357	665.333333
359.281972	688.333333
361.731785	631.000000
364.185094	616.000000
366.633605	631.000000
369.081464	621.666667
371.530746	664.000000
373.975234	598.666667
376.421144	611.000000
378.866404	583.333333
381.308946	599.333333
383.750840	625.666667
386.192087	558.000000
388.630618	606.333333
391.070571	573.333333
393.507810	580.333333
395.942337	565.333333
398.380352	562.333333
400.813590	574.666667
403.248249	638.666667
405.678136	564.000000
408.111508	571.666667
410.540110	585.000000
412.968070	583.666667
415.397452	579.333333
417.822068	593.666667
420.248106	563.666667
422.673503	564.333333
425.098260	555.666667
427.518259	554.666667
429.939679	561.666667
432.358402	521.666667
434.778546	527.666667
437.195995	485.000000
439.614864	521.666667
442.031040	479.333333
444.442468	488.000000
446.857374	487.333333
449.269589	503.333333
451.681170	516.666667
454.092117	500.666667
456.500378	482.333333
458.908006	446.666667
461.315002	464.666667
463.721367	471.333333
466.125049	427.333333
468.528101	421.333333
470.930523	447.666667
473.332315	431.000000
475.731430	468.666667
478.131964	411.666667
480.531869	469.333333
482.927051	451.000000
485.325700	483.000000
487.719629	507.333333
490.112932	510.333333
492.505609	523.666667
494.897661	550.000000
497.291131	560.000000
499.679889	654.000000
502.065981	765.000000
504.453493	959.000000
506.840382	1195.666667
509.224607	1683.333333
511.610250	2418.333333
513.993232	3539.000000
516.373553	4610.000000
518.755293	5533.666667
521.134374	5676.333333
523.514874	5175.333333
525.892716	4252.000000
528.267903	3477.000000
530.642472	2887.666667
533.018459	2424.000000
535.391794	2050.666667
537.766546	1837.666667
540.136613	1541.666667
542.506064	1496.333333
544.876933	1332.333333
547.243122	1262.333333
549.610729	1145.333333
551.975690	1114.666667
554.340038	1036.000000
556.703773	1038.000000
559.068926	930.666667
561.429407	934.666667
563.791306	875.000000
566.150564	869.000000
568.507185	780.333333
570.867250	781.666667
573.220624	790.333333
575.577443	739.000000
577.931627	762.666667
580.285202	764.333333
582.638170	668.000000
584.988505	718.333333
587.340258	648.666667
589.685334	655.000000
592.035874	646.666667
594.379740	652.000000
596.729068	638.333333
599.073747	613.666667
601.415802	574.666667
603.759274	616.000000
606.100123	590.666667
608.440370	599.000000
610.777996	560.333333
613.119057	609.000000
615.455480	690.666667
617.793320	657.333333
620.128543	655.333333
622.461150	669.000000
624.795173	595.000000
627.126582	621.666667
629.457393	610.000000
631.787607	595.000000
634.117222	568.666667
636.442214	602.666667
638.772648	527.333333
641.098461	572.666667
643.421666	580.000000
645.746288	571.000000
648.068304	537.666667
650.389726	534.000000
652.708546	481.000000
655.028781	506.000000
657.348423	488.000000
659.665464	506.000000
661.981913	518.000000
664.295764	527.333333
666.611031	468.666667
668.923701	502.000000
671.237786	512.000000
673.547271	542.666667
675.858172	544.666667
678.166480	525.333333
680.474200	468.000000
682.783334	519.666667
685.087876	500.000000
687.391832	498.333333
689.695202	450.666667
691.999986	425.666667
694.300184	448.333333
696.601796	461.333333
698.902823	374.000000
701.199269	442.333333
703.497130	414.333333
705.794407	440.666667
708.091101	398.333333
710.383219	389.333333
712.678748	415.666667
714.969703	420.333333
717.262073	435.666667
719.551868	382.333333
721.841082	377.000000
724.129717	431.000000
726.415779	385.666667
728.703256	456.333333
730.988161	407.000000
733.272489	405.333333
735.554248	370.333333
737.837421	427.333333
740.120017	387.333333
742.398057	394.000000
744.677512	374.333333
746.956390	393.000000
749.234694	426.000000
751.508448	411.666667
753.783615	384.666667
756.058209	409.666667
758.330244	401.666667
760.603692	420.666667
762.874582	376.666667
765.142916	383.000000
767.412663	390.666667
769.679856	394.333333
771.946478	388.333333
774.212530	411.666667
776.476031	426.333333
778.740945	397.666667
781.005289	413.666667
783.265104	454.666667
785.526331	379.000000
787.786991	410.666667
790.045105	411.000000
792.300674	407.333333
794.559634	426.666667
796.812095	396.666667
799.069922	429.000000
801.323231	397.666667
803.574000	403.333333
805.826181	426.666667
808.075823	425.666667
810.326878	430.333333
812.573421	395.333333
814.821376	421.666667
817.066797	359.666667
819.313629	407.333333
821.559900	393.666667
823.801666	398.000000
826.046816	366.333333
828.285493	373.000000
830.527552	375.666667
832.765113	360.000000
835.004086	364.333333
837.240532	402.666667
839.478389	402.666667
841.713721	423.333333
843.946530	388.333333
846.180750	373.333333
848.412447	384.666667
850.643590	374.000000
852.874178	379.000000
855.104212	417.333333
857.333692	354.333333
859.558690	412.666667
861.787063	394.333333
864.010956	397.666667
866.236261	375.000000
868.457090	396.333333
870.681291	347.666667
872.901019	366.666667
875.122157	391.333333
877.342745	353.666667
879.560824	346.000000
881.780312	373.333333
883.995334	346.333333
886.209808	368.000000
888.423735	337.000000
890.637115	338.000000
892.849947	365.333333
895.062233	337.666667
897.272016	388.333333
899.481254	358.000000
901.689947	342.000000
903.896141	363.666667
906.103744	379.333333
908.308849	372.000000
910.513411	340.000000
912.715478	364.333333
914.918954	367.333333
917.119936	383.666667
919.320376	401.000000
921.522225	405.333333
923.717683	433.333333
925.916500	464.333333
928.110878	458.333333
930.308614	541.000000
932.501914	601.000000
934.696623	692.333333
936.888846	696.000000
939.080530	782.000000
941.271677	796.333333
943.460341	833.000000
945.648469	790.000000
947.834116	779.000000
950.023115	818.000000
952.207691	839.666667
954.391732	759.000000
956.579123	827.666667
958.758210	801.333333
960.940648	826.000000
963.122552	766.333333
965.301981	838.000000
967.478938	839.000000
969.657303	895.666667
971.837075	862.000000
974.010498	829.666667
976.187267	816.666667
978.359629	863.333333
980.533399	807.000000
982.702765	835.000000
984.875475	806.000000
987.045720	740.666667
989.215436	750.333333
991.384623	652.000000
993.549413	603.666667
995.717544	585.000000
997.881281	520.666667
1000.046424	520.000000
1002.209108	459.000000
1004.371267	481.333333
1006.530969	488.666667
1008.690146	495.333333
1010.850730	444.333333
1013.008859	467.000000
1015.166465	450.000000
1017.323547	423.666667
1019.480105	412.333333
1021.632284	437.666667
1023.785870	387.333333
1025.938934	405.000000
1028.089549	388.333333
1030.241571	372.666667
1032.389219	387.000000
1034.540199	348.666667
1036.686808	376.333333
1038.832898	397.000000
1040.978470	381.333333
1043.125447	382.333333
1045.266135	403.000000
1047.410153	396.666667
1049.551730	359.666667
1051.692791	399.000000
1053.835256	369.000000
1055.971442	379.333333
1058.110953	365.333333
1060.246110	369.333333
1062.384591	364.333333
1064.518718	399.000000
1066.652332	342.333333
1068.787351	364.000000
1070.918020	356.666667
1073.050094	377.666667
1075.179739	356.333333
1077.308872	398.333333
1079.437493	352.333333
1081.565603	388.666667
1083.691287	367.333333
1085.816461	350.333333
1087.943039	331.666667
1090.065279	324.333333
1092.188924	352.333333
1094.308234	357.666667
1096.432774	372.333333
1098.551068	359.000000
1100.670767	340.666667
1102.788047	347.333333
1104.904821	322.000000
1107.021088	342.666667
1109.134939	327.333333
1111.250195	357.333333
1113.361127	302.666667
1115.475372	348.000000
1117.585296	318.000000
1119.696624	330.333333
1121.807447	298.666667
1123.913954	331.333333
1126.023771	316.333333
1128.129273	324.666667
1130.236178	319.333333
1132.336868	340.333333
1134.442770	280.666667
1136.544363	354.666667
1138.647359	288.333333
1140.749854	320.333333
1142.846142	319.666667
1144.947637	339.666667
1147.044830	312.666667
1149.141525	332.000000
1151.237721	342.666667
1153.333420	341.000000
1155.428620	319.666667
1157.521424	345.000000
1159.615631	350.333333
1161.703646	336.333333
1163.796859	300.333333
1165.883884	306.666667
1167.974208	327.666667
1170.060244	323.666667
1172.149579	317.666667
1174.232732	365.666667
1176.317287	305.666667
1178.403244	307.666667
1180.484919	327.000000
1182.567996	303.000000
1184.648687	296.333333
1186.728886	324.000000
1188.808594	330.666667
1190.887811	341.666667
1192.964646	321.333333
1195.039100	318.666667
1197.116845	318.666667
1199.190321	319.333333
1201.265197	291.333333
1203.335806	322.666667
1205.407816	334.333333
1207.477451	329.666667
1209.548486	327.666667
1211.619033	312.666667
1213.685319	303.666667
1215.753006	317.000000
1217.818321	316.666667
1219.885036	319.666667
1221.947495	338.333333
1224.013239	299.000000
1226.074729	295.000000
1228.137620	330.333333
1230.198143	294.333333
1232.258182	312.666667
1234.317739	282.666667
1236.374930	337.000000
1238.431640	313.000000
1240.485986	371.666667
1242.543614	270.000000
1244.598879	361.666667
1246.649903	332.333333
1248.702327	341.000000
1250.754271	348.666667
1252.803857	337.333333
1254.852964	329.333333
1256.901593	330.666667
1258.949743	303.000000
1260.997414	343.000000
1263.040855	345.000000
1265.087572	357.000000
1267.131935	319.000000
1269.175822	343.333333
1271.217357	287.666667
1273.256543	307.666667
1275.299002	296.333333
1277.337238	325.333333
1279.376873	334.666667
1281.416033	347.000000
1283.450974	322.666667
1285.487314	348.666667
1287.521310	338.666667
1289.556703	364.333333
1291.587884	331.000000
1293.620462	358.000000
1295.652569	307.333333
1297.682335	303.333333
1299.713498	324.000000
1301.740455	267.000000
1303.768809	332.000000
1305.792958	338.000000
1307.820373	324.666667
1309.843585	313.000000
1311.868195	295.000000
1313.890471	314.000000
1315.914144	325.666667
1317.935484	319.666667
1319.956356	318.000000
1321.976761	345.333333
1323.992973	332.666667
1326.010582	365.666667
1328.025863	312.333333
1330.044403	327.666667
1332.058754	328.000000
1334.070779	374.000000
1336.086061	362.000000
1338.097158	367.000000
1340.109652	377.333333
1342.117963	374.000000
1344.129529	369.666667
1346.135057	430.000000
1348.143840	392.333333
1350.148445	377.666667
1352.156304	387.333333
1354.163701	416.000000
1356.165067	378.666667
1358.167829	416.333333
1360.170132	385.666667
1362.171975	375.666667
1364.173358	363.666667
1366.172428	370.666667
1368.171039	378.000000
1370.169192	358.000000
1372.166886	349.333333
1374.160418	354.666667
1376.155345	351.333333
1378.149816	343.333333
1380.143830	354.000000
1382.135537	367.333333
1384.126789	321.000000
1386.115735	367.000000
1388.106076	331.666667
1390.095962	303.666667
1392.083544	322.666667
1394.070673	333.666667
1396.055500	310.333333
1398.041722	350.666667
1400.025644	328.000000
1402.009113	342.000000
1403.992129	332.000000
1405.972848	338.000000
1407.954961	301.666667
1409.934778	332.000000
1411.914143	354.666667
1413.889370	372.000000
1415.867835	327.000000
1417.844007	305.666667
1419.819730	343.000000
1421.795003	313.000000
1423.767985	313.000000
1425.740519	399.000000
1427.712605	324.666667
1429.684244	345.333333
1431.651754	340.666667
1433.624338	327.000000
1435.589116	280.000000
1437.558967	309.666667
1439.524694	314.333333
1441.491813	341.666667
1443.456649	316.666667
1445.417365	342.666667
1447.383149	286.333333
1449.342978	331.000000
1451.304201	356.666667
1453.266816	357.000000
1455.225316	305.666667
1457.183373	343.333333
1459.140989	302.666667
1461.098162	318.666667
1463.053060	332.000000
1465.009351	344.333333
1466.963367	297.666667
1468.916942	325.000000
1470.868245	304.000000
1472.820941	384.000000
1474.771364	334.000000
1476.721349	308.000000
1478.670895	337.666667
1480.618172	337.333333
1482.563181	296.333333
1484.509583	329.333333
1486.455547	348.666667
1488.401074	318.666667
1490.344335	301.000000
1492.287161	332.666667
1494.227723	345.000000
1496.169676	383.666667
1498.109367	327.666667
1500.048624	313.666667
1501.987445	324.000000
1503.924007	354.666667
1505.861960	304.333333
1507.797654	311.333333
1509.732915	333.333333
1511.665920	347.333333
1513.598492	346.000000
1515.530632	359.333333
1517.462340	361.333333
1519.391794	397.666667
1521.322639	355.333333
1523.253052	350.333333
1525.179393	355.333333
1527.107125	361.333333
1529.032606	421.000000
1530.957658	420.666667
1532.882281	410.000000
1534.806475	412.333333
1536.728421	422.666667
1538.651758	396.333333
1540.572848	400.666667
1542.491694	430.333333
1544.411930	413.333333
1546.329923	447.333333
1548.247489	426.333333
1550.162813	488.333333
1552.079527	474.333333
1553.992186	475.333333
1555.908049	533.666667
1557.821672	571.000000
1559.733057	567.000000
1561.645832	582.666667
1563.554557	637.000000
1565.464671	705.333333
1567.374362	729.333333
1569.283630	832.333333
1571.190664	949.666667
1573.095465	1040.333333
1575.001655	1187.000000
1576.905613	1293.666667
1578.809150	1391.000000
1580.712267	1473.333333
1582.613154	1590.000000
1584.515430	1533.333333
1586.415478	1488.666667
1588.316913	1451.000000
1590.214315	1251.000000
1592.111298	1155.333333
1594.007863	1068.666667
1595.905816	997.333333
1597.797934	889.000000
1599.693245	819.000000
1601.588139	719.333333
1603.480811	674.000000
1605.373066	565.000000
1607.263102	573.333333
1609.152722	521.000000
1611.041927	499.000000
1612.930717	450.000000
1614.817289	519.333333
1616.705249	452.333333
1618.589192	493.666667
1620.474522	408.333333
1622.359439	456.666667
1624.242142	403.333333
1626.126232	378.000000
1628.006310	368.333333
1629.887776	394.666667
1631.767031	340.666667
1633.647672	345.666667
1635.522509	328.000000
1637.402327	331.333333
1639.278141	308.000000
1641.153544	337.333333
1643.030333	287.666667
1644.901326	308.000000
1646.775500	271.000000
1648.645675	307.000000
1650.519032	251.333333
1652.390184	289.000000
1654.259136	257.666667
1656.129472	300.000000
1657.995816	260.333333
1659.863545	256.666667
1661.729075	276.666667
1663.595991	278.666667
1665.458918	261.333333
1667.323230	260.666667
1669.185346	274.000000
1671.047057	242.333333
1672.910154	224.333333
1674.771055	265.666667
1676.629764	255.666667
1678.488069	269.000000
1680.347759	230.666667
1682.201681	251.666667
1684.058777	218.666667
1685.915470	253.000000
1687.768186	207.333333
1689.624074	265.000000
1691.475988	228.333333
1693.327501	237.000000
1695.178613	221.666667
1697.029325	223.000000
1698.879635	219.666667
1700.727762	267.333333
1702.577273	240.333333
1704.421035	222.000000
1706.269746	209.666667
1708.112711	233.000000
1709.958843	227.000000
1711.801012	253.333333
1713.646347	243.333333
1715.485941	238.000000
1717.326919	221.666667
1719.169280	252.333333
1721.007685	236.000000
1722.847473	197.666667
1724.685086	195.333333
1726.522303	229.333333
1728.357347	234.666667
1730.193774	242.000000
1732.028029	216.333333
1733.861889	220.000000
1735.695355	236.333333
1737.524876	223.000000
1739.357555	215.000000
1741.186290	211.333333
1743.018182	235.666667
1744.846132	214.000000
1746.673691	240.000000
1748.500857	217.666667
1750.327632	188.666667
1752.154015	244.000000
1753.976462	214.666667
1755.802064	256.666667
1757.623731	202.000000
1759.446780	214.666667
1761.267667	202.333333
1763.088166	229.000000
1764.910045	202.000000
1766.726226	245.000000
1768.545558	189.333333
1770.360963	255.000000
1772.179518	222.666667
1773.994148	175.666667
1775.808391	175.333333
1777.622248	244.333333
1779.435718	193.333333
1781.247035	232.000000
1783.059732	235.666667
1784.872044	240.000000
1786.680438	240.333333
1788.490212	212.333333
1790.296072	215.666667
1792.105077	226.333333
1793.910169	197.333333
1795.716642	227.666667
1797.522731	215.000000
1799.324909	229.666667
1801.130232	255.333333
1802.931646	215.333333
1804.734440	208.333333
1806.533328	217.000000
1808.333597	151.333333
1810.133484	208.666667
1811.931229	219.333333
1813.728594	225.333333
1815.525579	184.666667
1817.322183	244.666667
1819.116648	218.666667
1820.912492	217.666667
1822.702681	233.000000
1824.497767	220.333333
1826.287201	192.666667
1828.079771	203.666667
1829.870206	224.666667
1831.658507	230.333333
1833.449943	198.666667
1835.235733	219.666667
1837.022903	215.000000
1838.807941	233.333333
1840.596113	200.666667
1842.380399	220.666667
1844.162555	207.000000
1845.946091	206.000000
1847.727498	203.666667
1849.510284	212.000000
1851.289189	190.000000
1853.069474	223.666667
1854.847632	193.000000
1856.627169	197.000000
1858.404581	201.000000
1860.179869	229.333333
1861.956535	210.000000
1863.731079	226.666667
1865.507001	178.666667
1867.277302	274.333333
1869.050731	266.666667
1870.822040	260.000000
1872.592978	218.000000
1874.365294	198.666667
1876.131996	190.333333
1877.901824	213.666667
1879.667788	227.333333
1881.436875	218.000000
1883.202101	236.000000
1884.966959	237.000000
1886.733194	247.333333
1888.495570	225.333333
1890.257579	201.000000
1892.019220	232.333333
1893.780495	180.666667
1895.541402	239.333333
1897.301943	199.666667
1899.060374	200.666667
1900.818439	159.333333
1902.574397	205.333333
1904.331731	187.666667
1906.088700	218.000000
1907.843562	207.666667
1909.596320	171.666667
1911.348713	204.666667
1913.102483	213.000000
1914.854149	212.666667
1916.603713	210.000000
1918.354652	194.333333
1920.105229	220.000000
1921.851966	160.666667
1923.600080	205.333333
1925.346094	192.333333
1927.093483	205.000000
1928.838775	202.333333
1930.581969	205.333333
1932.326538	205.666667
1934.069012	182.000000
1935.811125	163.666667
1937.552878	195.000000
1939.294271	191.666667
1941.033571	224.666667
1942.772512	192.666667
1944.511094	211.666667
1946.247585	204.000000
1947.983718	199.833333
1949.721225	195.666667
1951.454910	194.333333
1953.189970	187.333333
1954.922941	189.666667
1956.655556	180.333333
1958.387815	215.000000
1960.119717	174.333333
1961.849533	186.666667
1963.577264	176.000000
1965.306370	187.333333
1967.035121	174.666667
1968.761788	229.333333
1970.488101	176.333333
1972.215787	219.333333
1973.937937	230.000000
1975.663188	235.666667
1977.384632	195.333333
1979.109177	232.666667
1980.831641	166.666667
1982.550303	182.333333
1984.272063	206.333333
1985.990021	210.666667
1987.709352	199.666667
1989.424884	225.333333
1991.145236	183.333333
1992.861790	208.333333
1994.574547	217.666667
1996.290400	227.333333
1998.004181	174.333333
1999.717612	230.666667
2001.428972	152.666667
2003.141704	186.000000
2004.850646	195.666667
2006.562680	215.666667
2008.269206	200.000000
2009.978823	221.666667
2011.686374	215.000000
2013.393576	201.666667
2015.098713	179.666667
2016.803504	235.000000
2018.509666	192.000000
2020.212046	234.000000
2021.915797	212.000000
2023.617486	222.333333
2025.318830	170.333333
2027.019828	231.333333
2028.718765	227.000000
2030.419074	219.666667
2032.115608	215.333333
2033.813513	174.333333
2035.509359	173.666667
2037.208291	226.666667
2038.901737	163.000000
2040.596554	176.000000
2042.291029	198.666667
2043.981735	197.333333
2045.675525	175.000000
2047.365548	179.000000
2049.056942	179.000000
2050.746283	229.333333
2052.436994	201.666667
2054.123942	239.000000
2055.810551	187.333333
2057.498529	192.666667
2059.182748	170.666667
2060.868338	197.333333
2062.553588	180.666667
2064.236789	211.666667
2065.921361	191.666667
2067.600470	182.333333
2069.284364	185.666667
2070.962797	199.666667
2072.644308	175.000000
2074.322067	187.000000
2075.999490	231.000000
2077.678282	207.333333
2079.355032	195.000000
2081.029740	192.666667
2082.705817	198.666667
2084.379853	202.666667
2086.053555	176.666667
2087.726921	191.333333
2089.398248	193.000000
2091.069241	227.000000
2092.739900	194.333333
2094.410225	212.666667
2096.080216	198.666667
2097.748171	173.666667
2099.415793	153.666667
2101.081380	162.666667
2102.748336	149.333333
2104.413259	178.000000
2106.077850	167.000000
2107.740409	189.000000
2109.404336	174.333333
2111.066232	183.666667
2112.727798	175.666667
2114.389032	240.666667
2116.048238	167.666667
2117.707113	194.000000
2119.365659	165.666667
2121.023874	188.666667
2122.678367	155.000000
2124.335924	183.000000
2125.993152	178.000000
2127.646658	198.000000
2129.301532	208.000000
2130.952687	194.666667
2132.606905	182.000000
2134.257406	176.333333
2135.909273	171.333333
2137.555732	193.000000
2139.206946	184.000000
2140.854446	177.333333
2142.503313	175.333333
2144.150161	195.333333
2145.796684	193.333333
2147.442881	175.666667
2149.085370	175.666667
2150.730917	189.333333
2152.372757	191.666667
2154.017654	225.333333
2155.658845	208.666667
2157.299714	204.666667
2158.940258	242.000000
2160.578790	167.000000
2162.218688	179.666667
2163.854886	203.333333
2165.492450	186.666667
2167.129692	180.333333
2168.764924	211.666667
2170.399835	229.333333
2172.034423	201.000000
2173.668691	234.000000
2175.299265	153.333333
2176.932891	213.666667
2178.562825	190.000000
2180.194124	197.666667
2181.823418	161.666667
2183.452393	177.333333
2185.081048	172.666667
2186.709384	209.000000
2188.335718	155.666667
2189.961733	162.666667
2191.585746	187.666667
2193.211125	196.666667
2194.834503	162.333333
2196.459246	204.666667
2198.080308	182.000000
2199.701053	194.333333
2201.323163	200.666667
2202.943275	212.333333
2204.561390	182.000000
2206.179190	173.000000
2207.796675	201.000000
2209.413844	206.666667
2211.030698	151.666667
2212.647236	222.333333
2214.261782	178.333333
2215.874335	187.333333
2217.488252	187.666667
2219.100178	214.333333
2220.713467	190.666667
2222.324766	210.333333
2223.934075	184.666667
2225.544748	160.333333
2227.153432	184.333333
2228.761803	175.333333
2230.368188	153.333333
2231.975936	208.666667
2233.581697	163.666667
2235.187147	189.000000
2236.790612	183.666667
2238.395440	181.333333
2239.998284	168.000000
2241.599145	197.333333
2243.201369	188.333333
2244.801611	193.000000
2246.403215	197.666667
2248.001166	188.333333
2249.600480	210.000000
2251.197814	193.333333
2252.794840	196.333333
2254.393228	220.333333
2255.987967	178.333333
2257.580729	187.000000
2259.174854	194.666667
2260.770340	225.333333
2262.362181	173.666667
2263.953716	175.000000
2265.546613	194.666667
2267.134200	192.666667
2268.726483	206.000000
2270.313460	208.000000
2271.903464	213.333333
2273.488164	166.666667
2275.077558	161.333333
2276.661650	164.666667
2278.247102	208.000000
2279.830586	203.333333
2281.417095	158.000000
2282.999971	160.333333
2284.582544	186.666667
2286.164813	183.333333
2287.743452	191.000000
2289.325116	184.000000
2290.903151	175.333333
2292.484209	221.000000
2294.061640	201.500000
2295.637108	182.000000
2297.215598	125.000000
2298.790464	184.000000
2300.365029	162.333333
2301.939294	196.000000
2303.513258	144.000000
2305.086921	190.333333
2306.660285	185.666667
2308.230030	182.333333
2309.799476	162.333333
2311.371940	214.333333
2312.939130	187.666667
2314.509338	175.000000
2316.075931	194.333333
2317.643884	220.000000
2319.209881	179.000000
2320.775581	167.666667
2322.340983	168.333333
2323.904432	179.666667
2325.469240	160.333333
2327.030440	205.000000
2328.594654	188.333333
2330.153606	167.666667
2331.715573	172.333333
2333.275588	201.666667
2334.835309	192.666667
2336.393080	211.333333
2337.950556	174.333333
2339.507738	177.000000
2341.062972	186.666667
2342.617913	173.333333
2344.172559	193.666667
2345.726912	179.000000
2347.280972	191.666667
2348.834737	185.666667
2350.386558	153.666667
2351.936437	188.666667
2353.489323	161.666667
2355.036966	169.000000
2356.587618	188.666667
2358.134678	167.666667
2359.683096	173.666667
2361.231223	196.333333
2362.775761	165.000000
2364.321657	183.666667
2365.865615	187.000000
2367.410930	149.666667
2368.952660	195.333333
2370.495747	160.666667
2372.036898	182.333333
2373.577760	212.666667
2375.118333	160.333333
2376.658617	190.666667
2378.198612	144.333333
2379.735029	172.000000
2381.274447	188.666667
2382.810287	173.000000
2384.347485	167.666667
2385.881107	173.333333
2387.417729	185.666667
2388.952421	191.666667
2390.485183	149.000000
2392.017658	199.000000
2393.548205	194.333333
2395.081750	157.333333
2396.610084	177.666667
2398.139774	176.333333
2399.669179	147.666667
2401.198299	159.666667
2402.727134	147.333333
2404.250763	194.000000
2405.779028	184.333333
2407.302091	187.666667
2408.829787	204.000000
2410.350644	162.666667
2411.876134	192.666667
2413.398063	180.000000
2414.921348	198.333333
2416.442711	209.666667
2417.962155	192.000000
2419.482954	235.666667
2421.001835	197.000000
2422.520433	191.666667
2424.037114	163.333333
2425.555149	187.666667
2427.072903	193.000000
2428.587106	213.333333
2430.101028	222.333333
2431.614670	193.666667
2433.129667	207.333333
2434.641115	254.333333
2436.153918	225.333333
2437.664807	189.333333
2439.175418	224.333333
2440.684117	226.666667
2442.195802	201.000000
2443.703944	245.333333
2445.211808	217.333333
2446.719394	251.666667
2448.223439	243.333333
2449.730469	238.666667
2451.235591	231.666667
2452.740436	246.333333
2454.243374	256.333333
2455.746036	236.666667
2457.248421	220.666667
2458.748901	243.666667
2460.250734	236.333333
2461.750662	253.000000
2463.250315	247.000000
2464.749693	198.333333
2466.247168	233.000000
2467.742741	229.666667
2469.241294	202.666667
2470.736319	220.333333
2472.232696	206.333333
2473.725547	247.000000
2475.219751	208.666667
2476.713681	226.666667
2478.204087	187.000000
2479.697471	229.666667
2481.188957	208.333333
2482.678546	243.000000
2484.167863	210.333333
2485.655284	194.666667
2487.145681	207.333333
2488.632560	226.000000
2490.120790	209.333333
2491.605503	215.000000
2493.089947	243.333333
2494.575741	219.333333
2496.059644	190.333333
2497.544897	218.333333
2499.025017	179.000000
2500.508110	202.333333
2501.989312	176.666667
2503.470245	184.333333
2504.949289	201.000000
2506.428064	178.666667
2507.906571	182.000000
2509.384810	186.666667
2510.862780	186.333333
2512.337245	227.333333
2513.814680	188.000000
2515.288611	170.333333
2516.763892	164.333333
2518.238906	184.666667
2519.710419	184.666667
2521.183283	166.000000
2522.654264	195.000000
2524.126595	192.000000
2525.593812	174.333333
2527.063996	189.666667
2528.532299	177.000000
2530.000337	208.666667
2531.468110	181.333333
2532.935618	213.666667
2534.402861	140.000000
2535.866612	190.333333
2537.331713	205.000000
2538.794937	178.333333
2540.259510	172.666667
2541.720595	182.000000
2543.183029	173.333333
2544.645200	185.666667
2546.103885	191.666667
2547.567141	202.333333
2549.025302	186.000000
2550.484811	196.333333
2551.939226	192.666667
2553.398212	182.666667
2554.855326	200.666667
2556.310569	221.000000
2557.765550	182.000000
2559.218663	201.666667
2560.673124	174.666667
2562.125715	211.333333
2563.578047	198.666667
2565.028512	196.333333
2566.481932	178.333333
2567.930270	206.000000
2569.381563	217.666667
2570.830991	182.000000
2572.276946	198.666667
2573.725856	204.666667
2575.171296	216.000000
2576.618083	201.333333
2578.063008	175.333333
2579.507674	213.333333
2580.953688	156.000000
2582.396236	212.333333
2583.840131	218.000000
2585.280561	203.666667
2586.722338	197.333333
2588.162256	221.333333
2589.603521	193.666667
2591.041324	223.333333
2592.482077	202.000000
2593.917768	237.000000
2595.356408	226.000000
2596.793190	189.333333
2598.228117	172.666667
2599.665991	227.000000
2601.098808	191.666667
2602.532972	214.666667
2603.965282	228.333333
2605.398938	208.000000
2606.830741	211.000000
2608.262290	223.666667
2609.693587	209.666667
2611.123031	183.000000
2612.552223	179.666667
2613.979565	236.666667
2615.408252	239.000000
2616.836688	238.666667
2618.261676	208.000000
2619.688011	266.333333
2621.112497	255.666667
2622.538329	233.666667
2623.960717	250.333333
2625.384451	287.000000
2626.806338	302.333333
2628.227976	263.666667
2629.647768	326.000000
2631.068906	326.666667
2632.489794	282.000000
2633.907244	325.666667
2635.327633	279.666667
2636.744585	378.666667
2638.161288	330.000000
2639.577743	390.333333
2640.993950	348.000000
2642.409909	395.666667
2643.824027	412.333333
2645.237897	424.000000
2646.649929	433.666667
2648.063304	506.666667
2649.473250	469.000000
2650.886132	491.000000
2652.295585	492.666667
2653.704792	539.333333
2655.112163	577.666667
2656.522468	603.666667
2657.930938	618.333333
2659.337572	660.333333
2660.743961	676.666667
2662.148516	737.333333
2663.554415	787.333333
2664.958481	824.000000
2666.362302	855.333333
2667.765879	898.333333
2669.167625	923.333333
2670.570714	1059.666667
2671.970385	1073.000000
2673.371400	1134.000000
2674.768999	1183.666667
2676.169527	1220.333333
2677.566641	1237.000000
2678.965098	1250.666667
2680.361728	1335.333333
2681.758115	1376.333333
2683.154260	1334.333333
2684.548579	1361.333333
2685.944241	1297.666667
2687.336494	1366.666667
2688.730089	1268.000000
2690.121860	1305.666667
2691.514974	1274.000000
2692.906264	1240.666667
2694.295731	1182.666667
2695.684958	1163.666667
2697.073946	1180.333333
2698.464275	1065.333333
2699.849621	1005.666667
2701.237890	1068.666667
2702.624339	891.000000
2704.010549	963.666667
2705.396520	879.000000
2706.779093	875.000000
2708.163008	794.000000
2709.546685	737.333333
2710.930123	746.000000
2712.310167	680.333333
2713.691551	626.000000
2715.071121	622.333333
2716.452031	523.666667
2717.831127	536.000000
2719.208409	540.333333
2720.587032	535.000000
2721.963842	485.666667
2723.340415	472.333333
2724.716753	414.666667
2726.091280	434.000000
2727.467147	424.000000
2728.839627	423.666667
2730.215023	394.333333
2731.585459	363.333333
2732.957236	324.666667
2734.328778	293.666667
2735.698512	332.666667
2737.069587	304.333333
2738.438853	255.333333
2739.807886	301.333333
2741.175113	289.333333
2742.542106	267.333333
2743.908867	223.666667
2745.275396	274.000000
2746.640119	266.333333
2748.004610	252.333333
2749.368870	237.666667
2750.732897	234.333333
2752.096693	244.000000
2753.457115	211.000000
2754.820447	244.000000
2756.178837	222.666667
2757.540137	215.333333
2758.898067	216.666667
2760.258905	208.000000
2761.617944	227.666667
2762.973614	184.000000
2764.332192	213.666667
2765.687403	195.000000
2767.042385	185.333333
2768.395571	179.333333
2769.751662	205.000000
2771.104390	188.666667
2772.456890	191.666667
2773.809161	170.666667
2775.162770	204.333333
2776.513019	179.333333
2777.861473	180.333333
2779.212833	188.666667
2780.560833	201.666667
2781.910171	217.333333
2783.257717	211.000000
2784.605037	149.333333
2785.952130	187.666667
2787.297432	206.666667
2788.642507	197.000000
2789.987357	181.000000
2791.331981	182.666667
2792.673253	182.333333
2794.015863	203.333333
2795.358247	145.000000
2796.700406	171.000000
2798.039216	156.000000
2799.380926	235.000000
2800.719288	172.333333
2802.058986	218.666667
2803.396900	188.000000
2804.733029	181.333333
2806.068934	174.000000
2807.406177	206.000000
2808.741636	184.000000
2810.076872	182.666667
2811.410325	200.666667
2812.745115	161.333333
2814.076565	157.333333
2815.410910	176.000000
2816.740357	183.333333
2818.071141	186.666667
2819.401703	163.000000
2820.730486	202.333333
2822.060605	197.000000
2823.388946	182.000000
2824.717066	141.333333
2826.043408	158.333333
2827.371087	129.666667
2828.695432	166.333333
2830.021114	165.000000
2831.345020	195.000000
2832.668707	146.666667
2833.993729	154.000000
2835.315421	169.000000
2836.636895	159.000000
2837.958150	147.000000
2839.279186	143.000000
2840.598449	126.333333
2841.919048	179.000000
2843.237876	159.666667
2844.556485	164.333333
2845.873323	129.000000
2847.189944	161.000000
2848.506348	128.666667
2849.820982	127.333333
2851.136952	150.666667
2852.449601	145.333333
2853.763585	136.000000
2855.077353	159.000000
2856.390904	136.000000
2857.702689	137.333333
2859.012707	169.000000
2860.324060	178.333333
2861.632098	161.333333
2862.941470	148.000000
2864.250628	152.333333
2865.559570	152.000000
2866.866748	170.000000
2868.172164	142.333333
2869.478913	153.000000
2870.783901	158.333333
2872.088675	159.000000
2873.391687	151.000000
2874.697580	143.666667
2875.998619	162.333333
2877.300992	137.333333
2878.601605	187.333333
2879.903552	125.333333
2881.205285	141.666667
2882.503715	144.333333
2883.803478	133.333333
2885.101484	147.666667
2886.399278	138.333333
2887.695316	135.666667
2888.992687	114.666667
2890.288302	148.333333
2891.583706	134.000000
2892.878899	149.000000
2894.170795	133.000000
2895.465567	128.333333
2896.757042	157.666667
2898.049850	192.666667
2899.342448	149.333333
2900.631752	115.666667
2901.922388	143.666667
2903.211273	113.000000
2904.501490	165.666667
2905.788416	156.666667
2907.076674	174.000000
2908.363183	137.333333
2909.649483	136.666667
2910.935576	160.666667
2912.219920	139.000000
2913.507135	161.000000
2914.789524	159.000000
2916.073245	137.333333
2917.355220	114.666667
2918.636987	131.666667
2919.917010	162.000000
2921.199902	122.666667
2922.481049	123.666667
2923.758914	135.333333
2925.039648	200.333333
2926.317101	122.666667
2927.594348	150.000000
2928.869853	106.333333
2930.148226	122.000000
2931.421785	102.666667
2932.698211	170.333333
2933.972896	122.666667
2935.245840	134.666667
2936.520116	141.333333
2937.792652	168.333333
2939.064983	128.333333
2940.334042	124.000000
2941.605966	127.333333
2942.876152	168.000000
2944.146134	147.333333
2945.415913	120.000000
2946.683956	108.333333
2947.950262	157.666667
2949.216367	126.333333
2950.483801	155.000000
2951.749501	149.666667
2953.014998	128.666667
2954.280293	115.333333
2955.542323	147.666667
2956.805683	131.666667
2958.068842	136.333333
2959.330269	158.333333
2960.593025	151.000000
2961.854049	125.000000
2963.113343	162.333333
2964.372437	138.666667
2965.631330	132.666667
2966.890023	130.000000
2968.148516	147.000000
2969.405280	103.333333
2970.661844	121.333333
2971.916681	143.666667
2973.172846	137.666667
2974.425757	153.333333
2975.679997	150.000000
2976.934037	148.666667
2978.186353	138.333333
2979.438469	113.666667
2980.688861	140.000000
2981.942108	130.666667
2983.190578	165.000000
2984.441903	136.000000
2985.689978	127.333333
2986.937857	127.000000
2988.185538	159.666667
2989.433022	114.333333
2990.678785	131.666667
2991.924352	124.666667
2993.171246	129.333333
2994.414896	118.000000
2995.659874	123.333333
2996.901608	153.000000
2998.146194	137.000000
2999.389061	147.666667
3000.628687	121.333333
3001.871163	123.666667
3003.110399	154.000000
3004.350963	112.666667
3005.589810	134.000000
3006.828463	96.000000
3008.065400	156.333333
3009.303665	106.666667
3010.540214	136.333333
3011.776570	115.666667
3013.012732	179.000000
3014.247180	120.333333
3015.481436	155.333333
3016.715498	142.000000
3017.947848	147.000000
3019.178486	132.000000
3020.411970	112.000000
3021.643742	128.000000
3022.873804	126.333333
3024.103673	84.666667
3025.331833	119.333333
3026.561320	110.000000
3027.789097	130.000000
3029.016683	123.666667
3030.245596	113.333333
3031.469766	115.000000
3032.696779	164.000000
3033.920568	115.666667
3035.145684	124.000000
3036.369093	97.000000
3037.592312	150.000000
3038.813826	95.000000
3040.038181	102.666667
3041.257801	135.000000
3042.478747	144.666667
3043.699504	118.000000
3044.918557	145.000000
3046.138935	163.666667
3047.356097	139.000000
3048.574585	160.000000
3049.791370	130.666667
3051.007968	106.333333
3052.224377	143.666667
3053.437574	83.333333
3054.653608	108.333333
3055.866430	104.000000
3057.082089	136.333333
3058.293025	102.666667
3059.505286	136.000000
3060.717361	118.000000
3061.929248	108.000000
3063.139439	128.000000
3064.349443	126.000000
3065.559261	95.333333
3066.767383	119.333333
3067.975320	125.333333
3069.181561	168.000000
3070.389127	111.000000
3071.594998	120.166667
3072.800685	129.333333
3074.006186	122.666667
3075.209994	103.333333
3076.415126	116.666667
3077.618565	112.333333
3078.820313	141.333333
3080.021876	91.666667
3081.223256	123.666667
3082.424452	95.333333
3083.623958	93.333333
3084.823281	131.333333
3086.023927	121.000000
3087.222883	134.000000
3088.418645	101.666667
3089.617236	112.333333
3090.812633	128.333333
3092.009353	95.000000
3093.202881	125.666667
3094.399237	103.000000
3095.593907	113.666667
3096.785385	148.666667
3097.981196	145.333333
3099.172312	107.666667
3100.364752	140.666667
3101.554004	104.000000
3102.746081	142.333333
3103.936475	106.666667
3105.123683	137.000000
3106.312213	77.333333
3107.502066	117.666667
3108.688735	111.000000
3109.875223	134.000000
3111.061533	102.000000
3112.249164	180.000000
3113.433613	74.333333
3114.616383	114.000000
3115.801975	107.000000
3116.985888	129.333333
3118.168122	91.666667
3119.350177	112.333333
3120.532054	89.000000
3121.713753	122.333333
3122.893775	106.666667
3124.072120	103.333333
3125.253285	89.666667
3126.431275	113.000000
3127.609089	141.666667
3128.786725	100.333333
3129.962686	87.666667
3131.138470	91.333333
3132.315576	88.666667
3133.491007	154.666667
3134.664765	77.666667
3135.836850	132.333333
3137.010257	94.000000
3138.183487	124.000000
3139.355046	90.666667
3140.527925	117.000000
3141.697637	116.666667
3142.868670	122.000000
3144.038033	105.333333
3145.205725	121.000000
3146.376233	96.000000
3147.542083	135.666667
3148.712241	110.000000
3149.877743	116.666667
3151.043070	108.333333
3152.208224	109.333333
3153.373205	108.666667
3154.539505	144.333333
3155.701153	115.000000
3156.864120	97.333333
3158.026915	74.666667
3159.189537	134.000000
3160.350494	132.666667
3161.511278	92.000000
3162.671890	117.000000
3163.830838	112.000000
3164.989615	84.000000
3166.148220	106.666667
3167.306652	115.666667
3168.464914	85.666667
3169.621513	105.333333
3170.776451	119.333333
3171.932708	82.333333
3173.087304	106.000000
3174.241730	109.333333
3175.394496	135.000000
3176.547091	125.000000
3177.699517	124.333333
3178.851773	119.000000
3180.003858	122.333333
3181.152798	86.666667
3182.304544	123.000000
3183.454632	108.666667
3184.603064	132.000000
3185.751326	93.000000
3186.899420	97.000000
3188.047345	87.333333
3189.193614	79.666667
3190.339715	90.333333
3191.484162	98.666667
3192.628441	112.666667
3193.772552	131.333333
3194.917980	87.666667
3196.060270	134.666667
3197.202393	131.000000
3198.344348	144.333333
3199.486136	99.000000
3200.627757	153.666667
3201.766243	120.000000
3202.906046	84.000000
3204.047167	86.333333
3205.185153	87.000000
3206.321490	114.000000
3207.457661	94.333333
3208.595149	72.666667
3209.730989	93.000000
3210.868146	113.666667
3212.000690	93.333333
3213.137516	133.666667
3214.269730	120.333333
3215.403261	107.666667
3216.536628	104.333333
3217.666867	103.333333
3218.799904	124.666667
3219.929815	78.666667
3221.061042	121.666667
3222.189145	116.666667
3223.320044	114.333333
3224.449299	70.000000
3225.576911	111.666667
3226.701400	112.666667
3227.830165	132.666667
3228.955808	137.666667
3230.081289	161.333333
3231.205128	139.000000
3232.331761	171.000000
3233.453797	149.333333
3234.577149	159.333333
3235.700339	119.666667
3236.823366	145.000000
3237.944755	135.000000
3239.065981	139.000000
3240.185570	130.000000
3241.304997	128.333333
3242.422786	129.333333
3243.543367	136.666667
3244.660835	113.333333
3245.778142	132.000000
3246.895289	99.000000
3248.010800	112.000000
3249.127625	122.666667
3250.241341	126.666667
3251.357846	107.333333
3252.472717	107.666667
3253.584479	89.666667
3254.696081	115.666667
3255.808999	77.333333
3256.921757	142.333333
3258.031409	119.000000
3259.142376	160.000000
3260.253184	95.666667
3261.362360	143.333333
3262.469906	91.333333
3263.578765	106.333333
3264.687467	107.333333
3265.793066	100.333333
3266.899979	92.666667
3268.005263	83.666667
3269.111861	81.333333
3270.215359	138.333333
3271.320172	126.000000
3272.424827	81.666667
3273.526383	83.000000
3274.627783	128.666667
3275.730497	65.666667
3276.833055	118.666667
3277.932516	101.333333
3279.034761	113.333333
3280.133910	96.000000
3281.231435	59.666667
3282.328804	69.000000
3283.428955	100.333333
3284.526014	97.000000
3285.622917	90.000000
3286.719665	80.333333
3287.811855	73.000000
3288.908293	80.333333
3290.003109	108.000000
3291.097771	36.000000
3292.190811	74.666667
3293.283696	114.000000
3294.374962	96.000000
3295.467539	74.000000
3296.558497	106.666667
3297.647835	73.666667
3298.737020	106.333333
3299.827518	55.666667
3300.914931	85.333333
3302.002191	65.666667
3303.090764	77.333333
3304.179185	77.000000
3305.263058	79.333333
3306.351173	86.666667
3307.436206	84.000000
3308.519624	90.333333
3309.604354	144.666667
3310.687468	41.000000
3311.771895	107.666667
3312.853243	88.000000
3313.935903	92.666667
3315.016949	81.333333
3316.097844	85.333333
3317.177125	64.333333
3318.256256	123.000000
3319.336699	91.000000
3320.414067	98.333333
3321.492747	70.000000
3322.569815	109.333333
3323.646734	76.666667
3324.722041	85.333333
3325.797199	89.000000
3326.873668	116.000000
3327.947067	96.000000
3329.020317	76.000000
3330.094877	66.333333
3331.167829	94.666667
3332.239172	58.000000
3333.311826	112.333333
3334.381414	100.666667
3335.452312	67.000000
3336.521603	78.333333
3337.592205	90.000000
3338.661200	98.000000
3339.728589	97.000000
3340.794373	94.666667
3341.864383	119.333333
3342.931330	67.333333
3343.995215	128.333333
3345.061868	108.666667
3346.126916	129.333333
3347.190361	38.000000
3348.253660	97.666667
3349.316812	70.000000
3350.379818	85.666667
3351.442678	73.000000
3352.503936	131.333333
3353.562137	62.000000
3354.624558	79.666667
3355.683924	103.000000
3356.743144	80.333333
3357.803673	69.666667
3358.859694	134.000000
3359.918478	99.000000
3360.972755	40.333333
3362.029796	75.333333
3363.085238	136.333333
3364.141990	92.333333
3365.197143	85.666667
3366.250699	86.000000
3367.302659	65.333333
3368.357380	79.000000
3369.409052	79.666667
3370.460581	90.666667
3371.513418	94.666667
3372.563208	63.666667
3373.614307	118.666667
3374.662360	80.333333
3375.713172	97.000000
3376.760940	73.333333
3377.808565	89.000000
3378.856047	40.666667
3379.901937	87.333333
3380.949135	105.666667
3381.993291	104.000000
3383.040205	77.666667
3384.085527	117.000000
3385.127808	67.666667
3386.169949	129.000000
3387.213397	77.666667
3388.256704	70.000000
3389.298422	66.666667
3390.339998	86.666667
3391.381433	84.333333
3392.421280	122.666667
3393.459538	87.000000
3394.499104	83.333333
3395.538530	51.000000
3396.576368	97.000000
3397.612619	87.333333
3398.648731	107.000000
3399.686150	38.333333
3400.720536	112.333333
3401.756229	64.000000
3402.791783	97.666667
3403.824306	69.666667
3404.859582	66.333333
3405.891827	86.000000
3406.923934	83.000000
3407.954457	65.333333
3408.986287	78.333333
3410.017979	104.333333
3411.046643	62.666667
3412.075170	57.333333
3413.105003	74.000000
3414.134699	75.333333
3415.161369	81.000000
3416.189346	84.000000
3417.214298	93.333333
3418.242000	47.333333
3419.266679	73.000000
3420.292664	86.333333
3421.317069	90.333333
3422.341338	64.333333
3423.364028	74.666667
3424.386582	62.000000
3425.410442	94.333333
3426.431282	82.333333
3427.451986	67.333333
3428.473997	75.333333
3429.492989	87.666667
3430.511845	89.333333
3431.532008	53.333333
3432.549154	75.000000
