-116.707459	-22.333333
-114.037859	21.333333
-111.371194	-13.666667
-108.705281	4.333333
-106.042300	-3.666667
-103.377890	10.666667
-100.716410	-14.666667
-98.053501	13.000000
-95.395698	9.666667
-92.736466	0.333333
-90.077982	17.333333
-87.422422	-9.666667
-84.765434	8.333333
-82.113544	-5.666667
-79.460224	0.666667
-76.809823	-4.666667
-74.157993	3.666667
-71.511254	-7.666667
-68.863086	18.333333
-66.215660	-1.333333
-63.571148	-16.333333
-60.925208	9.000000
-58.284349	23.000000
-55.642061	-16.000000
-53.002682	-42.333333
-50.361873	-49.333333
-47.721805	-9.666667
-45.086809	2.333333
-42.450385	-23.000000
-39.816863	-21.333333
-37.181913	-9.000000
-34.552028	26.333333
-31.918551	12.333333
-29.290136	28.000000
-26.662455	10.666667
-24.033345	38.333333
-21.409292	17.000000
-18.781650	27.000000
-16.159061	40.666667
-13.537204	54.333333
-10.916077	89.666667
-8.295680	242.333333
-5.678172	898.000000
-3.059235	2988.000000
-0.443183	7917.666667
2.172140	14299.000000
4.786736	7534.000000
7.398449	863.000000
10.011591	109.666667
12.619699	55.333333
15.231389	39.666667
17.838048	21.666667
20.446135	29.333333
23.053498	30.666667
25.655836	29.000000
28.261752	6.333333
30.862646	12.333333
33.464968	8.666667
36.062273	38.333333
38.663153	-13.666667
41.259018	5.666667
43.856312	1.333333
46.452886	48.000000
49.044451	22.333333
51.637444	10.333333
54.227576	-3.000000
56.819136	-23.333333
59.407836	-17.666667
61.997963	14.000000
64.583091	-7.333333
67.169647	16.000000
69.755489	34.000000
72.338477	29.333333
74.922891	22.666667
77.500177	-22.000000
80.081029	18.333333
82.659032	-16.000000
85.236325	37.000000
87.815044	-5.000000
90.388781	17.000000
92.963946	-18.000000
95.536267	12.000000
98.107880	-5.666667
100.676653	30.333333
103.246853	-18.333333
105.814215	1.333333
108.383002	11.666667
110.948953	-19.000000
113.512069	37.666667
116.078741	16.666667
118.636192	25.666667
121.199328	28.666667
123.757504	62.333333
126.319235	22.666667
128.876009	56.000000
131.434210	109.333333
133.987457	165.333333
136.540007	233.666667
139.096107	363.333333
141.647259	427.666667
144.197714	522.666667
146.747471	593.000000
149.294409	681.666667
151.840652	699.666667
154.388320	756.666667
156.935292	777.666667
159.477329	740.333333
162.018672	701.000000
164.559322	703.333333
167.101398	704.000000
169.640662	709.000000
172.177118	693.000000
174.712882	732.666667
177.250072	695.000000
179.786571	718.333333
182.320264	661.666667
184.851153	712.000000
187.381355	666.333333
189.912981	686.666667
192.441806	647.666667
194.967832	703.333333
197.493172	671.666667
200.019937	665.666667
202.543906	640.333333
205.067190	654.000000
207.589789	725.666667
210.109595	666.333333
212.628718	644.666667
215.147158	704.666667
217.667022	721.000000
220.179885	663.666667
222.696279	709.000000
225.211991	727.333333
227.722813	702.333333
230.235060	715.333333
232.744525	721.333333
235.253311	781.333333
237.761418	784.333333
240.270950	799.666667
242.775601	790.666667
245.279576	730.333333
247.784975	765.000000
250.285499	793.000000
252.789547	747.666667
255.286623	756.000000
257.787223	729.666667
260.285051	735.000000
262.782206	739.333333
265.278688	775.333333
267.770307	718.666667
270.265446	755.666667
272.757818	712.000000
275.249520	800.333333
277.738459	738.333333
280.228822	777.666667
282.716422	746.666667
285.201263	779.666667
287.689619	797.333333
290.171035	784.333333
292.655965	813.000000
295.136050	863.000000
297.619647	897.333333
300.098401	875.333333
302.578579	900.666667
305.056004	869.000000
307.532766	826.666667
310.008865	865.000000
312.482215	844.666667
314.954903	851.333333
317.426930	869.333333
319.898296	831.666667
322.366917	881.666667
324.834880	825.666667
327.304264	836.666667
329.768826	791.000000
332.236892	764.000000
334.700138	747.000000
337.162726	759.666667
339.624658	764.000000
342.085933	723.000000
344.544474	743.666667
347.004437	704.666667
349.461667	723.000000
351.918243	700.333333
354.374165	683.666667
356.827357	651.000000
359.281972	698.333333
361.731785	718.000000
364.185094	672.333333
366.633605	682.333333
369.081464	656.666667
371.530746	639.000000
373.975234	633.000000
376.421144	648.333333
378.866404	635.666667
381.308946	601.000000
383.750840	656.666667
386.192087	598.333333
388.630618	600.333333
391.070571	596.000000
393.507810	598.666667
395.942337	582.000000
398.380352	606.000000
400.813590	574.666667
403.248249	579.333333
405.678136	596.666667
408.111508	563.666667
410.540110	600.666667
412.968070	595.333333
415.397452	571.000000
417.822068	593.333333
420.248106	576.000000
422.673503	563.333333
425.098260	537.333333
427.518259	564.666667
429.939679	538.333333
432.358402	573.333333
434.778546	560.666667
437.195995	551.666667
439.614864	536.666667
442.031040	506.000000
444.442468	538.666667
446.857374	462.333333
449.269589	495.666667
451.681170	453.333333
454.092117	431.333333
456.500378	444.666667
458.908006	448.666667
461.315002	450.333333
463.721367	462.000000
466.125049	441.333333
468.528101	430.000000
470.930523	423.333333
473.332315	470.000000
475.731430	434.333333
478.131964	437.333333
480.531869	494.666667
482.927051	445.666667
485.325700	516.000000
487.719629	490.000000
490.112932	488.666667
492.505609	480.666667
494.897661	612.666667
497.291131	592.333333
499.679889	680.333333
502.065981	768.333333
504.453493	1024.000000
506.840382	1266.333333
509.224607	1766.333333
511.610250	2560.666667
513.993232	3569.666667
516.373553	4903.333333
518.755293	5895.333333
521.134374	6046.333333
523.514874	5449.333333
525.892716	4367.333333
528.267903	3623.000000
530.642472	2964.666667
533.018459	2559.333333
535.391794	2208.666667
537.766546	1918.666667
540.136613	1774.000000
542.506064	1585.666667
544.876933	1406.000000
547.243122	1299.333333
549.610729	1184.333333
551.975690	1179.666667
554.340038	1103.666667
556.703773	1078.333333
559.068926	992.000000
561.429407	1004.666667
563.791306	951.333333
566.150564	908.666667
568.507185	893.666667
570.867250	872.666667
573.220624	826.000000
575.577443	794.000000
577.931627	771.333333
580.285202	779.333333
582.638170	749.333333
584.988505	739.333333
587.340258	703.000000
589.685334	648.000000
592.035874	654.666667
594.379740	667.666667
596.729068	640.666667
599.073747	607.333333
601.415802	590.666667
603.759274	635.666667
606.100123	595.000000
608.440370	615.333333
610.777996	606.333333
613.119057	637.666667
615.455480	718.333333
617.793320	743.333333
620.128543	693.000000
622.461150	684.666667
624.795173	641.333333
627.126582	663.000000
629.457393	615.333333
631.787607	625.333333
634.117222	556.000000
636.442214	572.666667
638.772648	613.000000
641.098461	575.333333
643.421666	570.666667
645.746288	538.666667
648.068304	574.666667
650.389726	530.000000
652.708546	545.000000
655.028781	549.666667
657.348423	497.666667
659.665464	538.666667
661.981913	536.000000
664.295764	534.000000
666.611031	497.666667
668.923701	543.000000
671.237786	522.666667
673.547271	527.000000
675.858172	516.666667
678.166480	498.000000
680.474200	540.000000
682.783334	495.333333
685.087876	516.333333
687.391832	504.666667
689.695202	470.333333
691.999986	484.000000
694.300184	447.333333
696.601796	437.000000
698.902823	442.666667
701.199269	458.000000
703.497130	461.666667
705.794407	427.000000
708.091101	448.333333
710.383219	446.333333
712.678748	427.000000
714.969703	435.000000
717.262073	395.666667
719.551868	424.333333
721.841082	402.666667
724.129717	432.666667
726.415779	441.666667
728.703256	441.333333
730.988161	418.333333
733.272489	417.333333
735.554248	413.000000
737.837421	429.333333
740.120017	407.000000
742.398057	397.000000
744.677512	384.666667
746.956390	429.333333
749.234694	378.000000
751.508448	410.000000
753.783615	370.666667
756.058209	434.333333
758.330244	414.333333
760.603692	386.666667
762.874582	366.000000
765.142916	415.333333
767.412663	390.666667
769.679856	392.666667
771.946478	407.000000
774.212530	391.666667
776.476031	385.333333
778.740945	443.333333
781.005289	388.333333
783.265104	403.000000
785.526331	387.666667
787.786991	418.333333
790.045105	427.666667
792.300674	390.666667
794.559634	427.333333
796.812095	433.666667
799.069922	397.000000
801.323231	390.000000
803.574000	386.666667
805.826181	422.333333
808.075823	421.000000
810.326878	425.333333
812.573421	379.666667
814.821376	387.000000
817.066797	394.000000
819.313629	416.666667
821.559900	421.000000
823.801666	391.666667
826.046816	375.333333
828.285493	388.333333
830.527552	425.333333
832.765113	369.000000
835.004086	401.666667
837.240532	360.666667
839.478389	406.000000
841.713721	390.333333
843.946530	394.333333
846.180750	396.666667
848.412447	355.666667
850.643590	384.666667
852.874178	393.666667
855.104212	369.333333
857.333692	402.333333
859.558690	368.666667
861.787063	371.333333
864.010956	399.333333
866.236261	338.000000
868.457090	395.000000
870.681291	372.666667
872.901019	381.000000
875.122157	380.000000
877.342745	400.000000
879.560824	341.000000
881.780312	388.333333
883.995334	398.666667
886.209808	388.000000
888.423735	350.333333
890.637115	353.333333
892.849947	349.666667
895.062233	357.333333
897.272016	332.666667
899.481254	355.000000
901.689947	326.333333
903.896141	371.666667
906.103744	311.666667
908.308849	356.333333
910.513411	364.000000
912.715478	381.000000
914.918954	415.333333
917.119936	391.000000
919.320376	426.666667
921.522225	426.333333
923.717683	471.000000
925.916500	492.000000
928.110878	490.000000
930.308614	557.666667
932.501914	601.333333
934.696623	652.333333
936.888846	712.000000
939.080530	781.333333
941.271677	831.000000
943.460341	881.666667
945.648469	856.000000
947.834116	799.333333
950.023115	823.000000
952.207691	830.333333
954.391732	796.666667
956.579123	864.666667
958.758210	858.333333
960.940648	857.333333
963.122552	910.333333
965.301981	875.000000
967.478938	854.333333
969.657303	845.000000
971.837075	882.666667
974.010498	889.333333
976.187267	854.333333
978.359629	847.333333
980.533399	822.666667
982.702765	885.666667
984.875475	838.333333
987.045720	810.000000
989.215436	696.000000
991.384623	631.000000
993.549413	620.000000
995.717544	547.666667
997.881281	526.666667
1000.046424	509.666667
1002.209108	506.666667
1004.371267	501.666667
1006.530969	520.000000
1008.690146	464.666667
1010.850730	424.333333
1013.008859	447.333333
1015.166465	419.000000
1017.323547	418.000000
1019.480105	417.666667
1021.632284	390.333333
1023.785870	411.333333
1025.938934	402.666667
1028.089549	361.333333
1030.241571	423.333333
1032.389219	363.666667
1034.540199	395.333333
1036.686808	400.333333
1038.832898	397.333333
1040.978470	380.666667
1043.125447	428.333333
1045.266135	351.000000
1047.410153	342.333333
1049.551730	371.000000
1051.692791	382.333333
1053.835256	368.333333
1055.971442	356.666667
1058.110953	356.000000
1060.246110	376.666667
1062.384591	377.000000
1064.518718	374.333333
1066.652332	392.333333
1068.787351	376.666667
1070.918020	341.333333
1073.050094	340.333333
1075.179739	380.333333
1077.308872	382.666667
1079.437493	385.000000
1081.565603	396.666667
1083.691287	368.333333
1085.816461	345.666667
1087.943039	360.000000
1090.065279	348.000000
1092.188924	317.000000
1094.308234	359.666667
1096.432774	344.666667
1098.551068	353.333333
1100.670767	303.333333
1102.788047	325.000000
1104.904821	346.333333
1107.021088	320.333333
1109.134939	341.666667
1111.250195	343.666667
1113.361127	359.666667
1115.475372	355.000000
1117.585296	339.000000
1119.696624	356.000000
1121.807447	341.666667
1123.913954	310.000000
1126.023771	311.333333
1128.129273	333.666667
1130.236178	317.000000
1132.336868	354.000000
1134.442770	296.666667
1136.544363	336.333333
1138.647359	298.666667
1140.749854	317.666667
1142.846142	318.000000
1144.947637	337.666667
1147.044830	284.333333
1149.141525	339.666667
1151.237721	318.333333
1153.333420	344.333333
1155.428620	352.666667
1157.521424	327.333333
1159.615631	326.000000
1161.703646	310.000000
1163.796859	327.333333
1165.883884	332.333333
1167.974208	319.333333
1170.060244	326.333333
1172.149579	322.000000
1174.232732	333.333333
1176.317287	318.333333
1178.403244	309.333333
1180.484919	336.333333
1182.567996	312.666667
1184.648687	306.666667
1186.728886	325.666667
1188.808594	333.666667
1190.887811	328.333333
1192.964646	324.000000
1195.039100	304.333333
1197.116845	310.000000
1199.190321	320.666667
1201.265197	355.666667
1203.335806	313.000000
1205.407816	291.666667
1207.477451	295.333333
1209.548486	297.333333
1211.619033	283.000000
1213.685319	348.666667
1215.753006	295.666667
1217.818321	305.666667
1219.885036	314.000000
1221.947495	285.333333
1224.013239	320.000000
1226.074729	338.333333
1228.137620	293.000000
1230.198143	322.000000
1232.258182	355.333333
1234.317739	304.333333
1236.374930	345.000000
1238.431640	314.333333
1240.485986	318.666667
1242.543614	285.000000
1244.598879	325.333333
1246.649903	282.000000
1248.702327	309.666667
1250.754271	295.666667
1252.803857	313.666667
1254.852964	308.333333
1256.901593	338.666667
1258.949743	316.000000
1260.997414	325.666667
1263.040855	306.666667
1265.087572	339.333333
1267.131935	340.333333
1269.175822	307.000000
1271.217357	307.000000
1273.256543	301.666667
1275.299002	308.000000
1277.337238	313.000000
1279.376873	314.000000
1281.416033	368.333333
1283.450974	334.333333
1285.487314	321.000000
1287.521310	346.666667
1289.556703	352.333333
1291.587884	330.666667
1293.620462	316.000000
1295.652569	301.666667
1297.682335	318.333333
1299.713498	302.666667
1301.740455	281.000000
1303.768809	302.333333
1305.792958	350.666667
1307.820373	299.333333
1309.843585	294.666667
1311.868195	303.333333
1313.890471	313.666667
1315.914144	313.666667
1317.935484	305.333333
1319.956356	315.000000
1321.976761	333.333333
1323.992973	309.000000
1326.010582	288.333333
1328.025863	292.666667
1330.044403	292.333333
1332.058754	277.000000
1334.070779	283.333333
1336.086061	314.333333
1338.097158	304.666667
1340.109652	316.666667
1342.117963	337.000000
1344.129529	333.333333
1346.135057	292.666667
1348.143840	325.333333
1350.148445	299.333333
1352.156304	338.333333
1354.163701	352.333333
1356.165067	334.666667
1358.167829	329.000000
1360.170132	330.333333
1362.171975	363.333333
1364.173358	326.666667
1366.172428	317.666667
1368.171039	336.333333
1370.169192	313.333333
1372.166886	334.666667
1374.160418	320.000000
1376.155345	313.333333
1378.149816	304.666667
1380.143830	336.000000
1382.135537	300.333333
1384.126789	315.333333
1386.115735	295.333333
1388.106076	344.000000
1390.095962	303.333333
1392.083544	295.000000
1394.070673	307.333333
1396.055500	333.666667
1398.041722	321.666667
1400.025644	322.000000
1402.009113	307.333333
1403.992129	324.666667
1405.972848	328.666667
1407.954961	290.333333
1409.934778	297.333333
1411.914143	297.666667
1413.889370	317.333333
1415.867835	324.333333
1417.844007	294.333333
1419.819730	303.333333
1421.795003	326.666667
1423.767985	346.666667
1425.740519	297.000000
1427.712605	288.666667
1429.684244	301.333333
1431.651754	289.000000
1433.624338	311.333333
1435.589116	286.333333
1437.558967	354.000000
1439.524694	307.666667
1441.491813	294.000000
1443.456649	314.666667
1445.417365	318.333333
1447.383149	366.333333
1449.342978	302.666667
1451.304201	316.333333
1453.266816	322.000000
1455.225316	315.000000
1457.183373	317.000000
1459.140989	329.666667
1461.098162	339.333333
1463.053060	306.000000
1465.009351	316.333333
1466.963367	336.333333
1468.916942	319.000000
1470.868245	312.000000
1472.820941	313.333333
1474.771364	298.666667
1476.721349	302.000000
1478.670895	286.333333
1480.618172	321.666667
1482.563181	299.666667
1484.509583	311.666667
1486.455547	269.333333
1488.401074	308.000000
1490.344335	279.666667
1492.287161	315.333333
1494.227723	317.333333
1496.169676	309.666667
1498.109367	301.666667
1500.048624	318.666667
1501.987445	270.333333
1503.924007	333.666667
1505.861960	338.333333
1507.797654	346.666667
1509.732915	352.333333
1511.665920	346.333333
1513.598492	319.000000
1515.530632	407.666667
1517.462340	349.666667
1519.391794	366.000000
1521.322639	369.666667
1523.253052	345.000000
1525.179393	347.666667
1527.107125	334.000000
1529.032606	339.000000
1530.957658	387.666667
1532.882281	354.666667
1534.806475	378.000000
1536.728421	332.000000
1538.651758	364.000000
1540.572848	375.666667
1542.491694	363.333333
1544.411930	368.666667
1546.329923	425.333333
1548.247489	404.333333
1550.162813	411.000000
1552.079527	374.666667
1553.992186	460.000000
1555.908049	435.666667
1557.821672	438.666667
1559.733057	440.666667
1561.645832	458.333333
1563.554557	484.666667
1565.464671	528.000000
1567.374362	508.333333
1569.283630	549.666667
1571.190664	643.333333
1573.095465	709.333333
1575.001655	756.666667
1576.905613	861.000000
1578.809150	947.000000
1580.712267	1001.333333
1582.613154	1099.666667
1584.515430	1215.333333
1586.415478	1286.666667
1588.316913	1270.333333
1590.214315	1207.666667
1592.111298	1131.666667
1594.007863	1020.666667
1595.905816	869.666667
1597.797934	776.666667
1599.693245	735.333333
1601.588139	597.333333
1603.480811	555.333333
1605.373066	521.333333
1607.263102	452.000000
1609.152722	488.000000
1611.041927	433.000000
1612.930717	421.333333
1614.817289	415.666667
1616.705249	436.333333
1618.589192	371.000000
1620.474522	367.000000
1622.359439	398.666667
1624.242142	376.000000
1626.126232	368.333333
1628.006310	320.666667
1629.887776	328.000000
1631.767031	325.000000
1633.647672	297.000000
1635.522509	328.333333
1637.402327	332.666667
1639.278141	295.666667
1641.153544	283.333333
1643.030333	297.000000
1644.901326	281.333333
1646.775500	236.000000
1648.645675	298.000000
1650.519032	268.000000
1652.390184	279.666667
1654.259136	264.666667
1656.129472	241.666667
1657.995816	272.000000
1659.863545	245.000000
1661.729075	260.666667
1663.595991	223.000000
1665.458918	236.333333
1667.323230	294.666667
1669.185346	244.666667
1671.047057	221.333333
1672.910154	209.333333
1674.771055	229.666667
1676.629764	229.666667
1678.488069	213.000000
1680.347759	208.000000
1682.201681	257.666667
1684.058777	223.000000
1685.915470	239.666667
1687.768186	246.666667
1689.624074	236.333333
1691.475988	251.333333
1693.327501	221.666667
1695.178613	220.666667
1697.029325	199.000000
1698.879635	233.000000
1700.727762	223.000000
1702.577273	204.333333
1704.421035	218.333333
1706.269746	192.000000
1708.112711	212.000000
1709.958843	201.666667
1711.801012	261.000000
1713.646347	222.666667
1715.485941	226.333333
1717.326919	227.000000
1719.169280	231.000000
1721.007685	211.000000
1722.847473	220.666667
1724.685086	221.333333
1726.522303	210.333333
1728.357347	206.333333
1730.193774	191.333333
1732.028029	193.000000
1733.861889	200.333333
1735.695355	178.333333
1737.524876	229.000000
1739.357555	218.000000
1741.186290	183.000000
1743.018182	222.000000
1744.846132	218.000000
1746.673691	175.000000
1748.500857	219.000000
1750.327632	231.333333
1752.154015	218.333333
1753.976462	223.333333
1755.802064	202.666667
1757.623731	232.666667
1759.446780	204.333333
1761.267667	177.333333
1763.088166	217.666667
1764.910045	187.666667
1766.726226	172.000000
1768.545558	189.666667
1770.360963	214.666667
1772.179518	215.333333
1773.994148	213.333333
1775.808391	179.000000
1777.622248	206.000000
1779.435718	225.000000
1781.247035	195.333333
1783.059732	219.000000
1784.872044	193.333333
1786.680438	187.333333
1788.490212	192.333333
1790.296072	187.333333
1792.105077	186.000000
1793.910169	211.666667
1795.716642	202.000000
1797.522731	191.000000
1799.324909	235.666667
1801.130232	195.333333
1802.931646	193.666667
1804.734440	189.333333
1806.533328	176.000000
1808.333597	196.666667
1810.133484	221.666667
1811.931229	182.666667
1813.728594	175.000000
1815.525579	188.333333
1817.322183	199.333333
1819.116648	184.333333
1820.912492	217.000000
1822.702681	229.000000
1824.497767	211.666667
1826.287201	206.666667
1828.079771	202.666667
1829.870206	204.000000
1831.658507	202.666667
1833.449943	220.666667
1835.235733	201.333333
1837.022903	205.000000
1838.807941	208.000000
1840.596113	193.333333
1842.380399	188.000000
1844.162555	197.666667
1845.946091	196.666667
1847.727498	193.000000
1849.510284	209.000000
1851.289189	207.333333
1853.069474	207.666667
1854.847632	220.666667
1856.627169	210.666667
1858.404581	209.333333
1860.179869	207.333333
1861.956535	164.333333
1863.731079	186.666667
1865.507001	192.333333
1867.277302	209.000000
1869.050731	189.000000
1870.822040	207.333333
1872.592978	212.000000
1874.365294	218.000000
1876.131996	175.000000
1877.901824	220.000000
1879.667788	202.000000
1881.436875	235.000000
1883.202101	183.666667
1884.966959	170.666667
1886.733194	207.000000
1888.495570	193.333333
1890.257579	196.000000
1892.019220	194.666667
1893.780495	183.666667
1895.541402	164.666667
1897.301943	180.333333
1899.060374	216.666667
1900.818439	179.666667
1902.574397	213.333333
1904.331731	142.333333
1906.088700	192.000000
1907.843562	145.000000
1909.596320	215.666667
1911.348713	161.666667
1913.102483	165.000000
1914.854149	207.666667
1916.603713	176.666667
1918.354652	186.666667
1920.105229	161.333333
1921.851966	135.666667
1923.600080	193.333333
1925.346094	142.000000
1927.093483	170.333333
1928.838775	193.333333
1930.581969	221.000000
1932.326538	185.666667
1934.069012	232.000000
1935.811125	184.333333
1937.552878	211.666667
1939.294271	148.333333
1941.033571	179.666667
1942.772512	162.333333
1944.511094	209.666667
1946.247585	220.333333
1947.983718	216.666667
1949.721225	213.000000
1951.454910	208.000000
1953.189970	164.666667
1954.922941	173.000000
1956.655556	187.666667
1958.387815	198.333333
1960.119717	160.333333
1961.849533	163.333333
1963.577264	174.000000
1965.306370	220.000000
1967.035121	182.000000
1968.761788	185.000000
1970.488101	174.666667
1972.215787	162.000000
1973.937937	182.000000
1975.663188	202.000000
1977.384632	178.333333
1979.109177	176.000000
1980.831641	182.666667
1982.550303	174.666667
1984.272063	220.666667
1985.990021	199.666667
1987.709352	154.666667
1989.424884	191.000000
1991.145236	203.333333
1992.861790	174.666667
1994.574547	198.333333
1996.290400	195.666667
1998.004181	196.000000
1999.717612	195.666667
2001.428972	185.666667
2003.141704	191.666667
2004.850646	165.333333
2006.562680	201.000000
2008.269206	208.666667
2009.978823	174.000000
2011.686374	186.333333
2013.393576	196.666667
2015.098713	204.333333
2016.803504	173.333333
2018.509666	190.666667
2020.212046	171.666667
2021.915797	196.666667
2023.617486	132.333333
2025.318830	186.000000
2027.019828	206.333333
2028.718765	175.666667
2030.419074	157.333333
2032.115608	182.000000
2033.813513	185.000000
2035.509359	195.333333
2037.208291	181.333333
2038.901737	187.333333
2040.596554	207.666667
2042.291029	143.666667
2043.981735	169.333333
2045.675525	179.000000
2047.365548	176.000000
2049.056942	208.666667
2050.746283	196.666667
2052.436994	179.666667
2054.123942	171.000000
2055.810551	178.000000
2057.498529	182.000000
2059.182748	188.000000
2060.868338	186.333333
2062.553588	149.666667
2064.236789	182.333333
2065.921361	194.666667
2067.600470	182.000000
2069.284364	190.333333
2070.962797	186.666667
2072.644308	202.666667
2074.322067	156.666667
2075.999490	165.000000
2077.678282	183.000000
2079.355032	205.000000
2081.029740	188.666667
2082.705817	212.000000
2084.379853	197.666667
2086.053555	174.666667
2087.726921	199.000000
2089.398248	165.000000
2091.069241	193.666667
2092.739900	210.000000
2094.410225	168.333333
2096.080216	174.333333
2097.748171	189.000000
2099.415793	170.333333
2101.081380	188.333333
2102.748336	171.666667
2104.413259	157.666667
2106.077850	185.333333
2107.740409	167.333333
2109.404336	180.000000
2111.066232	162.333333
2112.727798	167.666667
2114.389032	191.000000
2116.048238	166.333333
2117.707113	143.000000
2119.365659	174.333333
2121.023874	175.333333
2122.678367	172.666667
2124.335924	173.666667
2125.993152	180.000000
2127.646658	183.666667
2129.301532	175.666667
2130.952687	180.000000
2132.606905	190.666667
2134.257406	194.333333
2135.909273	211.333333
2137.555732	184.666667
2139.206946	153.333333
2140.854446	140.000000
2142.503313	159.000000
2144.150161	167.666667
2145.796684	177.666667
2147.442881	165.000000
2149.085370	139.000000
2150.730917	166.333333
2152.372757	122.666667
2154.017654	190.666667
2155.658845	201.333333
2157.299714	174.333333
2158.940258	211.666667
2160.578790	176.666667
2162.218688	180.666667
2163.854886	171.666667
2165.492450	158.666667
2167.129692	187.333333
2168.764924	156.333333
2170.399835	162.666667
2172.034423	184.000000
2173.668691	190.666667
2175.299265	186.333333
2176.932891	178.666667
2178.562825	168.333333
2180.194124	193.000000
2181.823418	200.333333
2183.452393	194.666667
2185.081048	176.000000
2186.709384	186.666667
2188.335718	144.333333
2189.961733	179.666667
2191.585746	173.000000
2193.211125	163.000000
2194.834503	159.666667
2196.459246	170.000000
2198.080308	151.000000
2199.701053	169.333333
2201.323163	206.666667
2202.943275	148.666667
2204.561390	188.000000
2206.179190	177.333333
2207.796675	164.666667
2209.413844	177.666667
2211.030698	186.333333
2212.647236	145.333333
2214.261782	166.333333
2215.874335	202.666667
2217.488252	179.666667
2219.100178	177.666667
2220.713467	148.333333
2222.324766	169.000000
2223.934075	152.333333
2225.544748	203.000000
2227.153432	184.333333
2228.761803	171.333333
2230.368188	151.333333
2231.975936	177.666667
2233.581697	172.666667
2235.187147	189.666667
2236.790612	137.333333
2238.395440	177.666667
2239.998284	166.666667
2241.599145	181.333333
2243.201369	174.666667
2244.801611	164.333333
2246.403215	167.666667
2248.001166	185.333333
2249.600480	180.000000
2251.197814	162.333333
2252.794840	153.000000
2254.393228	192.666667
2255.987967	181.666667
2257.580729	203.333333
2259.174854	194.000000
2260.770340	196.000000
2262.362181	169.333333
2263.953716	195.000000
2265.546613	170.333333
2267.134200	185.333333
2268.726483	193.333333
2270.313460	171.000000
2271.903464	147.666667
2273.488164	133.000000
2275.077558	203.000000
2276.661650	208.666667
2278.247102	171.666667
2279.830586	207.666667
2281.417095	147.666667
2282.999971	150.000000
2284.582544	167.000000
2286.164813	150.666667
2287.743452	188.333333
2289.325116	191.333333
2290.903151	167.333333
2292.484209	197.000000
2294.061640	183.666667
2295.637108	170.333333
2297.215598	147.333333
2298.790464	196.333333
2300.365029	135.666667
2301.939294	161.333333
2303.513258	158.333333
2305.086921	191.333333
2306.660285	143.000000
2308.230030	172.333333
2309.799476	180.666667
2311.371940	154.333333
2312.939130	162.000000
2314.509338	194.666667
2316.075931	141.666667
2317.643884	133.666667
2319.209881	158.000000
2320.775581	145.000000
2322.340983	145.666667
2323.904432	163.000000
2325.469240	163.333333
2327.030440	218.000000
2328.594654	169.333333
2330.153606	181.666667
2331.715573	184.333333
2333.275588	151.666667
2334.835309	194.000000
2336.393080	194.000000
2337.950556	164.000000
2339.507738	176.333333
2341.062972	127.000000
2342.617913	169.333333
2344.172559	140.000000
2345.726912	158.666667
2347.280972	165.666667
2348.834737	160.000000
2350.386558	173.333333
2351.936437	168.333333
2353.489323	162.666667
2355.036966	199.333333
2356.587618	182.666667
2358.134678	178.333333
2359.683096	170.333333
2361.231223	157.000000
2362.775761	167.000000
2364.321657	183.000000
2365.865615	135.000000
2367.410930	153.000000
2368.952660	163.666667
2370.495747	156.333333
2372.036898	154.333333
2373.577760	159.666667
2375.118333	153.666667
2376.658617	207.333333
2378.198612	179.000000
2379.735029	161.666667
2381.274447	157.000000
2382.810287	170.666667
2384.347485	158.666667
2385.881107	160.666667
2387.417729	163.333333
2388.952421	191.333333
2390.485183	152.333333
2392.017658	162.333333
2393.548205	155.000000
2395.081750	176.333333
2396.610084	169.333333
2398.139774	157.333333
2399.669179	165.333333
2401.198299	162.666667
2402.727134	178.000000
2404.250763	144.666667
2405.779028	139.333333
2407.302091	184.000000
2408.829787	160.000000
2410.350644	169.000000
2411.876134	165.333333
2413.398063	159.333333
2414.921348	178.333333
2416.442711	175.000000
2417.962155	182.333333
2419.482954	185.000000
2421.001835	155.333333
2422.520433	192.000000
2424.037114	175.666667
2425.555149	177.000000
2427.072903	183.000000
2428.587106	200.000000
2430.101028	203.666667
2431.614670	191.666667
2433.129667	170.333333
2434.641115	182.000000
2436.153918	190.000000
2437.664807	169.333333
2439.175418	224.000000
2440.684117	206.000000
2442.195802	178.666667
2443.703944	205.000000
2445.211808	211.333333
2446.719394	220.000000
2448.223439	208.000000
2449.730469	259.666667
2451.235591	221.666667
2452.740436	196.666667
2454.243374	219.000000
2455.746036	194.333333
2457.248421	193.333333
2458.748901	215.666667
2460.250734	222.333333
2461.750662	198.333333
2463.250315	233.333333
2464.749693	238.666667
2466.247168	192.333333
2467.742741	213.000000
2469.241294	160.333333
2470.736319	191.666667
2472.232696	201.333333
2473.725547	214.000000
2475.219751	171.333333
2476.713681	196.333333
2478.204087	146.000000
2479.697471	181.333333
2481.188957	190.333333
2482.678546	185.666667
2484.167863	197.000000
2485.655284	212.666667
2487.145681	201.333333
2488.632560	200.000000
2490.120790	174.000000
2491.605503	187.333333
2493.089947	156.666667
2494.575741	198.333333
2496.059644	208.333333
2497.544897	159.666667
2499.025017	186.666667
2500.508110	201.666667
2501.989312	186.333333
2503.470245	187.333333
2504.949289	183.666667
2506.428064	201.000000
2507.906571	151.000000
2509.384810	186.333333
2510.862780	135.333333
2512.337245	182.666667
2513.814680	174.000000
2515.288611	176.333333
2516.763892	177.666667
2518.238906	159.000000
2519.710419	131.666667
2521.183283	159.000000
2522.654264	176.666667
2524.126595	152.666667
2525.593812	156.000000
2527.063996	159.000000
2528.532299	143.666667
2530.000337	181.666667
2531.468110	133.000000
2532.935618	184.666667
2534.402861	150.666667
2535.866612	180.000000
2537.331713	167.333333
2538.794937	172.000000
2540.259510	164.333333
2541.720595	176.000000
2543.183029	149.000000
2544.645200	179.000000
2546.103885	185.000000
2547.567141	159.666667
2549.025302	195.000000
2550.484811	153.000000
2551.939226	154.000000
2553.398212	193.333333
2554.855326	131.666667
2556.310569	141.666667
2557.765550	135.000000
2559.218663	173.000000
2560.673124	165.666667
2562.125715	143.666667
2563.578047	166.000000
2565.028512	160.333333
2566.481932	145.666667
2567.930270	183.000000
2569.381563	175.333333
2570.830991	167.333333
2572.276946	187.000000
2573.725856	186.000000
2575.171296	151.666667
2576.618083	174.666667
2578.063008	210.333333
2579.507674	182.666667
2580.953688	150.666667
2582.396236	204.000000
2583.840131	149.666667
2585.280561	189.666667
2586.722338	190.000000
2588.162256	185.000000
2589.603521	143.000000
2591.041324	201.333333
2592.482077	160.000000
2593.917768	184.666667
2595.356408	198.333333
2596.793190	234.000000
2598.228117	200.666667
2599.665991	210.333333
2601.098808	169.000000
2602.532972	193.666667
2603.965282	224.000000
2605.398938	203.333333
2606.830741	179.666667
2608.262290	201.666667
2609.693587	169.000000
2611.123031	245.000000
2612.552223	194.000000
2613.979565	232.333333
2615.408252	212.333333
2616.836688	225.666667
2618.261676	217.333333
2619.688011	246.666667
2621.112497	222.000000
2622.538329	242.666667
2623.960717	255.000000
2625.384451	255.000000
2626.806338	232.333333
2628.227976	282.666667
2629.647768	260.000000
2631.068906	282.666667
2632.489794	291.666667
2633.907244	317.000000
2635.327633	317.666667
2636.744585	352.333333
2638.161288	316.666667
2639.577743	375.000000
2640.993950	365.000000
2642.409909	380.000000
2643.824027	364.333333
2645.237897	446.666667
2646.649929	428.666667
2648.063304	492.333333
2649.473250	465.000000
2650.886132	531.666667
2652.295585	518.333333
2653.704792	573.333333
2655.112163	599.666667
2656.522468	716.333333
2657.930938	715.666667
2659.337572	739.666667
2660.743961	778.333333
2662.148516	867.000000
2663.554415	866.333333
2664.958481	888.333333
2666.362302	933.000000
2667.765879	983.333333
2669.167625	1017.000000
2670.570714	1054.000000
2671.970385	1108.000000
2673.371400	1103.333333
2674.768999	1127.333333
2676.169527	1193.000000
2677.566641	1175.333333
2678.965098	1204.666667
2680.361728	1161.666667
2681.758115	1155.000000
2683.154260	1145.333333
2684.548579	1087.666667
2685.944241	1082.000000
2687.336494	1044.666667
2688.730089	1064.333333
2690.121860	1007.333333
2691.514974	975.333333
2692.906264	932.666667
2694.295731	904.000000
2695.684958	834.000000
2697.073946	808.000000
2698.464275	777.666667
2699.849621	728.000000
2701.237890	722.333333
2702.624339	698.000000
2704.010549	649.666667
2705.396520	616.000000
2706.779093	585.000000
2708.163008	568.666667
2709.546685	561.333333
2710.930123	528.666667
2712.310167	457.000000
2713.691551	462.000000
2715.071121	439.333333
2716.452031	393.666667
2717.831127	406.000000
2719.208409	378.666667
2720.587032	392.000000
2721.963842	346.666667
2723.340415	363.666667
2724.716753	300.666667
2726.091280	366.000000
2727.467147	284.000000
2728.839627	268.333333
2730.215023	288.000000
2731.585459	279.666667
2732.957236	289.666667
2734.328778	271.666667
2735.698512	251.000000
2737.069587	197.666667
2738.438853	242.333333
2739.807886	230.000000
2741.175113	207.666667
2742.542106	235.000000
2743.908867	258.666667
2745.275396	187.333333
2746.640119	194.666667
2748.004610	207.333333
2749.368870	221.333333
2750.732897	226.333333
2752.096693	202.666667
2753.457115	204.333333
2754.820447	202.666667
2756.178837	186.000000
2757.540137	174.333333
2758.898067	190.333333
2760.258905	141.333333
2761.617944	201.666667
2762.973614	152.666667
2764.332192	169.666667
2765.687403	179.333333
2767.042385	170.666667
2768.395571	144.000000
2769.751662	176.333333
2771.104390	176.000000
2772.456890	178.000000
2773.809161	174.666667
2775.162770	180.333333
2776.513019	163.000000
2777.861473	169.333333
2779.212833	167.333333
2780.560833	193.000000
2781.910171	130.666667
2783.257717	199.000000
2784.605037	164.333333
2785.952130	196.000000
2787.297432	162.666667
2788.642507	160.333333
2789.987357	138.000000
2791.331981	170.000000
2792.673253	163.666667
2794.015863	162.333333
2795.358247	155.666667
2796.700406	138.666667
2798.039216	152.333333
2799.380926	155.666667
2800.719288	152.666667
2802.058986	188.000000
2803.396900	136.333333
2804.733029	137.000000
2806.068934	147.666667
2807.406177	190.000000
2808.741636	149.000000
2810.076872	188.000000
2811.410325	152.666667
2812.745115	175.000000
2814.076565	162.000000
2815.410910	154.000000
2816.740357	148.333333
2818.071141	161.333333
2819.401703	163.333333
2820.730486	158.000000
2822.060605	141.333333
2823.388946	135.000000
2824.717066	128.333333
2826.043408	151.000000
2827.371087	133.333333
2828.695432	190.666667
2830.021114	134.000000
2831.345020	161.000000
2832.668707	148.000000
2833.993729	159.666667
2835.315421	118.333333
2836.636895	181.000000
2837.958150	137.333333
2839.279186	159.666667
2840.598449	138.000000
2841.919048	180.666667
2843.237876	122.666667
2844.556485	166.000000
2845.873323	159.333333
2847.189944	142.666667
2848.506348	161.333333
2849.820982	147.000000
2851.136952	185.333333
2852.449601	126.333333
2853.763585	139.666667
2855.077353	147.666667
2856.390904	147.666667
2857.702689	138.333333
2859.012707	177.000000
2860.324060	147.000000
2861.632098	135.333333
2862.941470	125.000000
2864.250628	142.666667
2865.559570	125.666667
2866.866748	117.666667
2868.172164	126.666667
2869.478913	146.333333
2870.783901	140.000000
2872.088675	145.666667
2873.391687	175.333333
2874.697580	137.333333
2875.998619	140.000000
2877.300992	164.666667
2878.601605	154.333333
2879.903552	106.000000
2881.205285	115.666667
2882.503715	138.000000
2883.803478	128.333333
2885.101484	115.333333
2886.399278	129.333333
2887.695316	115.333333
2888.992687	126.000000
2890.288302	110.333333
2891.583706	100.666667
2892.878899	152.333333
2894.170795	103.666667
2895.465567	96.000000
2896.757042	158.000000
2898.049850	136.000000
2899.342448	115.000000
2900.631752	128.333333
2901.922388	138.333333
2903.211273	137.333333
2904.501490	145.666667
2905.788416	121.333333
2907.076674	133.000000
2908.363183	133.333333
2909.649483	128.333333
2910.935576	103.000000
2912.219920	135.666667
2913.507135	144.333333
2914.789524	101.333333
2916.073245	133.000000
2917.355220	158.000000
2918.636987	127.666667
2919.917010	145.333333
2921.199902	127.666667
2922.481049	119.333333
2923.758914	114.666667
2925.039648	100.333333
2926.317101	121.666667
2927.594348	141.666667
2928.869853	124.333333
2930.148226	157.666667
2931.421785	115.000000
2932.698211	151.333333
2933.972896	124.333333
2935.245840	129.000000
2936.520116	111.000000
2937.792652	126.333333
2939.064983	122.000000
2940.334042	114.333333
2941.605966	96.000000
2942.876152	106.333333
2944.146134	122.000000
2945.415913	159.000000
2946.683956	143.666667
2947.950262	129.666667
2949.216367	131.666667
2950.483801	137.000000
2951.749501	82.000000
2953.014998	148.666667
2954.280293	107.000000
2955.542323	141.666667
2956.805683	123.333333
2958.068842	138.000000
2959.330269	172.666667
2960.593025	121.000000
2961.854049	140.666667
2963.113343	129.333333
2964.372437	123.666667
2965.631330	137.333333
2966.890023	126.333333
2968.148516	151.333333
2969.405280	90.333333
2970.661844	131.666667
2971.916681	118.333333
2973.172846	109.000000
2974.425757	124.000000
2975.679997	113.000000
2976.934037	132.666667
2978.186353	112.000000
2979.438469	124.333333
2980.688861	118.333333
2981.942108	106.000000
2983.190578	145.000000
2984.441903	124.666667
2985.689978	120.333333
2986.937857	127.000000
2988.185538	157.000000
2989.433022	100.000000
2990.678785	133.333333
2991.924352	124.666667
2993.171246	72.000000
2994.414896	103.666667
2995.659874	120.333333
2996.901608	95.000000
2998.146194	143.333333
2999.389061	130.333333
3000.628687	143.333333
3001.871163	94.333333
3003.110399	103.333333
3004.350963	119.000000
3005.589810	128.666667
3006.828463	140.666667
3008.065400	135.000000
3009.303665	98.666667
3010.540214	106.666667
3011.776570	105.000000
3013.012732	94.333333
3014.247180	118.000000
3015.481436	90.333333
3016.715498	108.333333
3017.947848	110.333333
3019.178486	105.000000
3020.411970	138.000000
3021.643742	81.000000
3022.873804	151.000000
3024.103673	91.666667
3025.331833	124.333333
3026.561320	104.000000
3027.789097	113.000000
3029.016683	117.000000
3030.245596	115.000000
3031.469766	120.333333
3032.696779	70.333333
3033.920568	140.666667
3035.145684	76.000000
3036.369093	84.666667
3037.592312	120.666667
3038.813826	116.666667
3040.038181	111.000000
3041.257801	131.333333
3042.478747	132.666667
3043.699504	134.000000
3044.918557	89.666667
3046.138935	95.333333
3047.356097	109.000000
3048.574585	108.666667
3049.791370	126.000000
3051.007968	89.000000
3052.224377	147.333333
3053.437574	119.000000
3054.653608	142.666667
3055.866430	129.333333
3057.082089	143.000000
3058.293025	120.666667
3059.505286	123.333333
3060.717361	99.666667
3061.929248	133.666667
3063.139439	102.333333
3064.349443	86.666667
3065.559261	158.666667
3066.767383	125.666667
3067.975320	123.333333
3069.181561	92.666667
3070.389127	114.333333
3071.594998	112.166667
3072.800685	110.000000
3074.006186	63.666667
3075.209994	81.666667
3076.415126	102.000000
3077.618565	94.000000
3078.820313	131.333333
3080.021876	115.666667
3081.223256	121.000000
3082.424452	98.666667
3083.623958	127.333333
3084.823281	88.666667
3086.023927	88.000000
3087.222883	121.333333
3088.418645	93.000000
3089.617236	114.333333
3090.812633	107.000000
3092.009353	87.000000
3093.202881	120.666667
3094.399237	107.333333
3095.593907	96.000000
3096.785385	79.333333
3097.981196	140.333333
3099.172312	109.333333
3100.364752	120.666667
3101.554004	114.000000
3102.746081	122.000000
3103.936475	70.333333
3105.123683	106.333333
3106.312213	113.000000
3107.502066	93.666667
3108.688735	85.333333
3109.875223	109.000000
3111.061533	107.666667
3112.249164	110.000000
3113.433613	124.000000
3114.616383	85.000000
3115.801975	110.333333
3116.985888	123.666667
3118.168122	84.666667
3119.350177	104.333333
3120.532054	91.000000
3121.713753	105.666667
3122.893775	96.666667
3124.072120	115.666667
3125.253285	94.666667
3126.431275	96.000000
3127.609089	91.666667
3128.786725	80.000000
3129.962686	71.000000
3131.138470	110.333333
3132.315576	81.666667
3133.491007	112.000000
3134.664765	111.000000
3135.836850	98.666667
3137.010257	107.333333
3138.183487	109.333333
3139.355046	89.666667
3140.527925	103.333333
3141.697637	83.000000
3142.868670	99.666667
3144.038033	119.666667
3145.205725	120.000000
3146.376233	116.000000
3147.542083	83.666667
3148.712241	115.000000
3149.877743	101.333333
3151.043070	65.000000
3152.208224	92.666667
3153.373205	70.000000
3154.539505	109.333333
3155.701153	121.000000
3156.864120	129.333333
3158.026915	107.666667
3159.189537	118.333333
3160.350494	88.666667
3161.511278	95.000000
3162.671890	89.333333
3163.830838	101.666667
3164.989615	105.000000
3166.148220	96.000000
3167.306652	105.000000
3168.464914	120.000000
3169.621513	137.666667
3170.776451	94.333333
3171.932708	103.000000
3173.087304	67.333333
3174.241730	77.000000
3175.394496	92.000000
3176.547091	84.666667
3177.699517	95.666667
3178.851773	54.666667
3180.003858	91.666667
3181.152798	71.000000
3182.304544	81.333333
3183.454632	71.000000
3184.603064	104.666667
3185.751326	80.000000
3186.899420	97.333333
3188.047345	74.333333
3189.193614	96.333333
3190.339715	113.333333
3191.484162	90.666667
3192.628441	65.333333
3193.772552	93.666667
3194.917980	77.000000
3196.060270	88.666667
3197.202393	56.333333
3198.344348	87.000000
3199.486136	84.000000
3200.627757	97.666667
3201.766243	86.000000
3202.906046	108.666667
3204.047167	104.000000
3205.185153	105.666667
3206.321490	79.333333
3207.457661	89.333333
3208.595149	97.333333
3209.730989	94.333333
3210.868146	105.333333
3212.000690	129.000000
3213.137516	99.000000
3214.269730	89.666667
3215.403261	98.000000
3216.536628	118.333333
3217.666867	98.333333
3218.799904	107.000000
3219.929815	92.333333
3221.061042	104.000000
3222.189145	98.666667
3223.320044	112.000000
3224.449299	116.000000
3225.576911	124.666667
3226.701400	122.333333
3227.830165	139.333333
3228.955808	84.333333
3230.081289	122.333333
3231.205128	100.666667
3232.331761	146.000000
3233.453797	84.333333
3234.577149	131.000000
3235.700339	112.666667
3236.823366	117.000000
3237.944755	110.666667
3239.065981	114.333333
3240.185570	109.000000
3241.304997	146.666667
3242.422786	90.666667
3243.543367	137.666667
3244.660835	158.000000
3245.778142	127.000000
3246.895289	131.666667
3248.010800	110.333333
3249.127625	133.333333
3250.241341	101.333333
3251.357846	73.666667
3252.472717	95.333333
3253.584479	91.000000
3254.696081	112.666667
3255.808999	94.666667
3256.921757	124.333333
3258.031409	92.666667
3259.142376	98.333333
3260.253184	103.333333
3261.362360	104.000000
3262.469906	91.666667
3263.578765	108.333333
3264.687467	98.666667
3265.793066	100.666667
3266.899979	80.333333
3268.005263	93.333333
3269.111861	65.333333
3270.215359	77.666667
3271.320172	64.000000
3272.424827	98.333333
3273.526383	69.666667
3274.627783	96.333333
3275.730497	82.000000
3276.833055	68.000000
3277.932516	60.333333
3279.034761	81.666667
3280.133910	104.666667
3281.231435	115.333333
3282.328804	69.333333
3283.428955	89.000000
3284.526014	111.000000
3285.622917	92.666667
3286.719665	93.333333
3287.811855	117.000000
3288.908293	95.333333
3290.003109	87.666667
3291.097771	91.333333
3292.190811	78.666667
3293.283696	63.333333
3294.374962	121.333333
3295.467539	62.666667
3296.558497	71.000000
3297.647835	92.000000
3298.737020	49.000000
3299.827518	63.666667
3300.914931	101.666667
3302.002191	92.000000
3303.090764	84.333333
3304.179185	116.000000
3305.263058	63.000000
3306.351173	73.000000
3307.436206	94.333333
3308.519624	79.000000
3309.604354	77.333333
3310.687468	81.000000
3311.771895	91.333333
3312.853243	74.000000
3313.935903	121.000000
3315.016949	71.000000
3316.097844	87.333333
3317.177125	95.000000
3318.256256	74.000000
3319.336699	61.333333
3320.414067	81.000000
3321.492747	55.333333
3322.569815	63.666667
3323.646734	86.000000
3324.722041	70.333333
3325.797199	68.333333
3326.873668	84.666667
3327.947067	68.333333
3329.020317	111.000000
3330.094877	71.333333
3331.167829	79.000000
3332.239172	62.000000
3333.311826	68.333333
3334.381414	94.666667
3335.452312	90.333333
3336.521603	82.000000
3337.592205	109.333333
3338.661200	80.333333
3339.728589	62.666667
3340.794373	79.333333
3341.864383	73.666667
3342.931330	86.000000
3343.995215	58.666667
3345.061868	76.666667
3346.126916	92.333333
3347.190361	36.333333
3348.253660	83.666667
3349.316812	91.333333
3350.379818	93.333333
3351.442678	73.333333
3352.503936	85.333333
3353.562137	84.666667
3354.624558	76.000000
3355.683924	75.666667
3356.743144	59.000000
3357.803673	31.000000
3358.859694	63.000000
3359.918478	74.333333
3360.972755	107.333333
3362.029796	74.666667
3363.085238	86.666667
3364.141990	96.000000
3365.197143	81.333333
3366.250699	42.666667
3367.302659	69.333333
3368.357380	75.000000
3369.409052	71.666667
3370.460581	67.666667
3371.513418	84.333333
3372.563208	59.666667
3373.614307	95.000000
3374.662360	43.000000
3375.713172	76.000000
3376.760940	67.333333
3377.808565	54.000000
3378.856047	70.333333
3379.901937	71.000000
3380.949135	85.000000
3381.993291	90.666667
3383.040205	94.000000
3384.085527	88.333333
3385.127808	85.000000
3386.169949	87.000000
3387.213397	93.333333
3388.256704	76.000000
3389.298422	58.000000
3390.339998	83.333333
3391.381433	91.666667
3392.421280	93.666667
3393.459538	75.000000
3394.499104	64.000000
3395.538530	46.666667
3396.576368	72.000000
3397.612619	70.666667
3398.648731	97.666667
3399.686150	63.666667
3400.720536	91.666667
3401.756229	51.666667
3402.791783	68.333333
3403.824306	60.333333
3404.859582	77.000000
3405.891827	67.666667
3406.923934	93.333333
3407.954457	71.000000
3408.986287	46.333333
3410.017979	53.000000
3411.046643	85.666667
3412.075170	60.333333
3413.105003	60.000000
3414.134699	60.333333
3415.161369	77.666667
3416.189346	78.333333
3417.214298	69.000000
3418.242000	79.000000
3419.266679	55.666667
3420.292664	80.000000
3421.317069	39.000000
3422.341338	45.666667
3423.364028	97.000000
3424.386582	73.333333
3425.410442	50.666667
3426.431282	66.666667
3427.451986	69.333333
3428.473997	46.000000
3429.492989	53.000000
3430.511845	44.000000
3431.532008	44.000000
3432.549154	61.666667
