-117.805840	3.500000
-115.136240	-8.300000
-112.469575	9.800000
-109.803662	-9.500000
-107.140682	9.100000
-104.476271	-8.900000
-101.814791	3.300000
-99.151882	4.000000
-96.494079	1.400000
-93.834847	21.900000
-91.176363	-7.900000
-88.520804	11.400000
-85.863815	6.400000
-83.211925	1.800000
-80.558605	-2.800000
-77.908204	5.600000
-75.256375	-5.500000
-72.609636	10.000000
-69.961467	-11.000000
-67.314041	10.100000
-64.669530	-19.200000
-62.023589	6.500000
-59.382730	5.400000
-56.740442	3.400000
-54.101063	-17.600000
-51.460255	6.900000
-48.820186	6.300000
-46.185191	-13.200000
-43.548766	6.900000
-40.915244	-6.400000
-38.280294	12.600000
-35.650410	-3.300000
-33.016932	4.000000
-30.388517	14.700000
-27.760836	-3.800000
-25.131726	1.800000
-22.507674	-15.900000
-19.880031	-0.500000
-17.257443	7.200000
-14.635585	9.300000
-12.014458	5.500000
-9.394062	19.300000
-6.776553	5.100000
-4.157616	19.000000
-1.541565	31.000000
1.073759	48.100000
3.688354	13.200000
6.300068	16.000000
8.913210	12.400000
11.521318	-5.300000
14.133007	10.700000
16.739666	2.200000
19.347754	0.300000
21.955116	18.900000
24.557454	-2.100000
27.163371	-7.800000
29.764265	-0.400000
32.366587	6.100000
34.963891	-4.700000
37.564772	-11.200000
40.160637	-2.500000
42.757930	9.500000
45.354505	-13.300000
47.946070	3.000000
50.539063	2.500000
53.129195	-3.600000
55.720754	8.400000
58.309455	13.500000
60.899582	-6.700000
63.484710	-3.500000
66.071266	9.800000
68.657108	7.800000
71.240095	6.200000
73.824510	4.500000
76.401796	4.100000
78.982648	-3.100000
81.560651	-7.400000
84.137943	11.200000
86.716663	-7.000000
89.290400	-21.100000
91.865564	-4.600000
94.437885	-4.500000
97.009499	3.500000
99.578272	6.700000
102.148472	17.000000
104.715833	2.800000
107.284621	5.500000
109.850572	18.000000
112.413688	4.100000
114.980360	7.700000
117.537810	17.800000
120.100946	-0.400000
122.659123	9.200000
125.220854	9.600000
127.777628	15.000000
130.335828	32.600000
132.889076	39.400000
135.441626	60.400000
137.997726	71.400000
140.548878	108.400000
143.099333	110.800000
145.649090	145.400000
148.196028	165.500000
150.742271	175.400000
153.289939	171.700000
155.836911	177.400000
158.378948	174.400000
160.920291	181.800000
163.460941	159.700000
166.003017	192.500000
168.542281	173.600000
171.078736	195.100000
173.614501	181.500000
176.151691	195.800000
178.688190	168.400000
181.221883	181.500000
183.752772	181.700000
186.282973	192.500000
188.814600	176.300000
191.343425	184.100000
193.869451	183.700000
196.394791	181.900000
198.921556	183.300000
201.445525	192.700000
203.968809	192.200000
206.491407	185.100000
209.011213	181.400000
211.530336	185.000000
214.048777	163.100000
216.568641	167.600000
219.081503	163.000000
221.597897	177.400000
224.113610	188.500000
226.624432	188.500000
229.136679	179.700000
231.646143	174.100000
234.154929	178.000000
236.663037	177.700000
239.172569	193.800000
241.677220	176.600000
244.181195	163.300000
246.686594	180.900000
249.187118	164.500000
251.691165	195.500000
254.188242	170.500000
256.688842	188.900000
259.186670	171.800000
261.683825	181.500000
264.180307	169.600000
266.671926	186.300000
269.167065	172.700000
271.659437	184.100000
274.151139	180.900000
276.640078	181.200000
279.130440	175.800000
281.618041	162.200000
284.102882	158.800000
286.591238	194.100000
289.072654	167.800000
291.557584	201.300000
294.037669	180.200000
296.521266	175.300000
299.000020	180.500000
301.480197	160.200000
303.957623	168.600000
306.434385	195.700000
308.910483	168.700000
311.383833	184.700000
313.856522	198.200000
316.328549	180.900000
318.799914	167.600000
321.268536	185.400000
323.736498	166.700000
326.205883	167.000000
328.670445	178.700000
331.138511	175.600000
333.601756	180.600000
336.064345	189.600000
338.526277	183.100000
340.987552	195.400000
343.446092	181.700000
345.906056	185.200000
348.363286	183.800000
350.819862	190.200000
353.275784	190.300000
355.728976	182.500000
358.183591	174.400000
360.633404	176.500000
363.086713	156.800000
365.535223	164.800000
367.983083	166.400000
370.432365	183.700000
372.876852	160.400000
375.322763	183.700000
377.768023	161.900000
380.210565	172.700000
382.652459	160.200000
385.093705	170.400000
387.532237	168.300000
389.972189	166.400000
392.409428	188.600000
394.843956	163.300000
397.281970	167.600000
399.715209	167.200000
402.149868	173.500000
404.579755	167.600000
407.013127	174.400000
409.441729	162.400000
411.869689	181.500000
414.299071	174.300000
416.723687	174.400000
419.149725	170.700000
421.575122	157.600000
423.999879	182.600000
426.419877	177.100000
428.841297	178.000000
431.260021	185.300000
433.680165	168.200000
436.097614	150.800000
438.516483	188.400000
440.932658	175.700000
443.344087	175.500000
445.758992	169.900000
448.171208	175.700000
450.582789	162.700000
452.993736	206.300000
455.401996	171.500000
457.809625	179.700000
460.216621	190.700000
462.622986	163.000000
465.026668	177.400000
467.429720	172.400000
469.832142	186.700000
472.233934	170.700000
474.633048	165.800000
477.033582	163.100000
479.433487	183.100000
481.828670	185.700000
484.227319	182.000000
486.621247	178.400000
489.014550	170.100000
491.407228	176.400000
493.799280	151.200000
496.192750	169.200000
498.581508	187.400000
500.967600	174.700000
503.355112	157.500000
505.742001	161.500000
508.126225	168.300000
510.511869	176.700000
512.894851	186.500000
515.275172	177.800000
517.656912	184.600000
520.035993	169.800000
522.416492	165.200000
524.794335	187.600000
527.169521	151.500000
529.544091	166.500000
531.920078	169.300000
534.293413	175.400000
536.668165	159.600000
539.038231	178.000000
541.407683	166.300000
543.778552	169.300000
546.144740	170.100000
548.512347	168.400000
550.877308	181.700000
553.241657	173.200000
555.605392	161.800000
557.970545	185.400000
560.331026	147.100000
562.692925	165.900000
565.052183	172.900000
567.408803	176.200000
569.768869	163.000000
572.122243	179.200000
574.479062	162.700000
576.833246	175.300000
579.186821	164.800000
581.539789	168.400000
583.890124	160.600000
586.241877	167.600000
588.586953	181.200000
590.937492	163.400000
593.281359	156.800000
595.630687	170.600000
597.975366	166.400000
600.317421	184.400000
602.660893	174.700000
605.001742	152.000000
607.341988	151.300000
609.679614	170.400000
612.020675	182.000000
614.357099	160.400000
616.694939	166.000000
619.030162	166.400000
621.362768	155.200000
623.696792	171.400000
626.028201	170.800000
628.359012	178.200000
630.689225	177.900000
633.018841	172.400000
635.343833	142.200000
637.674267	163.300000
640.000080	158.900000
642.323285	169.700000
644.647907	158.500000
646.969923	157.700000
649.291345	138.900000
651.610164	171.900000
653.930400	173.000000
656.250042	153.900000
658.567083	163.600000
660.883532	170.600000
663.197383	161.300000
665.512650	149.000000
667.825320	171.700000
670.139405	164.500000
672.448890	164.100000
674.759791	177.300000
677.068099	183.100000
679.375819	163.300000
681.684953	156.400000
683.989495	168.900000
686.293451	167.100000
688.596821	163.300000
690.901605	173.800000
693.201802	149.200000
695.503415	155.500000
697.804442	155.100000
700.100888	169.100000
702.398749	172.300000
704.696026	123.200000
706.992720	152.700000
709.284838	155.200000
711.580367	172.100000
713.871322	155.500000
716.163692	174.700000
718.453487	157.000000
720.742701	194.500000
723.031336	160.400000
725.317398	180.500000
727.604875	175.500000
729.889780	156.900000
732.174108	151.600000
734.455867	174.500000
736.739040	158.900000
739.021636	189.800000
741.299676	161.800000
743.579130	151.200000
745.858009	169.500000
748.136313	182.000000
750.410066	183.600000
752.685234	157.900000
754.959828	152.000000
757.231863	164.300000
759.505311	149.400000
761.776201	156.400000
764.044535	165.100000
766.314282	153.800000
768.581474	169.400000
770.848097	159.500000
773.114149	165.200000
775.377650	165.000000
777.642564	178.500000
779.906908	166.400000
782.166723	160.000000
784.427950	155.900000
786.688610	164.300000
788.946724	159.300000
791.202293	163.800000
793.461252	164.200000
795.713713	162.200000
797.971541	163.100000
800.224850	172.500000
802.475619	177.700000
804.727800	147.900000
806.977442	167.800000
809.228496	159.400000
811.475040	153.700000
813.722995	161.300000
815.968416	160.900000
818.215248	159.700000
820.461519	165.700000
822.703285	144.700000
824.948435	165.100000
827.187112	158.500000
829.429171	159.100000
831.666732	167.500000
833.905705	163.500000
836.142151	155.800000
838.380008	164.200000
840.615340	159.600000
842.848149	172.000000
845.082368	152.400000
847.314066	167.800000
849.545209	172.600000
851.775797	154.600000
854.005831	161.500000
856.235311	162.600000
858.460309	163.800000
860.688681	180.300000
862.912575	151.400000
865.137880	148.600000
867.358709	178.100000
869.582910	165.100000
871.802638	169.500000
874.023776	159.300000
876.244364	167.900000
878.462443	189.900000
880.681931	169.900000
882.896953	165.700000
885.111427	174.400000
887.325354	162.600000
889.538734	173.800000
891.751566	163.500000
893.963851	136.900000
896.173635	135.300000
898.382873	145.500000
900.591566	166.500000
902.797759	158.600000
905.005362	168.900000
907.210468	162.100000
909.415030	161.500000
911.617097	160.500000
913.820573	166.700000
916.021555	139.900000
918.221995	162.000000
920.423844	170.600000
922.619302	151.300000
924.818118	161.300000
927.012497	172.300000
929.210233	154.100000
931.403533	157.500000
933.598242	176.400000
935.790464	163.400000
937.982149	168.600000
940.173296	180.600000
942.361960	168.000000
944.550088	190.800000
946.735734	162.900000
948.924734	162.300000
951.109310	170.800000
953.293351	179.700000
955.480742	173.700000
957.659829	166.000000
959.842267	190.500000
962.024171	160.900000
964.203600	175.500000
966.380557	179.800000
968.558922	166.600000
970.738694	178.500000
972.912117	167.200000
975.088886	192.000000
977.261248	175.300000
979.435018	164.700000
981.604384	165.200000
983.777094	165.800000
985.947339	165.000000
988.117054	170.900000
990.286241	171.700000
992.451031	162.100000
994.619163	186.400000
996.782899	175.200000
998.948043	160.700000
1001.110727	187.900000
1003.272886	165.900000
1005.432588	193.700000
1007.591765	188.300000
1009.752349	172.900000
1011.910478	159.800000
1014.068084	177.000000
1016.225166	169.400000
1018.381724	179.500000
1020.533903	174.100000
1022.687489	193.500000
1024.840553	156.900000
1026.991168	180.400000
1029.143189	177.500000
1031.290838	156.800000
1033.441818	156.000000
1035.588427	159.600000
1037.734517	172.400000
1039.880089	191.400000
1042.027066	176.400000
1044.167754	177.400000
1046.311771	157.900000
1048.453349	163.000000
1050.594409	156.200000
1052.736875	180.300000
1054.873060	181.500000
1057.012572	174.900000
1059.147728	154.600000
1061.286209	152.600000
1063.420337	167.400000
1065.553951	180.400000
1067.688969	195.000000
1069.819639	166.800000
1071.951713	157.900000
1074.081358	166.400000
1076.210490	172.900000
1078.339112	169.000000
1080.467222	173.300000
1082.592906	163.800000
1084.718080	165.900000
1086.844658	190.100000
1088.966898	172.700000
1091.090543	176.100000
1093.209853	167.200000
1095.334392	167.300000
1097.452687	164.700000
1099.572385	172.100000
1101.689666	183.000000
1103.806439	168.400000
1105.922706	166.400000
1108.036558	173.000000
1110.151813	161.800000
1112.262746	179.900000
1114.376991	176.900000
1116.486915	180.100000
1118.598243	188.200000
1120.709066	181.300000
1122.815573	181.000000
1124.925389	173.800000
1127.030892	182.200000
1129.137797	179.000000
1131.238487	159.800000
1133.344389	170.900000
1135.445982	171.000000
1137.548978	184.500000
1139.651473	173.800000
1141.747761	178.700000
1143.849256	161.700000
1145.946449	185.600000
1148.043144	144.000000
1150.139340	158.400000
1152.235038	163.600000
1154.330239	166.500000
1156.423043	152.100000
1158.517249	177.600000
1160.605264	168.800000
1162.698478	163.400000
1164.785503	159.400000
1166.875827	180.100000
1168.961863	157.000000
1171.051197	176.300000
1173.134350	156.600000
1175.218906	177.300000
1177.304863	169.500000
1179.386538	186.800000
1181.469614	147.700000
1183.550305	176.600000
1185.630505	172.200000
1187.710213	180.600000
1189.789430	178.100000
1191.866264	181.900000
1193.940718	187.400000
1196.018464	180.400000
1198.091939	144.900000
1200.166816	168.000000
1202.237425	169.400000
1204.309435	181.100000
1206.379069	169.000000
1208.450104	177.200000
1210.520652	160.700000
1212.586938	177.400000
1214.654625	171.100000
1216.719939	174.200000
1218.786654	174.200000
1220.849114	179.400000
1222.914858	173.100000
1224.976348	192.900000
1227.039239	193.900000
1229.099761	184.200000
1231.159801	171.900000
1233.219357	169.000000
1235.276549	181.600000
1237.333258	180.800000
1239.387605	171.100000
1241.445233	159.400000
1243.500497	180.100000
1245.551522	180.700000
1247.603946	197.500000
1249.655890	174.300000
1251.705476	169.700000
1253.754583	182.900000
1255.803211	199.900000
1257.851361	190.500000
1259.899033	189.000000
1261.942474	182.400000
1263.989191	184.100000
1266.033554	201.000000
1268.077441	193.400000
1270.118976	196.200000
1272.158162	196.200000
1274.200621	199.800000
1276.238857	199.300000
1278.278492	204.400000
1280.317651	201.500000
1282.352593	196.000000
1284.388933	203.400000
1286.422929	205.900000
1288.458322	220.200000
1290.489502	209.700000
1292.522081	208.000000
1294.554188	225.700000
1296.583954	216.100000
1298.615117	231.100000
1300.642073	235.700000
1302.670428	252.300000
1304.694577	251.800000
1306.721992	273.200000
1308.745204	262.700000
1310.769814	338.300000
1312.792089	331.300000
1314.815762	377.200000
1316.837102	437.500000
1318.857975	537.900000
1320.878380	694.600000
1322.894592	1020.500000
1324.912201	1722.800000
1326.927482	3551.600000
1328.946022	7963.100000
1330.960372	14417.500000
1332.972397	15732.300000
1334.987680	10142.800000
1336.998777	4011.800000
1339.011270	1604.600000
1341.019581	893.100000
1343.031148	595.400000
1345.036676	450.300000
1347.045459	369.700000
1349.050064	319.000000
1351.057923	285.800000
1353.065320	257.900000
1355.066686	282.800000
1357.069448	236.600000
1359.071751	222.000000
1361.073594	210.100000
1363.074977	196.700000
1365.074046	200.500000
1367.072658	208.700000
1369.070810	208.200000
1371.068505	220.300000
1373.062037	195.700000
1375.056964	209.000000
1377.051435	191.600000
1379.045449	204.800000
1381.037156	186.000000
1383.028407	198.600000
1385.017353	191.200000
1387.007694	181.900000
1388.997581	184.400000
1390.985163	191.900000
1392.972292	193.900000
1394.957119	180.800000
1396.943341	187.900000
1398.927262	186.900000
1400.910731	183.100000
1402.893748	197.000000
1404.874467	193.800000
1406.856580	187.000000
1408.836396	198.000000
1410.815762	204.900000
1412.790989	186.800000
1414.769454	200.300000
1416.745626	185.700000
1418.721348	203.100000
1420.696622	191.400000
1422.669604	190.400000
1424.642138	190.700000
1426.614224	188.300000
1428.585863	196.900000
1430.553373	193.600000
1432.525957	198.100000
1434.490735	187.000000
1436.460586	198.900000
1438.426312	194.100000
1440.393432	190.300000
1442.358268	192.900000
1444.318984	204.600000
1446.284768	191.400000
1448.244597	187.400000
1450.205820	197.400000
1452.168434	185.500000
1454.126934	190.000000
1456.084992	195.500000
1458.042608	198.600000
1459.999781	185.100000
1461.954679	182.600000
1463.910970	195.600000
1465.864986	174.200000
1467.818561	184.100000
1469.769864	205.400000
1471.722559	180.800000
1473.672983	203.400000
1475.622968	182.700000
1477.572514	212.800000
1479.519791	178.000000
1481.464800	187.700000
1483.411202	187.000000
1485.357166	205.100000
1487.302693	172.600000
1489.245954	202.200000
1491.188779	187.400000
1493.129341	204.700000
1495.071295	179.000000
1497.010986	195.100000
1498.950242	187.600000
1500.889064	208.600000
1502.825626	198.000000
1504.763579	174.600000
1506.699273	196.700000
1508.634534	218.200000
1510.567538	200.600000
1512.500110	197.700000
1514.432250	209.100000
1516.363958	182.600000
1518.293413	200.800000
1520.224258	196.900000
1522.154671	165.100000
1524.081012	186.700000
1526.008743	195.500000
1527.934225	197.600000
1529.859277	181.400000
1531.783900	199.300000
1533.708093	197.000000
1535.630040	214.400000
1537.553377	176.100000
1539.474467	191.400000
1541.393313	185.200000
1543.313549	195.500000
1545.231541	205.800000
1547.149107	191.700000
1549.064432	178.800000
1550.981146	201.100000
1552.893805	206.100000
1554.809667	203.700000
1556.723291	179.000000
1558.634676	205.700000
1560.547451	193.800000
1562.456176	197.700000
1564.366290	200.600000
1566.275981	212.800000
1568.185249	218.900000
1570.092282	205.800000
1571.997083	185.800000
1573.903273	206.300000
1575.807232	180.300000
1577.710769	200.900000
1579.613886	184.100000
1581.514773	198.500000
1583.417049	207.500000
1585.317096	171.900000
1587.218532	185.900000
1589.115934	199.800000
1591.012917	184.200000
1592.909482	204.800000
1594.807434	197.500000
1596.699552	179.600000
1598.594864	180.600000
1600.489758	194.500000
1602.382430	195.400000
1604.274685	219.600000
1606.164721	191.400000
1608.054341	174.700000
1609.943546	191.700000
1611.832335	172.900000
1613.718908	194.500000
1615.606868	199.500000
1617.490811	188.200000
1619.376141	187.000000
1621.261058	176.300000
1623.143761	203.300000
1625.027851	184.500000
1626.907929	204.100000
1628.789395	204.500000
1630.668649	188.200000
1632.549291	203.000000
1634.424128	192.200000
1636.303946	185.800000
1638.179760	207.900000
1640.055163	194.100000
1641.931952	181.500000
1643.802944	182.100000
1645.677119	188.500000
1647.547294	186.000000
1649.420650	197.800000
1651.291803	196.600000
1653.160754	189.800000
1655.031091	196.300000
1656.897435	178.700000
1658.765164	205.000000
1660.630694	205.200000
1662.497610	190.500000
1664.360536	199.000000
1666.224849	198.400000
1668.086965	200.100000
1669.948676	205.700000
1671.811772	198.800000
1673.672674	208.200000
1675.531383	188.600000
1677.389688	196.900000
1679.249377	180.600000
1681.103300	190.400000
1682.960396	203.000000
1684.817088	180.900000
1686.669805	191.900000
1688.525693	209.200000
1690.377607	195.000000
1692.229120	196.800000
1694.080232	194.700000
1695.930943	182.200000
1697.781254	193.800000
1699.629381	168.700000
1701.478892	211.400000
1703.322653	192.100000
1705.171365	206.700000
1707.014330	175.700000
1708.860461	197.100000
1710.702631	180.200000
1712.547966	194.500000
1714.387560	186.600000
1716.228538	194.800000
1718.070899	183.000000
1719.909303	197.700000
1721.749091	198.300000
1723.586704	198.600000
1725.423922	198.600000
1727.258966	191.600000
1729.095393	198.700000
1730.929647	203.200000
1732.763508	211.800000
1734.596974	195.200000
1736.426494	194.100000
1738.259174	185.100000
1740.087908	191.500000
1741.919801	204.700000
1743.747751	200.000000
1745.575309	187.500000
1747.402476	181.400000
1749.229251	179.700000
1751.055634	186.400000
1752.878081	202.100000
1754.703683	197.200000
1756.525350	198.700000
1758.348398	198.000000
1760.169286	173.200000
1761.989785	197.800000
1763.811664	199.700000
1765.627844	197.000000
1767.447176	192.800000
1769.262581	201.000000
1771.081137	199.300000
1772.895767	204.700000
1774.710010	195.600000
1776.523867	197.600000
1778.337337	189.400000
1780.148653	179.600000
1781.961351	196.300000
1783.773663	188.600000
1785.582056	171.500000
1787.391831	184.400000
1789.197691	195.600000
1791.006696	209.000000
1792.811788	196.600000
1794.618261	191.200000
1796.424349	189.400000
1798.226528	183.800000
1800.031851	201.100000
1801.833264	195.200000
1803.636059	201.800000
1805.434947	201.500000
1807.235216	200.300000
1809.035103	178.200000
1810.832848	188.400000
1812.630213	186.000000
1814.427197	192.500000
1816.223802	167.600000
1818.018266	205.400000
1819.814111	210.500000
1821.604300	191.600000
1823.399386	197.500000
1825.188819	208.600000
1826.981390	208.400000
1828.771825	186.500000
1830.560125	190.400000
1832.351561	215.700000
1834.137352	191.300000
1835.924522	193.500000
1837.709560	195.300000
1839.497731	198.000000
1841.282018	199.500000
1843.064174	199.900000
1844.847710	199.100000
1846.629117	211.400000
1848.411902	201.100000
1850.190808	207.600000
1851.971092	191.600000
1853.749251	212.000000
1855.528787	199.300000
1857.306199	227.500000
1859.081488	208.100000
1860.858154	204.700000
1862.632698	199.400000
1864.408619	205.200000
1866.178921	192.700000
1867.952350	191.100000
1869.723659	207.100000
1871.494597	200.400000
1873.266913	198.900000
1875.033615	209.400000
1876.803442	186.500000
1878.569406	197.600000
1880.338494	223.500000
1882.103720	223.100000
1883.868578	204.400000
1885.634812	223.600000
1887.397189	200.500000
1889.159197	204.400000
1890.920839	218.100000
1892.682113	209.600000
1894.443021	213.000000
1896.203561	212.000000
1897.961993	232.800000
1899.720058	213.100000
1901.476016	207.200000
1903.233350	209.800000
1904.990319	205.100000
1906.745181	197.000000
1908.497939	204.800000
1910.250332	215.600000
1912.004102	190.900000
1913.755768	212.400000
1915.505331	224.200000
1917.256271	211.000000
1919.006847	220.800000
1920.753585	209.300000
1922.501698	209.900000
1924.247713	215.600000
1925.995102	219.500000
1927.740393	212.500000
1929.483588	202.200000
1931.228157	204.800000
1932.970630	214.100000
1934.712744	224.800000
1936.454497	233.700000
1938.195890	226.200000
1939.935190	220.700000
1941.674131	225.700000
1943.412713	222.100000
1945.149204	213.500000
1946.885336	212.350000
1948.622844	211.200000
1950.356529	206.400000
1952.091589	215.700000
1953.824560	229.100000
1955.557175	235.600000
1957.289433	224.100000
1959.021335	238.600000
1960.751152	228.000000
1962.478883	227.100000
1964.207989	206.700000
1965.936739	227.300000
1967.663407	223.700000
1969.389719	240.800000
1971.117406	237.900000
1972.839556	223.300000
1974.564807	233.600000
1976.286251	237.400000
1978.010795	227.200000
1979.733260	225.300000
1981.451921	225.800000
1983.173682	237.300000
1984.891640	233.300000
1986.610971	229.800000
1988.326503	224.600000
1990.046855	211.300000
1991.763409	243.600000
1993.476166	233.100000
1995.192019	226.500000
1996.905800	249.200000
1998.619231	256.300000
2000.330591	222.700000
2002.043323	253.600000
2003.752265	262.800000
2005.464299	225.700000
2007.170824	236.400000
2008.880442	247.700000
2010.587992	228.300000
2012.295195	244.900000
2014.000332	242.400000
2015.705123	243.800000
2017.411285	228.400000
2019.113664	227.700000
2020.817416	254.200000
2022.519105	253.700000
2024.220448	259.100000
2025.921447	248.800000
2027.620384	240.100000
2029.320693	257.100000
2031.017226	234.200000
2032.715131	258.700000
2034.410978	263.300000
2036.109910	236.900000
2037.803356	249.300000
2039.498173	249.100000
2041.192647	273.400000
2042.883354	246.500000
2044.577143	242.100000
2046.267167	244.800000
2047.958561	265.700000
2049.647901	249.600000
2051.338613	237.800000
2053.025561	254.000000
2054.712169	266.600000
2056.400148	237.800000
2058.084367	253.300000
2059.769956	249.600000
2061.455206	251.500000
2063.138408	261.900000
2064.822980	256.300000
2066.502088	248.500000
2068.185983	264.100000
2069.864416	239.700000
2071.545927	246.300000
2073.223686	252.200000
2074.901109	248.900000
2076.579901	252.900000
2078.256650	266.200000
2079.931358	252.300000
2081.607436	273.900000
2083.281472	262.500000
2084.955174	281.100000
2086.628540	241.000000
2088.299867	260.700000
2089.970860	258.200000
2091.641519	247.700000
2093.311844	257.700000
2094.981835	255.200000
2096.649790	249.700000
2098.317411	262.200000
2099.982999	265.500000
2101.649955	259.000000
2103.314878	267.700000
2104.979469	250.300000
2106.642028	262.100000
2108.305955	263.100000
2109.967851	255.600000
2111.629417	252.100000
2113.290651	277.700000
2114.949856	284.700000
2116.608732	271.500000
2118.267278	256.700000
2119.925493	262.400000
2121.579986	283.100000
2123.237543	263.800000
2124.894770	275.900000
2126.548277	269.400000
2128.203151	285.800000
2129.854306	261.700000
2131.508524	268.300000
2133.159024	265.700000
2134.810892	262.600000
2136.457351	258.200000
2138.108564	266.000000
2139.756065	265.400000
2141.404932	253.500000
2143.051780	281.000000
2144.698303	275.100000
2146.344500	280.200000
2147.986989	278.300000
2149.632535	270.500000
2151.274375	270.400000
2152.919272	276.300000
2154.560464	285.700000
2156.201332	264.400000
2157.841877	275.100000
2159.480409	273.800000
2161.120307	261.400000
2162.756505	280.000000
2164.394069	279.500000
2166.031311	290.100000
2167.666543	267.600000
2169.301453	289.200000
2170.936042	280.200000
2172.570310	266.600000
2174.200884	259.000000
2175.834510	284.700000
2177.464444	282.400000
2179.095743	280.100000
2180.725037	280.800000
2182.354012	277.800000
2183.982667	285.000000
2185.611003	288.100000
2187.237336	282.300000
2188.863351	292.700000
2190.487365	298.500000
2192.112744	280.500000
2193.736122	294.300000
2195.360865	287.800000
2196.981927	288.700000
2198.602672	306.800000
2200.224781	302.800000
2201.844893	284.800000
2203.463009	292.100000
2205.080809	300.000000
2206.698293	321.800000
2208.315463	286.700000
2209.932316	282.100000
2211.548855	296.000000
2213.163401	313.100000
2214.775954	299.800000
2216.389871	289.800000
2218.001797	303.700000
2219.615086	320.200000
2221.226385	281.800000
2222.835694	295.200000
2224.446366	303.600000
2226.055050	308.300000
2227.663422	287.500000
2229.269807	306.500000
2230.877554	306.000000
2232.483316	310.700000
2234.088766	313.600000
2235.692231	294.300000
2237.297059	293.200000
2238.899903	305.000000
2240.500764	302.100000
2242.102988	305.700000
2243.703230	322.100000
2245.304834	294.200000
2246.902785	338.500000
2248.502099	317.700000
2250.099433	307.800000
2251.696459	304.300000
2253.294846	305.900000
2254.889586	321.500000
2256.482348	327.700000
2258.076473	329.000000
2259.671959	318.700000
2261.263800	334.800000
2262.855335	315.200000
2264.448232	316.600000
2266.035819	322.600000
2267.628102	328.500000
2269.215079	311.600000
2270.805083	307.200000
2272.389783	314.800000
2273.979177	302.100000
2275.563268	329.100000
2277.148721	320.400000
2278.732205	307.200000
2280.318714	332.000000
2281.901590	305.500000
2283.484163	326.300000
2285.066432	329.100000
2286.645071	332.700000
2288.226735	302.100000
2289.804770	349.400000
2291.385828	296.500000
2292.963259	308.200000
2294.538727	319.900000
2296.117217	319.800000
2297.692083	304.700000
2299.266648	322.000000
2300.840912	325.100000
2302.414876	326.400000
2303.988540	313.500000
2305.561904	323.500000
2307.131649	334.200000
2308.701095	332.400000
2310.273559	327.000000
2311.840749	331.100000
2313.410956	324.600000
2314.977550	349.800000
2316.545503	335.400000
2318.111500	364.800000
2319.677200	322.400000
2321.242602	336.900000
2322.806051	348.300000
2324.370859	342.800000
2325.932059	341.900000
2327.496272	330.400000
2329.055225	343.200000
2330.617191	352.400000
2332.177207	346.200000
2333.736927	339.400000
2335.294699	349.000000
2336.852175	335.600000
2338.409357	343.400000
2339.964591	369.900000
2341.519532	332.300000
2343.074178	356.000000
2344.628531	365.200000
2346.182590	350.400000
2347.736356	362.300000
2349.288177	345.300000
2350.838055	361.200000
2352.390942	363.700000
2353.938585	349.300000
2355.489237	342.000000
2357.036297	381.400000
2358.584715	368.700000
2360.132842	363.500000
2361.677380	351.800000
2363.223276	348.500000
2364.767234	377.400000
2366.312548	360.900000
2367.854278	357.900000
2369.397366	359.700000
2370.938517	369.900000
2372.479379	372.700000
2374.019952	375.200000
2375.560236	355.600000
2377.100231	377.100000
2378.636647	372.000000
2380.176065	351.200000
2381.711906	357.400000
2383.249104	355.200000
2384.782726	374.500000
2386.319348	376.100000
2387.854040	363.900000
2389.386802	387.300000
2390.919277	366.800000
2392.449824	390.700000
2393.983369	402.600000
2395.511703	372.100000
2397.041393	380.900000
2398.570798	385.400000
2400.099918	379.800000
2401.628752	392.700000
2403.152382	391.400000
2404.680647	397.500000
2406.203710	387.700000
2407.731406	379.400000
2409.252263	368.400000
2410.777752	390.500000
2412.299682	370.100000
2413.822966	409.300000
2415.344330	392.200000
2416.863774	377.900000
2418.384573	382.600000
2419.903453	375.400000
2421.422052	388.400000
2422.938732	403.500000
2424.456768	396.000000
2425.974522	397.900000
2427.488724	401.800000
2429.002647	395.000000
2430.516289	410.700000
2432.031285	415.100000
2433.542734	406.200000
2435.055536	407.300000
2436.566426	410.300000
2438.077037	412.000000
2439.585736	409.700000
2441.097421	416.900000
2442.605563	422.600000
2444.113427	408.500000
2445.621012	407.000000
2447.125058	426.400000
2448.632088	422.000000
2450.137210	425.100000
2451.642055	430.400000
2453.144993	424.300000
2454.647655	429.800000
2456.150040	418.400000
2457.650520	433.100000
2459.152353	428.000000
2460.652281	460.600000
2462.151934	435.300000
2463.651312	447.900000
2465.148787	429.200000
2466.644360	444.700000
2468.142913	453.500000
2469.637938	417.700000
2471.134315	445.900000
2472.627166	427.100000
2474.121370	428.500000
2475.615300	435.700000
2477.105706	441.100000
2478.599090	423.600000
2480.090576	430.900000
2481.580165	452.400000
2483.069482	428.000000
2484.556903	413.500000
2486.047300	425.600000
2487.534179	437.400000
2489.022409	431.300000
2490.507122	437.500000
2491.991565	435.500000
2493.477360	419.500000
2494.961263	433.700000
2496.446516	413.600000
2497.926636	424.700000
2499.409729	423.300000
2500.890931	441.500000
2502.371864	448.400000
2503.850908	423.900000
2505.329683	431.900000
2506.808190	435.500000
2508.286428	416.500000
2509.764399	433.700000
2511.238864	439.600000
2512.716299	440.300000
2514.190229	448.800000
2515.665511	432.500000
2517.140525	422.300000
2518.612038	418.500000
2520.084902	430.300000
2521.555883	405.700000
2523.028214	434.600000
2524.495431	443.200000
2525.965615	407.300000
2527.433918	431.700000
2528.901956	424.800000
2530.369728	448.500000
2531.837236	439.100000
2533.304480	420.400000
2534.768231	433.800000
2536.233332	410.100000
2537.696556	436.100000
2539.161129	438.400000
2540.622214	418.700000
2542.084648	431.900000
2543.546819	446.200000
2545.005503	449.100000
2546.468760	425.800000
2547.926920	428.200000
2549.386430	426.300000
2550.840845	431.400000
2552.299831	443.100000
2553.756945	441.100000
2555.212187	443.400000
2556.667169	468.600000
2558.120281	437.700000
2559.574742	446.200000
2561.027334	453.500000
2562.479666	451.100000
2563.930130	432.300000
2565.383551	442.700000
2566.831889	455.400000
2568.283182	453.100000
2569.732610	451.600000
2571.178565	444.700000
2572.627475	435.300000
2574.072915	446.500000
2575.519702	462.100000
2576.964626	454.900000
2578.409293	450.200000
2579.855307	457.700000
2581.297855	446.500000
2582.741749	456.100000
2584.182179	432.400000
2585.623957	467.300000
2587.063875	461.500000
2588.505140	473.800000
2589.942943	443.900000
2591.383696	461.100000
2592.819387	448.800000
2594.258026	473.700000
2595.694809	464.200000
2597.129736	501.100000
2598.567610	472.600000
2600.000427	470.100000
2601.434591	462.800000
2602.866901	486.800000
2604.300557	473.900000
2605.732360	464.600000
2607.163909	470.300000
2608.595205	466.700000
2610.024650	490.400000
2611.453842	459.100000
2612.881183	470.100000
2614.309871	486.400000
2615.738306	489.200000
2617.163295	501.100000
2618.589629	472.300000
2620.014116	490.700000
2621.439948	479.300000
2622.862336	475.900000
2624.286069	478.500000
2625.707957	487.100000
2627.129594	494.200000
2628.549387	490.200000
2629.970525	479.600000
2631.391413	495.200000
2632.808862	478.200000
2634.229251	504.500000
2635.646203	492.100000
2637.062907	492.300000
2638.479362	486.200000
2639.895569	472.900000
2641.311528	472.100000
2642.725646	495.100000
2644.139516	488.500000
2645.551547	489.700000
2646.964923	469.200000
2648.374869	492.100000
2649.787751	471.200000
2651.197204	467.200000
2652.606411	472.100000
2654.013782	513.900000
2655.424087	485.500000
2656.832556	507.500000
2658.239191	482.400000
2659.645580	494.200000
2661.050135	493.000000
2662.456034	513.900000
2663.860100	515.900000
2665.263921	501.000000
2666.667498	477.600000
2668.069244	498.000000
2669.472333	502.600000
2670.872004	503.100000
2672.273019	493.100000
2673.670618	501.800000
2675.071146	498.700000
2676.468260	493.300000
2677.866717	508.200000
2679.263347	519.700000
2680.659734	499.800000
2682.055879	501.500000
2683.450198	484.500000
2684.845860	510.000000
2686.238113	507.400000
2687.631708	481.100000
2689.023479	491.200000
2690.416593	501.200000
2691.807883	502.800000
2693.197350	496.600000
2694.586577	489.600000
2695.975565	497.300000
2697.365894	514.000000
2698.751240	503.400000
2700.139509	501.300000
2701.525958	493.200000
2702.912168	494.400000
2704.298139	498.300000
2705.680712	489.300000
2707.064627	496.700000
2708.448303	482.900000
2709.831742	518.900000
2711.211785	505.800000
2712.593170	523.400000
2713.972740	506.700000
2715.353650	515.100000
2716.732746	528.200000
2718.110028	506.900000
2719.488651	504.100000
2720.865460	504.700000
2722.242034	505.400000
2723.618372	507.300000
2724.992898	526.100000
2726.368765	539.800000
2727.741246	518.700000
2729.116642	529.500000
2730.487078	534.300000
2731.858854	519.500000
2733.230397	504.300000
2734.600131	538.900000
2735.971205	532.200000
2737.340472	511.800000
2738.709505	531.900000
2740.076732	516.300000
2741.443725	532.200000
2742.810486	556.200000
2744.177014	505.500000
2745.541738	534.400000
2746.906229	532.100000
2748.270489	528.100000
2749.634516	532.700000
2750.998311	557.800000
2752.358734	532.600000
2753.722066	542.300000
2755.080456	536.900000
2756.441756	543.700000
2757.799686	535.900000
2759.160524	547.500000
2760.519562	532.800000
2761.875233	550.300000
2763.233811	562.100000
2764.589022	542.500000
2765.944004	526.000000
2767.297189	552.000000
2768.653281	526.500000
2770.006009	551.800000
2771.358509	544.900000
2772.710780	542.600000
2774.064389	555.900000
2775.414638	528.500000
2776.763092	556.200000
2778.114451	545.100000
2779.462452	544.200000
2780.811790	543.600000
2782.159336	542.800000
2783.506656	554.100000
2784.853748	580.200000
2786.199050	560.000000
2787.544126	572.700000
2788.888976	550.300000
2790.233600	548.600000
2791.574872	552.100000
2792.917481	545.700000
2794.259866	552.200000
2795.602025	556.000000
2796.940835	568.600000
2798.282545	581.500000
2799.620906	555.700000
2800.960605	563.800000
2802.298519	569.600000
2803.634647	540.600000
2804.970553	600.100000
2806.307796	544.900000
2807.643255	579.100000
2808.978490	583.200000
2810.311944	582.100000
2811.646734	580.000000
2812.978184	569.600000
2814.312529	575.900000
2815.641975	571.900000
2816.972759	584.500000
2818.303322	567.200000
2819.632105	581.700000
2820.962224	593.700000
2822.290565	582.300000
2823.618685	614.300000
2824.945027	596.000000
2826.272705	579.800000
2827.597051	602.600000
2828.922733	597.600000
2830.246639	599.500000
2831.570325	594.400000
2832.895347	584.200000
2834.217040	582.000000
2835.538514	596.000000
2836.859768	616.200000
2838.180805	612.800000
2839.500068	596.900000
2840.820667	613.000000
2842.139494	612.300000
2843.458104	602.500000
2844.774942	616.200000
2846.091563	611.400000
2847.407967	591.000000
2848.722601	589.500000
2850.038570	615.100000
2851.351220	611.800000
2852.665204	613.100000
2853.978972	590.600000
2855.292523	593.200000
2856.604308	604.600000
2857.914326	602.300000
2859.225679	606.400000
2860.533717	601.300000
2861.843089	611.300000
2863.152246	587.600000
2864.461189	597.700000
2865.768367	626.300000
2867.073783	615.700000
2868.380532	629.400000
2869.685520	608.500000
2870.990293	610.400000
2872.293306	631.100000
2873.599199	631.700000
2874.900238	622.400000
2876.202610	635.000000
2877.503224	618.200000
2878.805170	616.600000
2880.106904	609.900000
2881.405334	645.700000
2882.705097	630.400000
2884.003103	620.900000
2885.300897	628.200000
2886.596935	636.400000
2887.894305	628.100000
2889.189921	664.800000
2890.485325	631.700000
2891.780518	614.500000
2893.072414	616.100000
2894.367185	637.100000
2895.658661	632.200000
2896.951469	638.600000
2898.244067	611.100000
2899.533370	616.400000
2900.824007	604.800000
2902.112892	638.300000
2903.403109	629.900000
2904.690035	627.000000
2905.978293	621.600000
2907.264802	648.300000
2908.551102	648.200000
2909.837194	633.600000
2911.121538	635.100000
2912.408754	619.500000
2913.691143	638.800000
2914.974864	648.700000
2916.256838	634.300000
2917.538606	639.900000
2918.818628	635.800000
2920.101521	646.300000
2921.382667	630.600000
2922.660532	640.500000
2923.941266	647.600000
2925.218720	628.600000
2926.495967	658.500000
2927.771472	635.300000
2929.049845	626.100000
2930.323404	629.500000
2931.599830	633.000000
2932.874515	642.300000
2934.147459	639.000000
2935.421735	636.300000
2936.694271	651.700000
2937.966602	615.300000
2939.235661	629.300000
2940.507585	631.400000
2941.777771	618.300000
2943.047753	635.500000
2944.317532	644.700000
2945.585575	664.200000
2946.851881	652.400000
2948.117985	629.700000
2949.385420	654.400000
2950.651119	647.200000
2951.916617	627.800000
2953.181912	662.700000
2954.443942	639.900000
2955.707302	645.400000
2956.970461	661.600000
2958.231888	630.700000
2959.494644	629.600000
2960.755668	658.700000
2962.014962	657.600000
2963.274055	637.400000
2964.532949	636.700000
2965.791642	662.000000
2967.050134	650.300000
2968.306898	629.400000
2969.563463	653.300000
2970.818299	674.100000
2972.074465	635.000000
2973.327376	668.000000
2974.581615	646.000000
2975.835656	676.300000
2977.087971	658.500000
2978.340088	665.700000
2979.590480	656.200000
2980.843727	686.000000
2982.092197	664.800000
2983.343522	659.300000
2984.591597	677.600000
2985.839475	661.300000
2987.087157	648.300000
2988.334641	667.400000
2989.580404	664.000000
2990.825971	675.500000
2992.072865	676.300000
2993.316515	670.500000
2994.561492	667.600000
2995.803227	663.800000
2997.047813	653.400000
2998.290680	667.500000
2999.530306	659.900000
3000.772782	677.600000
3002.012018	672.200000
3003.252582	683.200000
3004.491429	686.200000
3005.730082	667.000000
3006.967019	681.600000
3008.205284	671.000000
3009.441833	701.400000
3010.678189	681.600000
3011.914351	678.900000
3013.148799	679.000000
3014.383054	688.500000
3015.617117	693.100000
3016.849466	677.600000
3018.080104	676.100000
3019.313588	680.400000
3020.545361	686.400000
3021.775422	683.800000
3023.005292	707.800000
3024.233452	677.200000
3025.462939	695.000000
3026.690716	694.600000
3027.918302	689.700000
3029.147214	680.000000
3030.371384	696.800000
3031.598397	687.100000
3032.822187	681.100000
3034.047302	690.500000
3035.270712	706.100000
3036.493931	695.900000
3037.715445	708.300000
3038.939800	671.600000
3040.159420	718.100000
3041.380366	698.600000
3042.601122	682.500000
3043.820176	710.300000
3045.040554	709.700000
3046.257716	717.800000
3047.476203	733.100000
3048.692989	704.800000
3049.909586	715.300000
3051.125996	720.500000
3052.339192	726.100000
3053.555226	715.300000
3054.768048	696.600000
3055.983707	699.100000
3057.194644	711.900000
3058.406905	695.500000
3059.618979	728.000000
3060.830867	704.600000
3062.041058	703.100000
3063.251062	731.300000
3064.460880	726.700000
3065.669002	718.000000
3066.876939	717.900000
3068.083180	726.000000
3069.290746	714.800000
3070.496617	707.000000
3071.702303	699.200000
3072.907805	711.600000
3074.111613	733.700000
3075.316745	719.400000
3076.520184	731.200000
3077.721932	733.100000
3078.923495	717.200000
3080.124875	733.900000
3081.326071	704.800000
3082.525577	705.900000
3083.724900	730.300000
3084.925546	708.600000
3086.124502	717.600000
3087.320264	742.200000
3088.518854	727.100000
3089.714251	742.200000
3090.910972	721.200000
3092.104500	725.400000
3093.300856	726.500000
3094.495525	745.800000
3095.687004	729.900000
3096.882815	737.300000
3098.073931	706.700000
3099.266371	733.300000
3100.455622	701.500000
3101.647700	745.500000
3102.838094	720.900000
3104.025302	731.300000
3105.213832	742.900000
3106.403685	723.800000
3107.590353	724.000000
3108.776842	733.600000
3109.963152	718.300000
3111.150783	723.100000
3112.335232	746.600000
3113.518002	737.200000
3114.703594	735.800000
3115.887507	721.500000
3117.069740	721.100000
3118.251796	733.400000
3119.433673	738.200000
3120.615372	753.700000
3121.795394	735.600000
3122.973739	721.500000
3124.154904	714.400000
3125.332894	742.900000
3126.510707	744.500000
3127.688343	735.500000
3128.864304	737.900000
3130.040089	733.100000
3131.217194	754.700000
3132.392626	717.600000
3133.566384	736.600000
3134.738469	747.600000
3135.911876	739.200000
3137.085106	761.000000
3138.256665	742.100000
3139.429544	750.200000
3140.599256	727.800000
3141.770289	739.000000
3142.939651	773.200000
3144.107344	718.700000
3145.277852	754.000000
3146.443702	726.500000
3147.613860	743.900000
3148.779361	743.200000
3149.944689	739.800000
3151.109843	745.000000
3152.274824	736.700000
3153.441124	760.600000
3154.602771	740.700000
3155.765739	767.300000
3156.928534	728.700000
3158.091156	741.000000
3159.252112	731.600000
3160.412897	723.000000
3161.573509	738.300000
3162.732457	742.500000
3163.891234	718.200000
3165.049838	720.700000
3166.208271	746.300000
3167.366533	739.600000
3168.523132	753.500000
3169.678070	734.000000
3170.834327	736.300000
3171.988923	711.200000
3173.143349	743.300000
3174.296115	730.100000
3175.448710	717.600000
3176.601136	736.200000
3177.753391	752.600000
3178.905477	734.100000
3180.054416	739.600000
3181.206162	723.500000
3182.356251	718.200000
3183.504683	739.600000
3184.652945	744.400000
3185.801039	772.000000
3186.948964	744.600000
3188.095233	757.200000
3189.241334	780.300000
3190.385781	739.500000
3191.530060	777.100000
3192.674170	775.700000
3193.819599	752.100000
3194.961889	772.400000
3196.104012	769.400000
3197.245967	754.200000
3198.387755	754.000000
3199.529376	783.500000
3200.667862	769.100000
3201.807665	758.600000
3202.948785	783.200000
3204.086772	768.400000
3205.223108	761.500000
3206.359280	756.800000
3207.496768	760.600000
3208.632608	801.900000
3209.769765	779.000000
3210.902309	763.300000
3212.039134	792.700000
3213.171349	767.100000
3214.304880	763.000000
3215.438246	759.600000
3216.568486	761.000000
3217.701523	752.100000
3218.831434	764.900000
3219.962661	750.200000
3221.090764	755.600000
3222.221663	744.800000
3223.350918	749.300000
3224.478530	754.600000
3225.603019	774.400000
3226.731784	781.100000
3227.857427	771.200000
3228.982907	766.400000
3230.106746	779.200000
3231.233380	738.700000
3232.355416	788.700000
3233.478768	762.300000
3234.601958	773.100000
3235.724985	757.200000
3236.846374	767.100000
3237.967600	754.400000
3239.087188	756.800000
3240.206615	756.200000
3241.324405	782.200000
3242.444986	731.400000
3243.562454	781.200000
3244.679761	787.100000
3245.796908	790.600000
3246.912418	801.000000
3248.029244	806.000000
3249.142960	758.700000
3250.259465	799.500000
3251.374335	781.700000
3252.486097	783.900000
3253.597700	794.700000
3254.710618	795.400000
3255.823376	784.200000
3256.933028	790.000000
3258.043995	781.800000
3259.154803	797.500000
3260.263979	797.600000
3261.371524	802.500000
3262.480384	788.400000
3263.589085	805.700000
3264.694684	771.400000
3265.801598	788.300000
3266.906882	795.300000
3268.013480	810.700000
3269.116978	795.600000
3270.221790	801.900000
3271.326445	797.700000
3272.428002	800.000000
3273.529402	803.400000
3274.632116	800.800000
3275.734674	799.800000
3276.834135	828.500000
3277.936380	810.300000
3279.035529	829.400000
3280.133053	800.200000
3281.230423	805.400000
3282.330574	776.500000
3283.427633	805.200000
3284.524536	816.100000
3285.621284	795.000000
3286.713473	796.200000
3287.809912	797.400000
3288.904728	797.000000
3289.999390	813.200000
3291.092429	805.700000
3292.185315	831.200000
3293.276580	811.800000
3294.369158	835.900000
3295.460116	822.100000
3296.549454	803.700000
3297.638639	809.000000
3298.729136	805.400000
3299.816550	798.100000
3300.903810	793.600000
3301.992383	800.600000
3303.080803	815.700000
3304.164677	802.200000
3305.252792	835.800000
3306.337825	792.200000
3307.421243	800.100000
3308.505973	808.600000
3309.589087	819.000000
3310.673514	803.900000
3311.754862	815.600000
3312.837522	836.500000
3313.918567	815.100000
3314.999462	830.600000
3316.078744	816.900000
3317.157875	820.500000
3318.238318	812.500000
3319.315686	827.600000
3320.394366	830.200000
3321.471434	820.000000
3322.548352	829.000000
3323.623660	823.700000
3324.698818	821.900000
3325.775287	829.500000
3326.848686	834.100000
3327.921935	827.700000
3328.996496	822.900000
3330.069448	832.400000
3331.140791	841.800000
3332.213445	828.100000
3333.283032	802.300000
3334.353931	820.700000
3335.423222	827.900000
3336.493823	811.400000
3337.562819	820.300000
3338.630208	852.500000
3339.695992	820.700000
3340.766002	812.100000
3341.832949	812.600000
3342.896834	823.600000
3343.963486	791.600000
3345.028535	801.600000
3346.091980	819.500000
3347.155279	806.800000
3348.218431	820.200000
3349.281437	794.400000
3350.344297	842.300000
3351.405554	835.900000
3352.463755	795.700000
3353.526177	815.600000
3354.585543	802.400000
3355.644763	818.700000
3356.705292	825.600000
3357.761313	806.400000
3358.820097	854.900000
3359.874374	832.000000
3360.931415	803.500000
3361.986857	815.100000
3363.043609	829.800000
3364.098762	836.900000
3365.152318	850.800000
3366.204277	812.400000
3367.258999	824.800000
3368.310671	829.100000
3369.362200	813.400000
3370.415037	846.700000
3371.464827	848.700000
3372.515926	836.200000
3373.563978	830.600000
3374.614791	835.200000
3375.662558	866.800000
3376.710183	838.000000
3377.757666	854.400000
3378.803556	850.900000
3379.850754	829.500000
3380.894910	851.300000
3381.941824	835.300000
3382.987146	828.300000
3384.029427	812.200000
3385.071567	840.300000
3386.115016	855.700000
3387.158323	841.100000
3388.200040	826.000000
3389.241617	834.900000
3390.283052	865.000000
3391.322899	833.200000
3392.361157	828.500000
3393.400723	848.800000
3394.440149	835.100000
3395.477987	818.500000
3396.514238	844.400000
3397.550350	864.000000
3398.587768	841.300000
3399.622154	860.300000
3400.657848	855.900000
3401.693402	863.000000
3402.725925	855.600000
3403.761200	850.200000
3404.793446	832.700000
3405.825553	839.100000
3406.856076	886.000000
3407.887906	859.500000
3408.919598	845.100000
3409.948262	834.600000
3410.976789	855.400000
3412.006622	858.700000
3413.036318	857.200000
3414.062988	837.700000
3415.090964	888.100000
3416.115917	849.900000
3417.143619	858.200000
3418.168297	859.100000
3419.194282	855.700000
3420.218688	837.200000
3421.242957	830.700000
3422.265647	839.800000
3423.288201	842.200000
3424.312061	838.400000
3425.332901	844.000000
3426.353605	849.600000
3427.375615	860.600000
3428.394607	839.200000
3429.413464	841.500000
3430.433627	865.100000
3431.450773	842.700000
