-117.805840	18.500000
-115.136240	-1.400000
-112.469575	9.300000
-109.803662	18.900000
-107.140682	17.200000
-104.476271	15.300000
-101.814791	3.800000
-99.151882	14.400000
-96.494079	8.900000
-93.834847	7.900000
-91.176363	-1.400000
-88.520804	14.000000
-85.863815	11.000000
-83.211925	21.600000
-80.558605	11.800000
-77.908204	10.800000
-75.256375	14.200000
-72.609636	6.500000
-69.961467	2.200000
-67.314041	8.500000
-64.669530	16.600000
-62.023589	22.100000
-59.382730	-0.700000
-56.740442	21.900000
-54.101063	-10.500000
-51.460255	13.400000
-48.820186	10.200000
-46.185191	29.600000
-43.548766	9.900000
-40.915244	29.600000
-38.280294	40.000000
-35.650410	28.700000
-33.016932	14.600000
-30.388517	26.500000
-27.760836	39.100000
-25.131726	72.000000
-22.507674	54.800000
-19.880031	78.400000
-17.257443	90.800000
-14.635585	165.900000
-12.014458	270.400000
-9.394062	690.100000
-6.776553	2481.300000
-4.157616	8817.300000
-1.541565	19653.000000
1.073759	28907.100000
3.688354	14411.800000
6.300068	1530.900000
8.913210	214.700000
11.521318	109.300000
14.133007	64.100000
16.739666	70.000000
19.347754	40.800000
21.955116	62.200000
24.557454	39.800000
27.163371	30.700000
29.764265	26.600000
32.366587	34.800000
34.963891	18.700000
37.564772	25.100000
40.160637	24.800000
42.757930	16.700000
45.354505	19.000000
47.946070	3.500000
50.539063	3.200000
53.129195	12.500000
55.720754	-8.700000
58.309455	19.200000
60.899582	18.900000
63.484710	21.500000
66.071266	24.800000
68.657108	20.700000
71.240095	3.600000
73.824510	19.900000
76.401796	17.300000
78.982648	8.300000
81.560651	37.200000
84.137943	41.500000
86.716663	11.200000
89.290400	-7.200000
91.865564	8.400000
94.437885	10.700000
97.009499	1.800000
99.578272	4.000000
102.148472	17.100000
104.715833	-2.300000
107.284621	12.100000
109.850572	16.500000
112.413688	10.800000
114.980360	19.400000
117.537810	14.000000
120.100946	32.000000
122.659123	14.400000
125.220854	27.600000
127.777628	51.100000
130.335828	75.700000
132.889076	104.400000
135.441626	132.100000
137.997726	205.700000
140.548878	254.400000
143.099333	275.300000
145.649090	316.400000
148.196028	333.900000
150.742271	326.300000
153.289939	359.200000
155.836911	358.000000
158.378948	341.200000
160.920291	334.700000
163.460941	350.900000
166.003017	325.200000
168.542281	326.500000
171.078736	346.700000
173.614501	331.900000
176.151691	315.800000
178.688190	349.200000
181.221883	313.000000
183.752772	312.300000
186.282973	316.700000
188.814600	311.200000
191.343425	324.800000
193.869451	345.000000
196.394791	314.200000
198.921556	311.400000
201.445525	312.100000
203.968809	303.300000
206.491407	328.200000
209.011213	323.000000
211.530336	322.500000
214.048777	300.500000
216.568641	334.500000
219.081503	336.900000
221.597897	336.600000
224.113610	318.200000
226.624432	335.200000
229.136679	330.900000
231.646143	351.300000
234.154929	331.700000
236.663037	333.900000
239.172569	342.900000
241.677220	375.100000
244.181195	333.600000
246.686594	350.100000
249.187118	360.500000
251.691165	344.800000
254.188242	335.000000
256.688842	371.900000
259.186670	348.900000
261.683825	362.200000
264.180307	368.900000
266.671926	355.200000
269.167065	359.100000
271.659437	362.900000
274.151139	362.200000
276.640078	369.900000
279.130440	368.900000
281.618041	378.500000
284.102882	371.700000
286.591238	369.700000
289.072654	386.700000
291.557584	369.200000
294.037669	377.800000
296.521266	388.000000
299.000020	372.100000
301.480197	376.200000
303.957623	371.200000
306.434385	407.600000
308.910483	409.700000
311.383833	410.000000
313.856522	445.900000
316.328549	462.200000
318.799914	490.000000
321.268536	575.700000
323.736498	524.100000
326.205883	495.600000
328.670445	445.400000
331.138511	454.200000
333.601756	433.000000
336.064345	443.700000
338.526277	407.400000
340.987552	434.600000
343.446092	426.800000
345.906056	422.100000
348.363286	415.900000
350.819862	413.100000
353.275784	422.700000
355.728976	436.200000
358.183591	409.200000
360.633404	400.900000
363.086713	419.900000
365.535223	444.200000
367.983083	417.900000
370.432365	438.700000
372.876852	435.800000
375.322763	431.000000
377.768023	440.300000
380.210565	456.600000
382.652459	417.100000
385.093705	432.300000
387.532237	419.400000
389.972189	416.900000
392.409428	412.600000
394.843956	410.000000
397.281970	417.700000
399.715209	414.900000
402.149868	400.300000
404.579755	438.900000
407.013127	415.000000
409.441729	416.700000
411.869689	423.100000
414.299071	419.200000
416.723687	436.900000
419.149725	424.800000
421.575122	432.600000
423.999879	417.000000
426.419877	413.000000
428.841297	427.100000
431.260021	428.000000
433.680165	426.800000
436.097614	430.500000
438.516483	423.000000
440.932658	421.000000
443.344087	427.800000
445.758992	440.100000
448.171208	453.400000
450.582789	440.800000
452.993736	439.500000
455.401996	437.900000
457.809625	416.800000
460.216621	444.500000
462.622986	440.800000
465.026668	430.200000
467.429720	412.400000
469.832142	403.400000
472.233934	388.900000
474.633048	402.200000
477.033582	400.100000
479.433487	397.400000
481.828670	403.100000
484.227319	407.600000
486.621247	397.000000
489.014550	393.600000
491.407228	422.400000
493.799280	394.200000
496.192750	379.700000
498.581508	366.900000
500.967600	343.200000
503.355112	323.200000
505.742001	312.400000
508.126225	308.900000
510.511869	298.600000
512.894851	282.600000
515.275172	262.100000
517.656912	266.600000
520.035993	267.900000
522.416492	242.800000
524.794335	263.300000
527.169521	238.200000
529.544091	235.100000
531.920078	222.100000
534.293413	250.900000
536.668165	231.300000
539.038231	223.000000
541.407683	221.900000
543.778552	227.600000
546.144740	217.400000
548.512347	231.500000
550.877308	198.900000
553.241657	218.800000
555.605392	208.700000
557.970545	202.900000
560.331026	208.900000
562.692925	203.600000
565.052183	201.200000
567.408803	207.000000
569.768869	207.000000
572.122243	225.300000
574.479062	204.300000
576.833246	211.300000
579.186821	181.500000
581.539789	204.100000
583.890124	176.800000
586.241877	200.300000
588.586953	183.000000
590.937492	195.900000
593.281359	201.000000
595.630687	205.300000
597.975366	197.000000
600.317421	209.000000
602.660893	200.300000
605.001742	218.400000
607.341988	213.400000
609.679614	196.400000
612.020675	191.300000
614.357099	204.100000
616.694939	183.100000
619.030162	188.300000
621.362768	189.400000
623.696792	181.500000
626.028201	179.900000
628.359012	192.900000
630.689225	187.800000
633.018841	187.400000
635.343833	184.900000
637.674267	159.000000
640.000080	196.100000
642.323285	196.100000
644.647907	156.500000
646.969923	177.100000
649.291345	172.300000
651.610164	203.000000
653.930400	160.400000
656.250042	170.400000
658.567083	161.800000
660.883532	162.100000
663.197383	160.900000
665.512650	168.700000
667.825320	161.300000
670.139405	157.200000
672.448890	162.500000
674.759791	180.600000
677.068099	162.400000
679.375819	166.900000
681.684953	145.300000
683.989495	156.900000
686.293451	169.800000
688.596821	160.800000
690.901605	152.700000
693.201802	140.800000
695.503415	166.100000
697.804442	160.000000
700.100888	141.600000
702.398749	164.900000
704.696026	154.500000
706.992720	157.500000
709.284838	160.800000
711.580367	148.500000
713.871322	155.300000
716.163692	157.500000
718.453487	153.000000
720.742701	157.500000
723.031336	152.600000
725.317398	166.300000
727.604875	150.800000
729.889780	164.400000
732.174108	159.300000
734.455867	158.500000
736.739040	159.100000
739.021636	163.500000
741.299676	145.000000
743.579130	180.000000
745.858009	153.900000
748.136313	171.300000
750.410066	153.200000
752.685234	167.400000
754.959828	167.500000
757.231863	169.500000
759.505311	164.900000
761.776201	173.200000
764.044535	166.600000
766.314282	166.100000
768.581474	164.900000
770.848097	177.200000
773.114149	166.500000
775.377650	198.100000
777.642564	181.100000
779.906908	183.400000
782.166723	170.600000
784.427950	190.100000
786.688610	189.700000
788.946724	189.600000
791.202293	179.300000
793.461252	163.700000
795.713713	179.800000
797.971541	195.500000
800.224850	158.000000
802.475619	186.300000
804.727800	156.800000
806.977442	177.100000
809.228496	167.500000
811.475040	174.100000
813.722995	139.700000
815.968416	162.000000
818.215248	181.500000
820.461519	155.600000
822.703285	159.200000
824.948435	170.600000
827.187112	161.500000
829.429171	146.500000
831.666732	150.900000
833.905705	170.800000
836.142151	150.500000
838.380008	164.400000
840.615340	162.400000
842.848149	162.200000
845.082368	145.800000
847.314066	164.000000
849.545209	162.900000
851.775797	143.500000
854.005831	152.300000
856.235311	147.300000
858.460309	144.600000
860.688681	165.500000
862.912575	153.000000
865.137880	161.500000
867.358709	151.800000
869.582910	154.500000
871.802638	154.600000
874.023776	138.300000
876.244364	155.100000
878.462443	171.100000
880.681931	151.100000
882.896953	185.900000
885.111427	156.200000
887.325354	150.300000
889.538734	163.000000
891.751566	156.300000
893.963851	148.600000
896.173635	135.400000
898.382873	144.300000
900.591566	169.300000
902.797759	148.500000
905.005362	140.000000
907.210468	145.500000
909.415030	145.600000
911.617097	152.500000
913.820573	144.100000
916.021555	149.900000
918.221995	157.500000
920.423844	137.900000
922.619302	153.700000
924.818118	145.400000
927.012497	156.700000
929.210233	152.200000
931.403533	155.000000
933.598242	166.100000
935.790464	158.000000
937.982149	146.500000
940.173296	174.500000
942.361960	153.900000
944.550088	167.400000
946.735734	172.200000
948.924734	164.500000
951.109310	157.100000
953.293351	159.100000
955.480742	175.800000
957.659829	150.300000
959.842267	168.500000
962.024171	173.200000
964.203600	169.500000
966.380557	193.400000
968.558922	180.600000
970.738694	190.600000
972.912117	184.300000
975.088886	197.400000
977.261248	194.300000
979.435018	208.800000
981.604384	198.000000
983.777094	191.400000
985.947339	215.700000
988.117054	188.000000
990.286241	207.900000
992.451031	207.500000
994.619163	196.100000
996.782899	208.600000
998.948043	229.300000
1001.110727	222.500000
1003.272886	205.500000
1005.432588	212.600000
1007.591765	211.400000
1009.752349	213.400000
1011.910478	223.600000
1014.068084	225.500000
1016.225166	231.400000
1018.381724	232.700000
1020.533903	211.500000
1022.687489	239.000000
1024.840553	228.700000
1026.991168	221.700000
1029.143189	225.200000
1031.290838	260.500000
1033.441818	224.500000
1035.588427	240.600000
1037.734517	254.700000
1039.880089	261.800000
1042.027066	226.100000
1044.167754	267.100000
1046.311771	232.800000
1048.453349	251.400000
1050.594409	248.300000
1052.736875	272.700000
1054.873060	227.100000
1057.012572	236.500000
1059.147728	263.200000
1061.286209	236.300000
1063.420337	259.000000
1065.553951	252.100000
1067.688969	244.000000
1069.819639	264.400000
1071.951713	241.200000
1074.081358	254.200000
1076.210490	220.800000
1078.339112	244.600000
1080.467222	237.800000
1082.592906	233.800000
1084.718080	223.400000
1086.844658	223.700000
1088.966898	233.900000
1091.090543	234.600000
1093.209853	214.400000
1095.334392	207.900000
1097.452687	210.000000
1099.572385	230.900000
1101.689666	203.500000
1103.806439	208.400000
1105.922706	205.700000
1108.036558	216.400000
1110.151813	206.700000
1112.262746	205.300000
1114.376991	206.900000
1116.486915	193.800000
1118.598243	182.300000
1120.709066	200.000000
1122.815573	179.200000
1124.925389	179.800000
1127.030892	176.200000
1129.137797	180.200000
1131.238487	178.200000
1133.344389	180.300000
1135.445982	169.700000
1137.548978	191.000000
1139.651473	187.100000
1141.747761	178.200000
1143.849256	164.000000
1145.946449	167.100000
1148.043144	179.400000
1150.139340	185.400000
1152.235038	188.000000
1154.330239	169.700000
1156.423043	175.100000
1158.517249	173.400000
1160.605264	165.900000
1162.698478	197.100000
1164.785503	170.400000
1166.875827	158.900000
1168.961863	166.200000
1171.051197	185.500000
1173.134350	164.400000
1175.218906	165.400000
1177.304863	154.200000
1179.386538	172.300000
1181.469614	172.300000
1183.550305	170.000000
1185.630505	164.200000
1187.710213	175.500000
1189.789430	171.800000
1191.866264	155.000000
1193.940718	163.400000
1196.018464	164.600000
1198.091939	152.100000
1200.166816	163.100000
1202.237425	163.900000
1204.309435	172.600000
1206.379069	164.000000
1208.450104	146.200000
1210.520652	158.800000
1212.586938	179.600000
1214.654625	141.500000
1216.719939	170.300000
1218.786654	147.700000
1220.849114	155.200000
1222.914858	170.900000
1224.976348	157.300000
1227.039239	158.700000
1229.099761	163.600000
1231.159801	135.300000
1233.219357	149.000000
1235.276549	157.800000
1237.333258	135.200000
1239.387605	141.700000
1241.445233	142.800000
1243.500497	151.700000
1245.551522	146.300000
1247.603946	149.100000
1249.655890	157.300000
1251.705476	146.300000
1253.754583	152.100000
1255.803211	146.400000
1257.851361	162.000000
1259.899033	132.500000
1261.942474	143.100000
1263.989191	140.100000
1266.033554	151.500000
1268.077441	146.400000
1270.118976	148.800000
1272.158162	135.300000
1274.200621	138.700000
1276.238857	141.800000
1278.278492	141.900000
1280.317651	125.200000
1282.352593	151.100000
1284.388933	151.300000
1286.422929	156.600000
1288.458322	119.100000
1290.489502	140.600000
1292.522081	121.900000
1294.554188	156.000000
1296.583954	148.800000
1298.615117	146.000000
1300.642073	128.900000
1302.670428	140.900000
1304.694577	132.800000
1306.721992	142.500000
1308.745204	139.900000
1310.769814	134.800000
1312.792089	135.100000
1314.815762	133.500000
1316.837102	129.200000
1318.857975	134.500000
1320.878380	115.800000
1322.894592	151.800000
1324.912201	141.100000
1326.927482	138.300000
1328.946022	138.400000
1330.960372	138.600000
1332.972397	136.200000
1334.987680	155.700000
1336.998777	127.500000
1339.011270	123.900000
1341.019581	135.400000
1343.031148	121.700000
1345.036676	105.100000
1347.045459	135.300000
1349.050064	126.800000
1351.057923	150.400000
1353.065320	123.400000
1355.066686	143.200000
1357.069448	118.600000
1359.071751	131.800000
1361.073594	126.400000
1363.074977	143.400000
1365.074046	130.700000
1367.072658	144.600000
1369.070810	132.400000
1371.068505	131.100000
1373.062037	131.800000
1375.056964	144.700000
1377.051435	129.500000
1379.045449	148.900000
1381.037156	140.100000
1383.028407	139.700000
1385.017353	130.500000
1387.007694	142.400000
1388.997581	140.800000
1390.985163	140.700000
1392.972292	149.700000
1394.957119	134.700000
1396.943341	114.100000
1398.927262	151.000000
1400.910731	150.600000
1402.893748	145.000000
1404.874467	138.200000
1406.856580	134.200000
1408.836396	122.100000
1410.815762	146.000000
1412.790989	132.200000
1414.769454	133.800000
1416.745626	156.600000
1418.721348	139.500000
1420.696622	141.200000
1422.669604	138.300000
1424.642138	138.200000
1426.614224	164.800000
1428.585863	129.200000
1430.553373	129.500000
1432.525957	138.500000
1434.490735	140.800000
1436.460586	129.300000
1438.426312	135.700000
1440.393432	137.400000
1442.358268	150.100000
1444.318984	126.300000
1446.284768	126.300000
1448.244597	135.200000
1450.205820	150.800000
1452.168434	143.700000
1454.126934	147.400000
1456.084992	138.600000
1458.042608	145.300000
1459.999781	124.000000
1461.954679	161.900000
1463.910970	135.200000
1465.864986	149.500000
1467.818561	151.500000
1469.769864	151.600000
1471.722559	141.900000
1473.672983	156.700000
1475.622968	143.700000
1477.572514	148.200000
1479.519791	142.800000
1481.464800	173.200000
1483.411202	142.200000
1485.357166	151.200000
1487.302693	137.800000
1489.245954	161.100000
1491.188779	151.500000
1493.129341	145.500000
1495.071295	154.000000
1497.010986	166.000000
1498.950242	174.000000
1500.889064	154.000000
1502.825626	142.200000
1504.763579	167.700000
1506.699273	142.900000
1508.634534	167.500000
1510.567538	165.400000
1512.500110	157.000000
1514.432250	180.000000
1516.363958	154.600000
1518.293413	165.300000
1520.224258	158.700000
1522.154671	167.500000
1524.081012	158.300000
1526.008743	143.600000
1527.934225	149.600000
1529.859277	158.200000
1531.783900	170.100000
1533.708093	163.300000
1535.630040	170.900000
1537.553377	161.700000
1539.474467	196.500000
1541.393313	170.900000
1543.313549	185.200000
1545.231541	205.600000
1547.149107	192.700000
1549.064432	205.700000
1550.981146	219.500000
1552.893805	240.700000
1554.809667	267.700000
1556.723291	274.100000
1558.634676	285.200000
1560.547451	292.300000
1562.456176	335.100000
1564.366290	377.100000
1566.275981	429.000000
1568.185249	497.700000
1570.092282	610.100000
1571.997083	740.100000
1573.903273	887.900000
1575.807232	1113.300000
1577.710769	1279.900000
1579.613886	1367.200000
1581.514773	1324.600000
1583.417049	1204.000000
1585.317096	987.500000
1587.218532	786.100000
1589.115934	637.200000
1591.012917	523.700000
1592.909482	444.900000
1594.807434	370.000000
1596.699552	333.200000
1598.594864	300.000000
1600.489758	270.900000
1602.382430	241.800000
1604.274685	241.600000
1606.164721	200.500000
1608.054341	206.900000
1609.943546	200.000000
1611.832335	183.800000
1613.718908	192.700000
1615.606868	191.000000
1617.490811	180.800000
1619.376141	195.800000
1621.261058	177.100000
1623.143761	189.500000
1625.027851	165.700000
1626.907929	177.300000
1628.789395	143.100000
1630.668649	146.600000
1632.549291	145.800000
1634.424128	155.200000
1636.303946	169.000000
1638.179760	169.300000
1640.055163	144.300000
1641.931952	159.900000
1643.802944	159.600000
1645.677119	151.000000
1647.547294	138.000000
1649.420650	175.100000
1651.291803	146.600000
1653.160754	152.900000
1655.031091	147.400000
1656.897435	125.000000
1658.765164	156.200000
1660.630694	157.900000
1662.497610	141.900000
1664.360536	129.500000
1666.224849	151.100000
1668.086965	166.800000
1669.948676	153.400000
1671.811772	152.500000
1673.672674	133.700000
1675.531383	147.300000
1677.389688	135.400000
1679.249377	141.300000
1681.103300	156.700000
1682.960396	144.500000
1684.817088	143.300000
1686.669805	146.300000
1688.525693	130.700000
1690.377607	147.100000
1692.229120	141.400000
1694.080232	151.900000
1695.930943	148.500000
1697.781254	146.200000
1699.629381	157.100000
1701.478892	151.500000
1703.322653	143.900000
1705.171365	160.100000
1707.014330	156.200000
1708.860461	136.500000
1710.702631	147.300000
1712.547966	136.200000
1714.387560	132.100000
1716.228538	144.300000
1718.070899	144.300000
1719.909303	148.200000
1721.749091	130.200000
1723.586704	144.100000
1725.423922	127.000000
1727.258966	138.800000
1729.095393	130.000000
1730.929647	150.200000
1732.763508	158.900000
1734.596974	138.200000
1736.426494	151.400000
1738.259174	144.800000
1740.087908	129.800000
1741.919801	153.000000
1743.747751	139.500000
1745.575309	139.400000
1747.402476	129.700000
1749.229251	136.400000
1751.055634	127.800000
1752.878081	152.200000
1754.703683	148.400000
1756.525350	151.200000
1758.348398	136.100000
1760.169286	157.300000
1761.989785	109.500000
1763.811664	142.000000
1765.627844	142.000000
1767.447176	126.000000
1769.262581	139.700000
1771.081137	152.400000
1772.895767	141.100000
1774.710010	148.600000
1776.523867	145.800000
1778.337337	135.500000
1780.148653	150.000000
1781.961351	144.000000
1783.773663	132.300000
1785.582056	142.000000
1787.391831	148.700000
1789.197691	127.300000
1791.006696	152.400000
1792.811788	143.300000
1794.618261	112.800000
1796.424349	147.800000
1798.226528	127.300000
1800.031851	141.900000
1801.833264	149.900000
1803.636059	135.900000
1805.434947	126.100000
1807.235216	133.900000
1809.035103	117.100000
1810.832848	145.800000
1812.630213	124.500000
1814.427197	129.500000
1816.223802	128.000000
1818.018266	136.600000
1819.814111	144.000000
1821.604300	126.000000
1823.399386	128.600000
1825.188819	136.800000
1826.981390	137.500000
1828.771825	137.200000
1830.560125	138.600000
1832.351561	144.800000
1834.137352	142.700000
1835.924522	133.800000
1837.709560	129.400000
1839.497731	146.500000
1841.282018	142.700000
1843.064174	137.200000
1844.847710	114.600000
1846.629117	148.800000
1848.411902	147.000000
1850.190808	143.900000
1851.971092	128.800000
1853.749251	138.400000
1855.528787	120.200000
1857.306199	135.300000
1859.081488	129.100000
1860.858154	126.000000
1862.632698	135.200000
1864.408619	143.800000
1866.178921	130.100000
1867.952350	140.000000
1869.723659	133.200000
1871.494597	133.500000
1873.266913	140.700000
1875.033615	146.000000
1876.803442	131.000000
1878.569406	137.200000
1880.338494	119.700000
1882.103720	158.000000
1883.868578	123.300000
1885.634812	135.100000
1887.397189	146.800000
1889.159197	144.900000
1890.920839	130.600000
1892.682113	152.800000
1894.443021	139.500000
1896.203561	155.900000
1897.961993	132.100000
1899.720058	149.600000
1901.476016	131.500000
1903.233350	152.700000
1904.990319	126.700000
1906.745181	141.800000
1908.497939	131.600000
1910.250332	140.400000
1912.004102	124.900000
1913.755768	144.400000
1915.505331	127.300000
1917.256271	130.500000
1919.006847	130.300000
1920.753585	137.200000
1922.501698	137.100000
1924.247713	141.000000
1925.995102	148.600000
1927.740393	131.200000
1929.483588	143.100000
1931.228157	144.800000
1932.970630	135.400000
1934.712744	143.500000
1936.454497	138.900000
1938.195890	145.100000
1939.935190	142.400000
1941.674131	121.800000
1943.412713	138.500000
1945.149204	137.700000
1946.885336	144.600000
1948.622844	151.500000
1950.356529	127.300000
1952.091589	124.400000
1953.824560	137.700000
1955.557175	155.200000
1957.289433	133.900000
1959.021335	152.500000
1960.751152	126.800000
1962.478883	142.500000
1964.207989	130.800000
1965.936739	143.300000
1967.663407	135.500000
1969.389719	128.600000
1971.117406	139.800000
1972.839556	144.800000
1974.564807	154.300000
1976.286251	154.300000
1978.010795	131.900000
1979.733260	138.900000
1981.451921	147.600000
1983.173682	160.500000
1984.891640	144.300000
1986.610971	152.800000
1988.326503	148.800000
1990.046855	139.300000
1991.763409	139.600000
1993.476166	150.100000
1995.192019	147.700000
1996.905800	153.400000
1998.619231	123.800000
2000.330591	148.000000
2002.043323	147.500000
2003.752265	141.900000
2005.464299	150.200000
2007.170824	156.800000
2008.880442	122.500000
2010.587992	143.900000
2012.295195	133.700000
2014.000332	157.100000
2015.705123	118.500000
2017.411285	152.000000
2019.113664	139.500000
2020.817416	158.400000
2022.519105	129.400000
2024.220448	162.000000
2025.921447	149.700000
2027.620384	128.200000
2029.320693	135.000000
2031.017226	152.300000
2032.715131	148.200000
2034.410978	134.200000
2036.109910	129.500000
2037.803356	152.300000
2039.498173	139.500000
2041.192647	145.900000
2042.883354	128.400000
2044.577143	166.700000
2046.267167	141.000000
2047.958561	136.700000
2049.647901	142.500000
2051.338613	143.200000
2053.025561	133.800000
2054.712169	149.500000
2056.400148	115.000000
2058.084367	136.900000
2059.769956	142.800000
2061.455206	132.300000
2063.138408	132.300000
2064.822980	156.800000
2066.502088	123.400000
2068.185983	149.800000
2069.864416	140.000000
2071.545927	138.400000
2073.223686	127.000000
2074.901109	121.100000
2076.579901	134.900000
2078.256650	139.400000
2079.931358	138.500000
2081.607436	128.000000
2083.281472	146.500000
2084.955174	140.100000
2086.628540	133.400000
2088.299867	149.200000
2089.970860	125.900000
2091.641519	136.600000
2093.311844	133.600000
2094.981835	139.900000
2096.649790	149.700000
2098.317411	137.300000
2099.982999	139.400000
2101.649955	151.600000
2103.314878	144.100000
2104.979469	136.900000
2106.642028	136.400000
2108.305955	134.600000
2109.967851	143.800000
2111.629417	140.100000
2113.290651	142.300000
2114.949856	148.200000
2116.608732	131.600000
2118.267278	158.300000
2119.925493	136.100000
2121.579986	148.000000
2123.237543	127.800000
2124.894770	141.100000
2126.548277	130.000000
2128.203151	140.200000
2129.854306	140.600000
2131.508524	158.000000
2133.159024	115.100000
2134.810892	150.700000
2136.457351	135.300000
2138.108564	131.100000
2139.756065	118.400000
2141.404932	116.500000
2143.051780	128.800000
2144.698303	143.700000
2146.344500	125.100000
2147.986989	144.300000
2149.632535	127.900000
2151.274375	135.800000
2152.919272	142.700000
2154.560464	131.600000
2156.201332	135.500000
2157.841877	137.600000
2159.480409	134.500000
2161.120307	130.600000
2162.756505	131.800000
2164.394069	125.000000
2166.031311	130.300000
2167.666543	137.200000
2169.301453	128.300000
2170.936042	135.500000
2172.570310	131.100000
2174.200884	133.800000
2175.834510	130.100000
2177.464444	127.200000
2179.095743	114.300000
2180.725037	140.100000
2182.354012	144.200000
2183.982667	138.500000
2185.611003	123.600000
2187.237336	128.500000
2188.863351	129.400000
2190.487365	144.900000
2192.112744	141.100000
2193.736122	136.900000
2195.360865	135.900000
2196.981927	127.700000
2198.602672	122.400000
2200.224781	137.500000
2201.844893	132.300000
2203.463009	131.000000
2205.080809	141.700000
2206.698293	131.200000
2208.315463	143.500000
2209.932316	153.900000
2211.548855	136.000000
2213.163401	129.700000
2214.775954	120.700000
2216.389871	139.800000
2218.001797	117.600000
2219.615086	135.000000
2221.226385	124.700000
2222.835694	141.100000
2224.446366	122.700000
2226.055050	145.900000
2227.663422	132.800000
2229.269807	148.500000
2230.877554	135.400000
2232.483316	152.600000
2234.088766	132.300000
2235.692231	122.200000
2237.297059	118.000000
2238.899903	141.000000
2240.500764	126.000000
2242.102988	125.900000
2243.703230	128.300000
2245.304834	152.800000
2246.902785	118.600000
2248.502099	144.200000
2250.099433	122.400000
2251.696459	139.800000
2253.294846	129.700000
2254.889586	131.900000
2256.482348	135.300000
2258.076473	129.700000
2259.671959	133.300000
2261.263800	123.400000
2262.855335	124.500000
2264.448232	136.200000
2266.035819	118.300000
2267.628102	134.400000
2269.215079	119.800000
2270.805083	154.200000
2272.389783	126.800000
2273.979177	140.500000
2275.563268	130.400000
2277.148721	135.700000
2278.732205	138.100000
2280.318714	122.600000
2281.901590	123.700000
2283.484163	135.300000
2285.066432	117.800000
2286.645071	130.800000
2288.226735	137.500000
2289.804770	140.900000
2291.385828	124.700000
2292.963259	123.350000
2294.538727	122.000000
2296.117217	135.900000
2297.692083	126.400000
2299.266648	130.100000
2300.840912	117.500000
2302.414876	132.700000
2303.988540	143.400000
2305.561904	128.900000
2307.131649	117.800000
2308.701095	133.300000
2310.273559	128.200000
2311.840749	131.100000
2313.410956	126.200000
2314.977550	137.600000
2316.545503	128.200000
2318.111500	141.000000
2319.677200	118.000000
2321.242602	137.300000
2322.806051	142.200000
2324.370859	136.500000
2325.932059	160.300000
2327.496272	189.100000
2329.055225	163.900000
2330.617191	157.400000
2332.177207	168.400000
2333.736927	146.900000
2335.294699	150.200000
2336.852175	138.500000
2338.409357	112.300000
2339.964591	130.000000
2341.519532	137.700000
2343.074178	133.700000
2344.628531	126.900000
2346.182590	138.900000
2347.736356	128.300000
2349.288177	106.200000
2350.838055	131.900000
2352.390942	132.000000
2353.938585	135.200000
2355.489237	145.500000
2357.036297	116.800000
2358.584715	114.300000
2360.132842	134.800000
2361.677380	141.900000
2363.223276	131.000000
2364.767234	116.700000
2366.312548	136.700000
2367.854278	128.800000
2369.397366	110.400000
2370.938517	126.900000
2372.479379	127.200000
2374.019952	153.600000
2375.560236	125.200000
2377.100231	124.600000
2378.636647	150.100000
2380.176065	147.000000
2381.711906	127.400000
2383.249104	122.900000
2384.782726	144.600000
2386.319348	131.300000
2387.854040	134.200000
2389.386802	133.200000
2390.919277	132.400000
2392.449824	128.300000
2393.983369	114.500000
2395.511703	124.100000
2397.041393	132.100000
2398.570798	129.900000
2400.099918	125.000000
2401.628752	130.000000
2403.152382	142.300000
2404.680647	130.800000
2406.203710	145.800000
2407.731406	134.800000
2409.252263	129.700000
2410.777752	138.600000
2412.299682	147.100000
2413.822966	130.200000
2415.344330	136.800000
2416.863774	134.600000
2418.384573	132.800000
2419.903453	132.700000
2421.422052	135.300000
2422.938732	139.600000
2424.456768	143.500000
2425.974522	142.300000
2427.488724	127.100000
2429.002647	137.500000
2430.516289	150.400000
2432.031285	141.800000
2433.542734	152.700000
2435.055536	161.700000
2436.566426	169.600000
2438.077037	174.000000
2439.585736	162.800000
2441.097421	174.500000
2442.605563	175.100000
2444.113427	150.000000
2445.621012	148.700000
2447.125058	166.100000
2448.632088	155.600000
2450.137210	156.300000
2451.642055	161.200000
2453.144993	163.700000
2454.647655	163.500000
2456.150040	148.400000
2457.650520	148.600000
2459.152353	168.800000
2460.652281	156.500000
2462.151934	170.600000
2463.651312	155.500000
2465.148787	145.300000
2466.644360	142.200000
2468.142913	159.300000
2469.637938	153.800000
2471.134315	148.700000
2472.627166	146.100000
2474.121370	158.900000
2475.615300	139.100000
2477.105706	158.000000
2478.599090	140.600000
2480.090576	149.600000
2481.580165	125.000000
2483.069482	117.800000
2484.556903	139.900000
2486.047300	114.500000
2487.534179	143.600000
2489.022409	145.800000
2490.507122	127.500000
2491.991565	135.500000
2493.477360	138.900000
2494.961263	133.000000
2496.446516	122.500000
2497.926636	150.400000
2499.409729	139.600000
2500.890931	130.200000
2502.371864	132.300000
2503.850908	166.900000
2505.329683	126.600000
2506.808190	139.700000
2508.286428	141.000000
2509.764399	124.500000
2511.238864	131.100000
2512.716299	127.300000
2514.190229	139.200000
2515.665511	148.800000
2517.140525	130.700000
2518.612038	136.700000
2520.084902	126.000000
2521.555883	157.900000
2523.028214	143.600000
2524.495431	128.300000
2525.965615	117.500000
2527.433918	140.100000
2528.901956	132.000000
2530.369728	150.700000
2531.837236	126.600000
2533.304480	133.300000
2534.768231	130.500000
2536.233332	154.700000
2537.696556	134.200000
2539.161129	160.000000
2540.622214	148.700000
2542.084648	152.100000
2543.546819	146.800000
2545.005503	141.100000
2546.468760	134.500000
2547.926920	139.900000
2549.386430	129.200000
2550.840845	156.900000
2552.299831	144.000000
2553.756945	142.600000
2555.212187	143.100000
2556.667169	143.100000
2558.120281	141.000000
2559.574742	139.500000
2561.027334	114.300000
2562.479666	143.600000
2563.930130	136.100000
2565.383551	133.100000
2566.831889	141.000000
2568.283182	134.700000
2569.732610	141.700000
2571.178565	141.900000
2572.627475	130.600000
2574.072915	150.100000
2575.519702	129.600000
2576.964626	144.200000
2578.409293	139.200000
2579.855307	133.500000
2581.297855	137.100000
2582.741749	162.200000
2584.182179	145.300000
2585.623957	143.200000
2587.063875	129.600000
2588.505140	138.700000
2589.942943	123.400000
2591.383696	150.800000
2592.819387	147.800000
2594.258026	140.600000
2595.694809	148.800000
2597.129736	154.200000
2598.567610	155.200000
2600.000427	148.000000
2601.434591	145.000000
2602.866901	155.900000
2604.300557	155.300000
2605.732360	146.600000
2607.163909	132.100000
2608.595205	138.800000
2610.024650	154.500000
2611.453842	145.100000
2612.881183	143.300000
2614.309871	157.200000
2615.738306	163.200000
2617.163295	164.300000
2618.589629	152.000000
2620.014116	167.200000
2621.439948	156.800000
2622.862336	150.400000
2624.286069	148.900000
2625.707957	157.600000
2627.129594	152.600000
2628.549387	159.200000
2629.970525	164.200000
2631.391413	169.200000
2632.808862	163.200000
2634.229251	160.900000
2635.646203	167.700000
2637.062907	166.600000
2638.479362	165.200000
2639.895569	189.100000
2641.311528	150.100000
2642.725646	184.600000
2644.139516	169.500000
2645.551547	180.900000
2646.964923	173.100000
2648.374869	186.600000
2649.787751	196.800000
2651.197204	206.800000
2652.606411	199.500000
2654.013782	209.800000
2655.424087	187.700000
2656.832556	232.600000
2658.239191	210.400000
2659.645580	212.500000
2661.050135	217.400000
2662.456034	208.800000
2663.860100	241.400000
2665.263921	233.100000
2666.667498	226.900000
2668.069244	244.400000
2669.472333	242.100000
2670.872004	260.200000
2672.273019	266.300000
2673.670618	271.200000
2675.071146	264.800000
2676.468260	253.200000
2677.866717	282.900000
2679.263347	279.100000
2680.659734	285.300000
2682.055879	284.900000
2683.450198	276.700000
2684.845860	282.400000
2686.238113	305.700000
2687.631708	307.500000
2689.023479	287.400000
2690.416593	297.000000
2691.807883	303.200000
2693.197350	287.600000
2694.586577	278.900000
2695.975565	308.300000
2697.365894	299.500000
2698.751240	314.600000
2700.139509	315.400000
2701.525958	331.700000
2702.912168	335.100000
2704.298139	360.700000
2705.680712	346.000000
2707.064627	394.900000
2708.448303	382.100000
2709.831742	385.300000
2711.211785	391.100000
2712.593170	417.200000
2713.972740	420.400000
2715.353650	421.100000
2716.732746	414.400000
2718.110028	432.800000
2719.488651	410.200000
2720.865460	398.100000
2722.242034	381.900000
2723.618372	373.800000
2724.992898	365.500000
2726.368765	358.500000
2727.741246	333.100000
2729.116642	343.500000
2730.487078	296.700000
2731.858854	296.800000
2733.230397	282.700000
2734.600131	280.900000
2735.971205	273.700000
2737.340472	250.200000
2738.709505	245.000000
2740.076732	230.300000
2741.443725	243.800000
2742.810486	252.700000
2744.177014	223.700000
2745.541738	228.200000
2746.906229	202.800000
2748.270489	200.200000
2749.634516	180.900000
2750.998311	193.100000
2752.358734	181.900000
2753.722066	164.200000
2755.080456	172.000000
2756.441756	158.600000
2757.799686	159.700000
2759.160524	170.800000
2760.519562	148.600000
2761.875233	148.100000
2763.233811	150.000000
2764.589022	166.800000
2765.944004	150.100000
2767.297189	148.300000
2768.653281	142.700000
2770.006009	144.400000
2771.358509	138.600000
2772.710780	126.500000
2774.064389	147.000000
2775.414638	147.600000
2776.763092	120.700000
2778.114451	137.300000
2779.462452	114.700000
2780.811790	122.700000
2782.159336	123.500000
2783.506656	132.900000
2784.853748	132.700000
2786.199050	129.900000
2787.544126	129.900000
2788.888976	116.000000
2790.233600	123.000000
2791.574872	120.400000
2792.917481	108.400000
2794.259866	144.600000
2795.602025	125.400000
2796.940835	139.500000
2798.282545	127.900000
2799.620906	140.300000
2800.960605	145.300000
2802.298519	126.400000
2803.634647	125.600000
2804.970553	125.800000
2806.307796	129.000000
2807.643255	144.900000
2808.978490	129.100000
2810.311944	122.000000
2811.646734	123.800000
2812.978184	127.000000
2814.312529	131.400000
2815.641975	138.400000
2816.972759	122.400000
2818.303322	117.900000
2819.632105	113.700000
2820.962224	118.700000
2822.290565	100.800000
2823.618685	120.000000
2824.945027	112.600000
2826.272705	117.300000
2827.597051	109.100000
2828.922733	113.500000
2830.246639	132.000000
2831.570325	129.700000
2832.895347	105.300000
2834.217040	111.100000
2835.538514	105.000000
2836.859768	118.500000
2838.180805	113.700000
2839.500068	111.800000
2840.820667	113.100000
2842.139494	117.300000
2843.458104	103.800000
2844.774942	114.000000
2846.091563	97.200000
2847.407967	125.500000
2848.722601	116.300000
2850.038570	115.700000
2851.351220	116.500000
2852.665204	106.300000
2853.978972	83.500000
2855.292523	114.900000
2856.604308	107.900000
2857.914326	107.500000
2859.225679	125.500000
2860.533717	111.800000
2861.843089	96.800000
2863.152246	115.300000
2864.461189	113.700000
2865.768367	112.200000
2867.073783	107.600000
2868.380532	132.800000
2869.685520	103.200000
2870.990293	114.800000
2872.293306	110.600000
2873.599199	132.100000
2874.900238	122.700000
2876.202610	103.500000
2877.503224	108.900000
2878.805170	127.700000
2880.106904	122.200000
2881.405334	129.400000
2882.705097	108.000000
2884.003103	137.200000
2885.300897	107.400000
2886.596935	111.000000
2887.894305	102.000000
2889.189921	121.100000
2890.485325	107.100000
2891.780518	116.600000
2893.072414	110.300000
2894.367185	120.000000
2895.658661	101.100000
2896.951469	107.700000
2898.244067	91.000000
2899.533370	130.200000
2900.824007	116.600000
2902.112892	108.900000
2903.403109	112.700000
2904.690035	118.900000
2905.978293	102.400000
2907.264802	112.400000
2908.551102	98.300000
2909.837194	122.500000
2911.121538	104.500000
2912.408754	107.000000
2913.691143	115.600000
2914.974864	109.400000
2916.256838	92.200000
2917.538606	111.500000
2918.818628	96.900000
2920.101521	118.000000
2921.382667	94.800000
2922.660532	117.900000
2923.941266	91.500000
2925.218720	110.800000
2926.495967	103.200000
2927.771472	111.900000
2929.049845	80.500000
2930.323404	107.500000
2931.599830	104.300000
2932.874515	98.700000
2934.147459	108.300000
2935.421735	108.700000
2936.694271	103.200000
2937.966602	113.500000
2939.235661	92.500000
2940.507585	113.700000
2941.777771	104.700000
2943.047753	116.900000
2944.317532	110.200000
2945.585575	104.100000
2946.851881	106.900000
2948.117985	125.400000
2949.385420	96.300000
2950.651119	105.600000
2951.916617	105.500000
2953.181912	121.800000
2954.443942	88.300000
2955.707302	118.800000
2956.970461	100.900000
2958.231888	116.300000
2959.494644	111.600000
2960.755668	108.800000
2962.014962	100.400000
2963.274055	108.600000
2964.532949	112.700000
2965.791642	88.000000
2967.050134	100.000000
2968.306898	111.900000
2969.563463	94.600000
2970.818299	101.800000
2972.074465	102.300000
2973.327376	101.200000
2974.581615	96.800000
2975.835656	104.000000
2977.087971	108.600000
2978.340088	106.700000
2979.590480	89.100000
2980.843727	120.500000
2982.092197	102.700000
2983.343522	128.100000
2984.591597	99.900000
2985.839475	114.200000
2987.087157	92.600000
2988.334641	96.100000
2989.580404	93.900000
2990.825971	103.000000
2992.072865	117.500000
2993.316515	113.000000
2994.561492	105.600000
2995.803227	96.000000
2997.047813	110.000000
2998.290680	102.800000
2999.530306	99.400000
3000.772782	98.000000
3002.012018	97.000000
3003.252582	124.300000
3004.491429	99.600000
3005.730082	111.500000
3006.967019	110.500000
3008.205284	115.100000
3009.441833	97.000000
3010.678189	93.400000
3011.914351	96.600000
3013.148799	116.100000
3014.383054	101.100000
3015.617117	120.400000
3016.849466	109.900000
3018.080104	109.800000
3019.313588	93.800000
3020.545361	96.300000
3021.775422	101.000000
3023.005292	106.700000
3024.233452	107.000000
3025.462939	106.400000
3026.690716	101.000000
3027.918302	117.200000
3029.147214	90.000000
3030.371384	98.500000
3031.598397	89.600000
3032.822187	103.700000
3034.047302	93.000000
3035.270712	94.300000
3036.493931	106.500000
3037.715445	108.500000
3038.939800	90.100000
3040.159420	117.500000
3041.380366	88.500000
3042.601122	96.000000
3043.820176	88.800000
3045.040554	100.300000
3046.257716	88.400000
3047.476203	91.400000
3048.692989	84.800000
3049.909586	102.500000
3051.125996	85.500000
3052.339192	103.400000
3053.555226	94.500000
3054.768048	101.400000
3055.983707	91.000000
3057.194644	99.500000
3058.406905	85.400000
3059.618979	107.300000
3060.830867	101.500000
3062.041058	94.100000
3063.251062	100.200000
3064.460880	93.100000
3065.669002	76.200000
3066.876939	102.200000
3068.083180	86.600000
3069.290746	98.100000
3070.496617	104.250000
3071.702303	110.400000
3072.907805	93.400000
3074.111613	93.200000
3075.316745	85.500000
3076.520184	88.700000
3077.721932	106.900000
3078.923495	99.600000
3080.124875	101.200000
3081.326071	99.500000
3082.525577	70.000000
3083.724900	105.800000
3084.925546	104.200000
3086.124502	99.500000
3087.320264	82.600000
3088.518854	99.700000
3089.714251	103.900000
3090.910972	114.400000
3092.104500	99.900000
3093.300856	101.600000
3094.495525	79.700000
3095.687004	96.900000
3096.882815	83.700000
3098.073931	98.400000
3099.266371	86.100000
3100.455622	107.900000
3101.647700	75.300000
3102.838094	118.100000
3104.025302	95.900000
3105.213832	87.500000
3106.403685	84.100000
3107.590353	101.200000
3108.776842	78.400000
3109.963152	85.800000
3111.150783	81.300000
3112.335232	96.900000
3113.518002	92.000000
3114.703594	104.500000
3115.887507	91.600000
3117.069740	73.600000
3118.251796	100.600000
3119.433673	97.100000
3120.615372	84.900000
3121.795394	112.200000
3122.973739	85.100000
3124.154904	92.300000
3125.332894	93.600000
3126.510707	97.200000
3127.688343	83.300000
3128.864304	90.600000
3130.040089	92.800000
3131.217194	92.200000
3132.392626	112.400000
3133.566384	91.300000
3134.738469	92.700000
3135.911876	91.900000
3137.085106	95.900000
3138.256665	100.300000
3139.429544	109.400000
3140.599256	91.600000
3141.770289	89.300000
3142.939651	89.000000
3144.107344	103.100000
3145.277852	95.100000
3146.443702	99.500000
3147.613860	96.600000
3148.779361	96.200000
3149.944689	105.400000
3151.109843	85.600000
3152.274824	89.500000
3153.441124	74.600000
3154.602771	97.000000
3155.765739	94.400000
3156.928534	93.100000
3158.091156	91.800000
3159.252112	98.100000
3160.412897	111.700000
3161.573509	118.300000
3162.732457	80.600000
3163.891234	89.200000
3165.049838	90.100000
3166.208271	92.300000
3167.366533	89.400000
3168.523132	100.200000
3169.678070	87.500000
3170.834327	95.400000
3171.988923	92.700000
3173.143349	119.500000
3174.296115	89.100000
3175.448710	96.300000
3176.601136	89.600000
3177.753391	86.300000
3178.905477	103.200000
3180.054416	94.800000
3181.206162	89.700000
3182.356251	91.300000
3183.504683	91.600000
3184.652945	111.300000
3185.801039	81.600000
3186.948964	93.300000
3188.095233	89.900000
3189.241334	103.700000
3190.385781	78.800000
3191.530060	93.900000
3192.674170	97.000000
3193.819599	104.100000
3194.961889	81.200000
3196.104012	81.400000
3197.245967	100.900000
3198.387755	96.400000
3199.529376	92.500000
3200.667862	113.000000
3201.807665	62.500000
3202.948785	93.000000
3204.086772	84.500000
3205.223108	94.200000
3206.359280	78.000000
3207.496768	90.500000
3208.632608	83.400000
3209.769765	83.400000
3210.902309	82.900000
3212.039134	74.300000
3213.171349	91.200000
3214.304880	109.700000
3215.438246	95.900000
3216.568486	84.400000
3217.701523	90.500000
3218.831434	76.900000
3219.962661	109.700000
3221.090764	99.400000
3222.221663	91.400000
3223.350918	89.200000
3224.478530	74.700000
3225.603019	91.100000
3226.731784	100.700000
3227.857427	95.100000
3228.982907	93.500000
3230.106746	102.500000
3231.233380	88.000000
3232.355416	112.200000
3233.478768	106.800000
3234.601958	120.600000
3235.724985	126.000000
3236.846374	109.500000
3237.967600	106.200000
3239.087188	115.000000
3240.206615	100.600000
3241.324405	120.800000
3242.444986	109.000000
3243.562454	135.400000
3244.679761	130.500000
3245.796908	140.700000
3246.912418	106.300000
3248.029244	129.500000
3249.142960	86.700000
3250.259465	123.100000
3251.374335	107.100000
3252.486097	107.000000
3253.597700	105.200000
3254.710618	78.200000
3255.823376	91.100000
3256.933028	92.100000
3258.043995	81.300000
3259.154803	98.400000
3260.263979	91.000000
3261.371524	92.500000
3262.480384	91.000000
3263.589085	91.600000
3264.694684	90.300000
3265.801598	88.000000
3266.906882	63.400000
3268.013480	92.800000
3269.116978	69.500000
3270.221790	97.700000
3271.326445	71.900000
3272.428002	91.600000
3273.529402	84.200000
3274.632116	100.200000
3275.734674	69.000000
3276.834135	87.700000
3277.936380	73.700000
3279.035529	98.500000
3280.133053	77.300000
3281.230423	99.700000
3282.330574	78.100000
3283.427633	85.300000
3284.524536	81.300000
3285.621284	102.200000
3286.713473	83.600000
3287.809912	85.000000
3288.904728	65.800000
3289.999390	91.000000
3291.092429	76.000000
3292.185315	65.500000
3293.276580	78.700000
3294.369158	97.900000
3295.460116	89.300000
3296.549454	91.700000
3297.638639	87.700000
3298.729136	93.700000
3299.816550	88.800000
3300.903810	86.900000
3301.992383	97.100000
3303.080803	84.100000
3304.164677	87.600000
3305.252792	86.800000
3306.337825	83.800000
3307.421243	95.400000
3308.505973	86.200000
3309.589087	107.700000
3310.673514	71.700000
3311.754862	83.900000
3312.837522	89.000000
3313.918567	76.800000
3314.999462	80.000000
3316.078744	103.300000
3317.157875	73.100000
3318.238318	72.100000
3319.315686	78.400000
3320.394366	67.600000
3321.471434	66.400000
3322.548352	94.600000
3323.623660	79.700000
3324.698818	81.600000
3325.775287	84.600000
3326.848686	71.900000
3327.921935	76.700000
3328.996496	82.500000
3330.069448	72.100000
3331.140791	98.400000
3332.213445	82.800000
3333.283032	95.900000
3334.353931	73.100000
3335.423222	71.300000
3336.493823	98.100000
3337.562819	105.300000
3338.630208	73.700000
3339.695992	78.700000
3340.766002	79.500000
3341.832949	73.100000
3342.896834	76.700000
3343.963486	85.700000
3345.028535	77.100000
3346.091980	92.600000
3347.155279	76.900000
3348.218431	79.400000
3349.281437	79.600000
3350.344297	77.600000
3351.405554	72.100000
3352.463755	84.300000
3353.526177	87.000000
3354.585543	99.100000
3355.644763	78.300000
3356.705292	92.000000
3357.761313	77.700000
3358.820097	82.500000
3359.874374	72.800000
3360.931415	67.800000
3361.986857	85.000000
3363.043609	98.200000
3364.098762	90.000000
3365.152318	95.800000
3366.204277	56.800000
3367.258999	81.000000
3368.310671	76.200000
3369.362200	71.500000
3370.415037	77.800000
3371.464827	66.900000
3372.515926	85.600000
3373.563978	108.500000
3374.614791	80.700000
3375.662558	90.300000
3376.710183	83.800000
3377.757666	72.200000
3378.803556	68.200000
3379.850754	97.400000
3380.894910	57.000000
3381.941824	79.400000
3382.987146	86.000000
3384.029427	78.900000
3385.071567	69.500000
3386.115016	85.400000
3387.158323	75.200000
3388.200040	88.600000
3389.241617	76.800000
3390.283052	85.800000
3391.322899	66.000000
3392.361157	70.300000
3393.400723	76.600000
3394.440149	87.100000
3395.477987	57.100000
3396.514238	69.700000
3397.550350	55.200000
3398.587768	96.300000
3399.622154	79.100000
3400.657848	67.100000
3401.693402	85.700000
3402.725925	86.000000
3403.761200	77.400000
3404.793446	79.000000
3405.825553	80.000000
3406.856076	75.500000
3407.887906	75.300000
3408.919598	82.200000
3409.948262	76.300000
3410.976789	65.300000
3412.006622	64.600000
3413.036318	88.600000
3414.062988	84.000000
3415.090964	88.100000
3416.115917	69.400000
3417.143619	79.500000
3418.168297	78.800000
3419.194282	80.100000
3420.218688	66.100000
3421.242957	72.600000
3422.265647	90.200000
3423.288201	78.300000
3424.312061	81.200000
3425.332901	79.700000
3426.353605	69.500000
3427.375615	63.900000
3428.394607	80.600000
3429.413464	81.100000
3430.433627	58.500000
3431.450773	76.600000
