-117.805840	15.800000
-115.136240	14.800000
-112.469575	1.300000
-109.803662	21.300000
-107.140682	11.100000
-104.476271	7.500000
-101.814791	10.800000
-99.151882	20.900000
-96.494079	10.800000
-93.834847	6.100000
-91.176363	7.900000
-88.520804	20.400000
-85.863815	5.000000
-83.211925	14.800000
-80.558605	6.300000
-77.908204	3.200000
-75.256375	5.200000
-72.609636	16.600000
-69.961467	10.100000
-67.314041	15.400000
-64.669530	17.800000
-62.023589	1.500000
-59.382730	-11.100000
-56.740442	6.500000
-54.101063	-9.200000
-51.460255	21.100000
-48.820186	25.200000
-46.185191	9.800000
-43.548766	1.600000
-40.915244	17.800000
-38.280294	38.800000
-35.650410	26.900000
-33.016932	6.500000
-30.388517	26.400000
-27.760836	30.400000
-25.131726	54.100000
-22.507674	22.800000
-19.880031	45.800000
-17.257443	58.500000
-14.635585	104.700000
-12.014458	157.800000
-9.394062	363.800000
-6.776553	1311.300000
-4.157616	4782.400000
-1.541565	13153.600000
1.073759	19000.700000
3.688354	12388.200000
6.300068	2012.800000
8.913210	210.000000
11.521318	104.000000
14.133007	60.400000
16.739666	57.800000
19.347754	27.700000
21.955116	41.500000
24.557454	31.000000
27.163371	35.200000
29.764265	26.600000
32.366587	26.600000
34.963891	14.700000
37.564772	29.000000
40.160637	10.300000
42.757930	13.100000
45.354505	28.300000
47.946070	6.700000
50.539063	1.100000
53.129195	10.400000
55.720754	-10.500000
58.309455	6.800000
60.899582	15.700000
63.484710	24.800000
66.071266	-7.200000
68.657108	18.400000
71.240095	-2.500000
73.824510	22.200000
76.401796	16.200000
78.982648	15.500000
81.560651	17.100000
84.137943	41.900000
86.716663	2.000000
89.290400	15.600000
91.865564	9.800000
94.437885	9.000000
97.009499	9.200000
99.578272	0.800000
102.148472	15.400000
104.715833	13.200000
107.284621	-3.500000
109.850572	21.300000
112.413688	11.900000
114.980360	40.500000
117.537810	13.400000
120.100946	19.900000
122.659123	15.900000
125.220854	26.100000
127.777628	23.600000
130.335828	60.800000
132.889076	74.500000
135.441626	92.800000
137.997726	152.200000
140.548878	199.300000
143.099333	205.800000
145.649090	262.300000
148.196028	223.000000
150.742271	274.600000
153.289939	275.900000
155.836911	269.600000
158.378948	266.700000
160.920291	238.800000
163.460941	278.200000
166.003017	255.100000
168.542281	246.600000
171.078736	269.400000
173.614501	243.800000
176.151691	223.600000
178.688190	260.900000
181.221883	232.700000
183.752772	243.800000
186.282973	259.900000
188.814600	236.700000
191.343425	250.200000
193.869451	263.100000
196.394791	246.600000
198.921556	243.300000
201.445525	227.300000
203.968809	232.000000
206.491407	253.800000
209.011213	244.700000
211.530336	252.400000
214.048777	238.000000
216.568641	254.100000
219.081503	234.500000
221.597897	264.400000
224.113610	246.300000
226.624432	244.400000
229.136679	234.800000
231.646143	253.000000
234.154929	248.400000
236.663037	258.500000
239.172569	245.500000
241.677220	281.600000
244.181195	246.700000
246.686594	261.200000
249.187118	265.300000
251.691165	272.100000
254.188242	256.000000
256.688842	271.000000
259.186670	269.500000
261.683825	278.700000
264.180307	265.500000
266.671926	261.600000
269.167065	247.500000
271.659437	276.600000
274.151139	270.600000
276.640078	277.600000
279.130440	275.500000
281.618041	290.700000
284.102882	293.300000
286.591238	250.100000
289.072654	283.300000
291.557584	274.700000
294.037669	270.200000
296.521266	284.400000
299.000020	282.300000
301.480197	300.100000
303.957623	292.200000
306.434385	310.400000
308.910483	303.900000
311.383833	311.900000
313.856522	337.900000
316.328549	349.700000
318.799914	364.000000
321.268536	408.300000
323.736498	389.100000
326.205883	361.900000
328.670445	335.900000
331.138511	339.100000
333.601756	335.800000
336.064345	343.100000
338.526277	303.600000
340.987552	324.800000
343.446092	333.300000
345.906056	340.000000
348.363286	312.000000
350.819862	302.100000
353.275784	323.100000
355.728976	334.300000
358.183591	313.700000
360.633404	316.700000
363.086713	311.900000
365.535223	337.500000
367.983083	310.800000
370.432365	332.200000
372.876852	314.400000
375.322763	314.200000
377.768023	322.500000
380.210565	347.100000
382.652459	338.100000
385.093705	321.400000
387.532237	316.000000
389.972189	323.800000
392.409428	312.800000
394.843956	317.600000
397.281970	316.300000
399.715209	314.800000
402.149868	302.300000
404.579755	333.000000
407.013127	325.000000
409.441729	315.100000
411.869689	317.100000
414.299071	316.400000
416.723687	324.900000
419.149725	310.400000
421.575122	337.800000
423.999879	323.300000
426.419877	314.200000
428.841297	336.200000
431.260021	318.400000
433.680165	322.500000
436.097614	330.200000
438.516483	332.900000
440.932658	318.000000
443.344087	316.700000
445.758992	322.100000
448.171208	347.000000
450.582789	320.000000
452.993736	329.400000
455.401996	322.400000
457.809625	318.500000
460.216621	296.100000
462.622986	332.800000
465.026668	319.000000
467.429720	319.000000
469.832142	307.900000
472.233934	309.700000
474.633048	302.500000
477.033582	308.200000
479.433487	297.500000
481.828670	320.600000
484.227319	298.400000
486.621247	302.500000
489.014550	283.900000
491.407228	328.100000
493.799280	287.400000
496.192750	289.900000
498.581508	261.700000
500.967600	290.600000
503.355112	238.400000
505.742001	248.100000
508.126225	208.300000
510.511869	226.500000
512.894851	212.200000
515.275172	196.800000
517.656912	204.200000
520.035993	217.700000
522.416492	186.800000
524.794335	213.500000
527.169521	201.600000
529.544091	208.700000
531.920078	193.500000
534.293413	194.700000
536.668165	194.300000
539.038231	171.000000
541.407683	165.600000
543.778552	195.100000
546.144740	183.800000
548.512347	195.600000
550.877308	163.900000
553.241657	169.000000
555.605392	167.400000
557.970545	176.000000
560.331026	175.400000
562.692925	171.300000
565.052183	151.600000
567.408803	160.900000
569.768869	153.600000
572.122243	170.700000
574.479062	150.700000
576.833246	158.700000
579.186821	143.200000
581.539789	158.700000
583.890124	145.500000
586.241877	160.500000
588.586953	146.100000
590.937492	139.300000
593.281359	170.000000
595.630687	179.400000
597.975366	170.100000
600.317421	171.000000
602.660893	159.300000
605.001742	170.200000
607.341988	176.300000
609.679614	163.500000
612.020675	155.900000
614.357099	162.300000
616.694939	144.700000
619.030162	169.100000
621.362768	169.400000
623.696792	169.900000
626.028201	144.900000
628.359012	159.500000
630.689225	143.000000
633.018841	149.200000
635.343833	140.700000
637.674267	136.500000
640.000080	149.900000
642.323285	165.600000
644.647907	136.200000
646.969923	156.300000
649.291345	132.300000
651.610164	169.200000
653.930400	135.400000
656.250042	136.700000
658.567083	124.200000
660.883532	136.000000
663.197383	134.800000
665.512650	133.600000
667.825320	135.700000
670.139405	150.600000
672.448890	149.200000
674.759791	148.200000
677.068099	137.500000
679.375819	142.900000
681.684953	139.600000
683.989495	137.100000
686.293451	125.300000
688.596821	133.500000
690.901605	112.400000
693.201802	118.700000
695.503415	154.600000
697.804442	129.600000
700.100888	117.400000
702.398749	123.200000
704.696026	130.200000
706.992720	131.800000
709.284838	137.300000
711.580367	133.600000
713.871322	126.200000
716.163692	150.600000
718.453487	123.200000
720.742701	136.400000
723.031336	124.900000
725.317398	136.700000
727.604875	141.400000
729.889780	152.100000
732.174108	145.100000
734.455867	146.600000
736.739040	130.100000
739.021636	125.500000
741.299676	133.800000
743.579130	149.000000
745.858009	137.800000
748.136313	144.200000
750.410066	136.200000
752.685234	140.600000
754.959828	139.500000
757.231863	147.800000
759.505311	116.200000
761.776201	138.200000
764.044535	140.700000
766.314282	145.100000
768.581474	121.700000
770.848097	134.200000
773.114149	148.400000
775.377650	169.500000
777.642564	134.700000
779.906908	146.000000
782.166723	135.300000
784.427950	155.200000
786.688610	140.300000
788.946724	143.800000
791.202293	135.700000
793.461252	152.100000
795.713713	158.200000
797.971541	144.000000
800.224850	117.500000
802.475619	164.600000
804.727800	127.600000
806.977442	157.200000
809.228496	140.300000
811.475040	138.700000
813.722995	141.200000
815.968416	136.100000
818.215248	145.800000
820.461519	131.300000
822.703285	139.400000
824.948435	146.000000
827.187112	125.600000
829.429171	133.800000
831.666732	134.100000
833.905705	139.700000
836.142151	141.200000
838.380008	128.700000
840.615340	128.000000
842.848149	137.400000
845.082368	134.100000
847.314066	137.900000
849.545209	128.700000
851.775797	131.800000
854.005831	129.300000
856.235311	119.100000
858.460309	141.800000
860.688681	125.900000
862.912575	123.900000
865.137880	124.400000
867.358709	117.400000
869.582910	122.900000
871.802638	127.800000
874.023776	119.400000
876.244364	119.800000
878.462443	141.800000
880.681931	131.200000
882.896953	147.700000
885.111427	128.900000
887.325354	131.800000
889.538734	120.400000
891.751566	131.400000
893.963851	130.300000
896.173635	120.900000
898.382873	131.800000
900.591566	140.700000
902.797759	140.500000
905.005362	132.200000
907.210468	115.500000
909.415030	132.200000
911.617097	138.500000
913.820573	128.800000
916.021555	126.600000
918.221995	121.400000
920.423844	131.900000
922.619302	138.000000
924.818118	129.200000
927.012497	140.400000
929.210233	122.300000
931.403533	138.100000
933.598242	125.000000
935.790464	141.000000
937.982149	113.000000
940.173296	132.100000
942.361960	113.200000
944.550088	133.500000
946.735734	148.100000
948.924734	157.400000
951.109310	131.700000
953.293351	146.200000
955.480742	135.700000
957.659829	135.700000
959.842267	149.800000
962.024171	154.700000
964.203600	136.700000
966.380557	163.100000
968.558922	155.000000
970.738694	150.600000
972.912117	153.300000
975.088886	168.900000
977.261248	170.600000
979.435018	165.300000
981.604384	164.300000
983.777094	164.300000
985.947339	169.000000
988.117054	159.500000
990.286241	173.700000
992.451031	162.700000
994.619163	167.100000
996.782899	178.600000
998.948043	161.100000
1001.110727	173.300000
1003.272886	178.200000
1005.432588	176.200000
1007.591765	183.100000
1009.752349	184.600000
1011.910478	147.300000
1014.068084	194.500000
1016.225166	182.600000
1018.381724	177.900000
1020.533903	183.500000
1022.687489	204.100000
1024.840553	178.700000
1026.991168	178.400000
1029.143189	202.700000
1031.290838	214.100000
1033.441818	172.000000
1035.588427	201.000000
1037.734517	199.700000
1039.880089	203.900000
1042.027066	176.100000
1044.167754	218.900000
1046.311771	185.900000
1048.453349	207.200000
1050.594409	202.500000
1052.736875	216.500000
1054.873060	184.300000
1057.012572	206.000000
1059.147728	214.000000
1061.286209	224.400000
1063.420337	226.100000
1065.553951	215.200000
1067.688969	206.300000
1069.819639	219.100000
1071.951713	188.700000
1074.081358	200.700000
1076.210490	199.300000
1078.339112	190.600000
1080.467222	197.500000
1082.592906	179.500000
1084.718080	187.700000
1086.844658	194.300000
1088.966898	189.200000
1091.090543	192.600000
1093.209853	178.300000
1095.334392	193.700000
1097.452687	186.500000
1099.572385	192.200000
1101.689666	171.600000
1103.806439	176.900000
1105.922706	154.000000
1108.036558	179.300000
1110.151813	159.600000
1112.262746	165.200000
1114.376991	168.800000
1116.486915	173.600000
1118.598243	147.000000
1120.709066	162.400000
1122.815573	162.500000
1124.925389	153.500000
1127.030892	137.500000
1129.137797	171.400000
1131.238487	148.200000
1133.344389	162.400000
1135.445982	127.400000
1137.548978	139.500000
1139.651473	151.500000
1141.747761	140.700000
1143.849256	132.000000
1145.946449	147.900000
1148.043144	145.800000
1150.139340	146.600000
1152.235038	161.500000
1154.330239	151.900000
1156.423043	143.600000
1158.517249	149.600000
1160.605264	149.600000
1162.698478	167.800000
1164.785503	135.100000
1166.875827	153.400000
1168.961863	151.000000
1171.051197	172.300000
1173.134350	151.200000
1175.218906	135.100000
1177.304863	132.000000
1179.386538	154.100000
1181.469614	156.100000
1183.550305	150.300000
1185.630505	153.600000
1187.710213	125.300000
1189.789430	150.400000
1191.866264	145.400000
1193.940718	148.000000
1196.018464	157.600000
1198.091939	137.700000
1200.166816	154.100000
1202.237425	128.900000
1204.309435	138.100000
1206.379069	147.600000
1208.450104	127.200000
1210.520652	141.800000
1212.586938	148.200000
1214.654625	126.500000
1216.719939	145.200000
1218.786654	113.900000
1220.849114	134.300000
1222.914858	147.000000
1224.976348	156.300000
1227.039239	127.300000
1229.099761	129.300000
1231.159801	121.800000
1233.219357	136.400000
1235.276549	128.200000
1237.333258	131.800000
1239.387605	121.200000
1241.445233	140.400000
1243.500497	124.000000
1245.551522	124.700000
1247.603946	134.000000
1249.655890	133.000000
1251.705476	119.200000
1253.754583	127.900000
1255.803211	127.400000
1257.851361	149.600000
1259.899033	134.600000
1261.942474	143.200000
1263.989191	119.800000
1266.033554	133.800000
1268.077441	129.700000
1270.118976	132.600000
1272.158162	124.500000
1274.200621	131.500000
1276.238857	145.000000
1278.278492	129.700000
1280.317651	120.200000
1282.352593	143.200000
1284.388933	119.300000
1286.422929	121.200000
1288.458322	126.500000
1290.489502	135.500000
1292.522081	111.300000
1294.554188	125.600000
1296.583954	123.000000
1298.615117	123.900000
1300.642073	112.500000
1302.670428	131.000000
1304.694577	97.600000
1306.721992	141.400000
1308.745204	123.500000
1310.769814	129.200000
1312.792089	105.400000
1314.815762	107.400000
1316.837102	126.400000
1318.857975	116.400000
1320.878380	99.100000
1322.894592	135.200000
1324.912201	124.600000
1326.927482	110.400000
1328.946022	129.700000
1330.960372	120.600000
1332.972397	115.600000
1334.987680	130.000000
1336.998777	115.400000
1339.011270	113.100000
1341.019581	120.000000
1343.031148	115.800000
1345.036676	100.400000
1347.045459	124.000000
1349.050064	105.200000
1351.057923	139.500000
1353.065320	110.600000
1355.066686	135.600000
1357.069448	104.100000
1359.071751	133.100000
1361.073594	125.500000
1363.074977	132.800000
1365.074046	114.600000
1367.072658	112.600000
1369.070810	126.700000
1371.068505	99.500000
1373.062037	134.600000
1375.056964	138.400000
1377.051435	113.900000
1379.045449	133.700000
1381.037156	126.900000
1383.028407	128.700000
1385.017353	135.500000
1387.007694	120.600000
1388.997581	118.000000
1390.985163	118.800000
1392.972292	133.300000
1394.957119	126.500000
1396.943341	116.500000
1398.927262	141.000000
1400.910731	128.700000
1402.893748	138.100000
1404.874467	130.600000
1406.856580	123.500000
1408.836396	109.600000
1410.815762	140.700000
1412.790989	120.600000
1414.769454	115.700000
1416.745626	135.900000
1418.721348	124.700000
1420.696622	121.900000
1422.669604	124.100000
1424.642138	122.600000
1426.614224	138.200000
1428.585863	124.700000
1430.553373	137.900000
1432.525957	118.000000
1434.490735	132.100000
1436.460586	114.400000
1438.426312	125.700000
1440.393432	131.000000
1442.358268	124.300000
1444.318984	112.100000
1446.284768	112.400000
1448.244597	120.300000
1450.205820	128.600000
1452.168434	134.800000
1454.126934	128.300000
1456.084992	130.600000
1458.042608	128.100000
1459.999781	117.700000
1461.954679	147.500000
1463.910970	134.100000
1465.864986	115.200000
1467.818561	131.000000
1469.769864	127.700000
1471.722559	131.100000
1473.672983	145.100000
1475.622968	129.100000
1477.572514	148.800000
1479.519791	108.800000
1481.464800	135.500000
1483.411202	119.800000
1485.357166	133.100000
1487.302693	130.700000
1489.245954	142.600000
1491.188779	145.700000
1493.129341	139.500000
1495.071295	133.500000
1497.010986	153.000000
1498.950242	139.700000
1500.889064	131.300000
1502.825626	122.100000
1504.763579	141.100000
1506.699273	132.100000
1508.634534	149.700000
1510.567538	151.600000
1512.500110	144.400000
1514.432250	158.000000
1516.363958	141.900000
1518.293413	146.300000
1520.224258	157.700000
1522.154671	147.800000
1524.081012	149.800000
1526.008743	130.100000
1527.934225	131.900000
1529.859277	151.500000
1531.783900	162.600000
1533.708093	149.300000
1535.630040	156.000000
1537.553377	165.200000
1539.474467	160.900000
1541.393313	164.300000
1543.313549	171.800000
1545.231541	189.800000
1547.149107	184.600000
1549.064432	189.300000
1550.981146	183.800000
1552.893805	217.000000
1554.809667	241.500000
1556.723291	247.000000
1558.634676	261.700000
1560.547451	275.200000
1562.456176	283.500000
1564.366290	328.600000
1566.275981	351.300000
1568.185249	442.900000
1570.092282	524.300000
1571.997083	645.600000
1573.903273	782.700000
1575.807232	965.900000
1577.710769	1142.700000
1579.613886	1282.700000
1581.514773	1324.200000
1583.417049	1220.000000
1585.317096	1088.600000
1587.218532	859.800000
1589.115934	693.300000
1591.012917	551.000000
1592.909482	458.800000
1594.807434	383.700000
1596.699552	343.800000
1598.594864	286.300000
1600.489758	242.300000
1602.382430	230.600000
1604.274685	223.100000
1606.164721	198.400000
1608.054341	196.900000
1609.943546	203.500000
1611.832335	180.100000
1613.718908	175.200000
1615.606868	159.800000
1617.490811	159.900000
1619.376141	176.700000
1621.261058	159.300000
1623.143761	160.900000
1625.027851	148.000000
1626.907929	149.900000
1628.789395	133.300000
1630.668649	140.500000
1632.549291	133.300000
1634.424128	142.600000
1636.303946	127.300000
1638.179760	145.600000
1640.055163	131.400000
1641.931952	149.600000
1643.802944	147.500000
1645.677119	131.200000
1647.547294	125.800000
1649.420650	147.900000
1651.291803	142.700000
1653.160754	147.500000
1655.031091	134.600000
1656.897435	121.300000
1658.765164	126.500000
1660.630694	132.100000
1662.497610	118.600000
1664.360536	124.400000
1666.224849	148.200000
1668.086965	144.400000
1669.948676	146.100000
1671.811772	139.100000
1673.672674	125.100000
1675.531383	142.500000
1677.389688	120.100000
1679.249377	135.700000
1681.103300	143.300000
1682.960396	131.300000
1684.817088	125.200000
1686.669805	139.400000
1688.525693	129.700000
1690.377607	121.600000
1692.229120	116.800000
1694.080232	147.900000
1695.930943	118.000000
1697.781254	139.000000
1699.629381	144.900000
1701.478892	149.900000
1703.322653	124.800000
1705.171365	145.900000
1707.014330	133.800000
1708.860461	135.600000
1710.702631	134.400000
1712.547966	127.900000
1714.387560	121.200000
1716.228538	135.400000
1718.070899	116.300000
1719.909303	123.400000
1721.749091	132.900000
1723.586704	127.200000
1725.423922	106.000000
1727.258966	132.700000
1729.095393	134.300000
1730.929647	124.600000
1732.763508	135.500000
1734.596974	138.000000
1736.426494	127.900000
1738.259174	121.200000
1740.087908	119.900000
1741.919801	140.700000
1743.747751	139.300000
1745.575309	115.800000
1747.402476	107.400000
1749.229251	136.600000
1751.055634	128.600000
1752.878081	148.100000
1754.703683	107.500000
1756.525350	144.400000
1758.348398	125.900000
1760.169286	147.200000
1761.989785	104.200000
1763.811664	130.100000
1765.627844	120.900000
1767.447176	116.200000
1769.262581	122.600000
1771.081137	129.000000
1772.895767	132.100000
1774.710010	125.700000
1776.523867	126.800000
1778.337337	121.700000
1780.148653	137.200000
1781.961351	118.400000
1783.773663	125.400000
1785.582056	148.500000
1787.391831	125.800000
1789.197691	124.300000
1791.006696	119.700000
1792.811788	130.900000
1794.618261	122.800000
1796.424349	131.600000
1798.226528	144.500000
1800.031851	135.900000
1801.833264	119.900000
1803.636059	113.600000
1805.434947	102.400000
1807.235216	118.600000
1809.035103	102.000000
1810.832848	126.700000
1812.630213	113.200000
1814.427197	131.700000
1816.223802	119.500000
1818.018266	123.600000
1819.814111	124.000000
1821.604300	126.600000
1823.399386	128.400000
1825.188819	113.500000
1826.981390	124.300000
1828.771825	112.100000
1830.560125	134.500000
1832.351561	160.300000
1834.137352	117.000000
1835.924522	125.700000
1837.709560	115.500000
1839.497731	138.700000
1841.282018	121.200000
1843.064174	116.900000
1844.847710	132.600000
1846.629117	131.100000
1848.411902	129.500000
1850.190808	147.100000
1851.971092	118.300000
1853.749251	138.100000
1855.528787	114.500000
1857.306199	106.400000
1859.081488	128.600000
1860.858154	130.700000
1862.632698	123.700000
1864.408619	135.500000
1866.178921	143.000000
1867.952350	135.900000
1869.723659	122.900000
1871.494597	131.200000
1873.266913	110.800000
1875.033615	144.000000
1876.803442	119.900000
1878.569406	130.900000
1880.338494	115.600000
1882.103720	141.200000
1883.868578	126.600000
1885.634812	140.900000
1887.397189	125.900000
1889.159197	143.700000
1890.920839	125.300000
1892.682113	126.800000
1894.443021	119.700000
1896.203561	121.300000
1897.961993	116.200000
1899.720058	149.600000
1901.476016	128.200000
1903.233350	126.900000
1904.990319	110.200000
1906.745181	123.400000
1908.497939	122.700000
1910.250332	132.000000
1912.004102	123.000000
1913.755768	127.300000
1915.505331	136.800000
1917.256271	122.700000
1919.006847	128.300000
1920.753585	122.700000
1922.501698	123.000000
1924.247713	110.700000
1925.995102	139.000000
1927.740393	134.900000
1929.483588	124.500000
1931.228157	128.700000
1932.970630	127.700000
1934.712744	125.200000
1936.454497	118.500000
1938.195890	113.900000
1939.935190	132.400000
1941.674131	118.900000
1943.412713	127.700000
1945.149204	121.000000
1946.885336	132.500000
1948.622844	144.000000
1950.356529	119.300000
1952.091589	133.200000
1953.824560	131.900000
1955.557175	134.900000
1957.289433	119.700000
1959.021335	143.700000
1960.751152	124.800000
1962.478883	138.200000
1964.207989	113.600000
1965.936739	128.700000
1967.663407	113.700000
1969.389719	123.700000
1971.117406	129.300000
1972.839556	124.900000
1974.564807	122.900000
1976.286251	140.800000
1978.010795	121.100000
1979.733260	129.600000
1981.451921	133.900000
1983.173682	124.200000
1984.891640	119.300000
1986.610971	135.500000
1988.326503	119.600000
1990.046855	114.500000
1991.763409	118.000000
1993.476166	148.200000
1995.192019	137.600000
1996.905800	140.200000
1998.619231	107.000000
2000.330591	123.700000
2002.043323	113.200000
2003.752265	129.100000
2005.464299	125.200000
2007.170824	126.900000
2008.880442	113.900000
2010.587992	127.200000
2012.295195	115.300000
2014.000332	122.300000
2015.705123	120.700000
2017.411285	135.900000
2019.113664	130.600000
2020.817416	134.100000
2022.519105	123.400000
2024.220448	138.000000
2025.921447	132.900000
2027.620384	125.200000
2029.320693	121.200000
2031.017226	136.200000
2032.715131	111.400000
2034.410978	125.200000
2036.109910	120.700000
2037.803356	130.500000
2039.498173	129.500000
2041.192647	142.500000
2042.883354	124.800000
2044.577143	143.100000
2046.267167	136.700000
2047.958561	126.800000
2049.647901	134.500000
2051.338613	151.400000
2053.025561	128.000000
2054.712169	128.000000
2056.400148	113.200000
2058.084367	139.200000
2059.769956	124.600000
2061.455206	119.800000
2063.138408	121.900000
2064.822980	145.600000
2066.502088	123.700000
2068.185983	123.300000
2069.864416	126.700000
2071.545927	136.400000
2073.223686	111.800000
2074.901109	117.900000
2076.579901	121.600000
2078.256650	133.200000
2079.931358	122.000000
2081.607436	134.600000
2083.281472	116.900000
2084.955174	127.800000
2086.628540	121.900000
2088.299867	144.300000
2089.970860	105.700000
2091.641519	135.300000
2093.311844	118.300000
2094.981835	119.400000
2096.649790	130.100000
2098.317411	122.200000
2099.982999	112.400000
2101.649955	122.600000
2103.314878	111.800000
2104.979469	132.600000
2106.642028	122.400000
2108.305955	126.700000
2109.967851	137.000000
2111.629417	132.400000
2113.290651	132.900000
2114.949856	129.400000
2116.608732	132.800000
2118.267278	140.400000
2119.925493	120.400000
2121.579986	138.400000
2123.237543	118.000000
2124.894770	137.400000
2126.548277	135.200000
2128.203151	138.800000
2129.854306	129.100000
2131.508524	132.300000
2133.159024	105.300000
2134.810892	115.500000
2136.457351	115.500000
2138.108564	122.500000
2139.756065	110.100000
2141.404932	124.000000
2143.051780	125.100000
2144.698303	128.900000
2146.344500	114.500000
2147.986989	130.800000
2149.632535	108.700000
2151.274375	118.600000
2152.919272	119.900000
2154.560464	107.900000
2156.201332	110.300000
2157.841877	118.800000
2159.480409	118.500000
2161.120307	113.200000
2162.756505	112.500000
2164.394069	122.400000
2166.031311	111.600000
2167.666543	122.900000
2169.301453	111.400000
2170.936042	127.800000
2172.570310	97.300000
2174.200884	133.400000
2175.834510	117.300000
2177.464444	125.100000
2179.095743	117.500000
2180.725037	135.400000
2182.354012	125.400000
2183.982667	123.500000
2185.611003	97.900000
2187.237336	125.100000
2188.863351	122.400000
2190.487365	111.400000
2192.112744	127.000000
2193.736122	118.700000
2195.360865	108.100000
2196.981927	118.900000
2198.602672	108.800000
2200.224781	121.700000
2201.844893	119.300000
2203.463009	119.400000
2205.080809	124.100000
2206.698293	118.800000
2208.315463	128.500000
2209.932316	147.600000
2211.548855	106.800000
2213.163401	116.000000
2214.775954	111.200000
2216.389871	113.300000
2218.001797	103.800000
2219.615086	114.800000
2221.226385	123.600000
2222.835694	130.900000
2224.446366	104.400000
2226.055050	113.500000
2227.663422	120.200000
2229.269807	125.700000
2230.877554	120.200000
2232.483316	130.300000
2234.088766	107.600000
2235.692231	106.200000
2237.297059	100.700000
2238.899903	129.400000
2240.500764	115.700000
2242.102988	102.300000
2243.703230	124.800000
2245.304834	125.500000
2246.902785	109.300000
2248.502099	124.100000
2250.099433	116.500000
2251.696459	132.700000
2253.294846	117.700000
2254.889586	118.600000
2256.482348	129.000000
2258.076473	102.700000
2259.671959	103.100000
2261.263800	110.500000
2262.855335	106.000000
2264.448232	119.700000
2266.035819	111.600000
2267.628102	122.300000
2269.215079	113.000000
2270.805083	135.400000
2272.389783	105.700000
2273.979177	131.400000
2275.563268	121.000000
2277.148721	120.600000
2278.732205	121.500000
2280.318714	115.400000
2281.901590	104.100000
2283.484163	115.100000
2285.066432	110.100000
2286.645071	123.200000
2288.226735	115.900000
2289.804770	136.700000
2291.385828	94.600000
2292.963259	97.100000
2294.538727	99.600000
2296.117217	112.700000
2297.692083	101.000000
2299.266648	127.200000
2300.840912	111.200000
2302.414876	107.100000
2303.988540	128.800000
2305.561904	125.200000
2307.131649	107.300000
2308.701095	130.000000
2310.273559	114.500000
2311.840749	100.300000
2313.410956	107.200000
2314.977550	127.000000
2316.545503	115.200000
2318.111500	131.400000
2319.677200	113.800000
2321.242602	119.500000
2322.806051	113.100000
2324.370859	137.600000
2325.932059	155.700000
2327.496272	154.300000
2329.055225	134.200000
2330.617191	141.300000
2332.177207	151.100000
2333.736927	114.000000
2335.294699	115.400000
2336.852175	144.500000
2338.409357	99.500000
2339.964591	130.200000
2341.519532	139.900000
2343.074178	124.600000
2344.628531	117.200000
2346.182590	127.000000
2347.736356	97.500000
2349.288177	123.900000
2350.838055	105.400000
2352.390942	126.000000
2353.938585	105.100000
2355.489237	151.100000
2357.036297	122.200000
2358.584715	113.400000
2360.132842	122.300000
2361.677380	132.000000
2363.223276	116.500000
2364.767234	123.000000
2366.312548	110.700000
2367.854278	130.200000
2369.397366	109.200000
2370.938517	109.200000
2372.479379	116.200000
2374.019952	118.600000
2375.560236	122.700000
2377.100231	122.900000
2378.636647	152.300000
2380.176065	135.700000
2381.711906	126.600000
2383.249104	116.300000
2384.782726	111.900000
2386.319348	121.700000
2387.854040	118.300000
2389.386802	134.500000
2390.919277	128.300000
2392.449824	127.900000
2393.983369	101.100000
2395.511703	126.600000
2397.041393	124.000000
2398.570798	129.100000
2400.099918	114.200000
2401.628752	123.700000
2403.152382	121.300000
2404.680647	122.900000
2406.203710	120.900000
2407.731406	108.600000
2409.252263	111.200000
2410.777752	137.900000
2412.299682	118.400000
2413.822966	111.600000
2415.344330	111.600000
2416.863774	128.000000
2418.384573	131.100000
2419.903453	122.900000
2421.422052	123.300000
2422.938732	123.200000
2424.456768	128.100000
2425.974522	124.200000
2427.488724	118.500000
2429.002647	133.300000
2430.516289	129.000000
2432.031285	131.600000
2433.542734	129.300000
2435.055536	147.500000
2436.566426	138.100000
2438.077037	151.300000
2439.585736	150.900000
2441.097421	153.300000
2442.605563	142.400000
2444.113427	141.600000
2445.621012	151.100000
2447.125058	150.400000
2448.632088	150.800000
2450.137210	136.800000
2451.642055	125.800000
2453.144993	146.100000
2454.647655	130.800000
2456.150040	155.300000
2457.650520	121.300000
2459.152353	149.100000
2460.652281	124.000000
2462.151934	144.600000
2463.651312	139.500000
2465.148787	125.900000
2466.644360	134.900000
2468.142913	141.900000
2469.637938	134.200000
2471.134315	127.600000
2472.627166	117.700000
2474.121370	145.400000
2475.615300	113.000000
2477.105706	129.700000
2478.599090	132.500000
2480.090576	156.800000
2481.580165	120.100000
2483.069482	119.100000
2484.556903	133.300000
2486.047300	96.700000
2487.534179	122.900000
2489.022409	126.300000
2490.507122	116.700000
2491.991565	109.300000
2493.477360	133.000000
2494.961263	121.900000
2496.446516	105.100000
2497.926636	123.100000
2499.409729	116.600000
2500.890931	121.000000
2502.371864	129.400000
2503.850908	139.500000
2505.329683	113.300000
2506.808190	128.000000
2508.286428	112.300000
2509.764399	127.000000
2511.238864	124.400000
2512.716299	112.000000
2514.190229	130.700000
2515.665511	128.000000
2517.140525	109.000000
2518.612038	135.600000
2520.084902	125.100000
2521.555883	127.400000
2523.028214	128.300000
2524.495431	127.400000
2525.965615	106.000000
2527.433918	136.600000
2528.901956	125.100000
2530.369728	131.300000
2531.837236	118.400000
2533.304480	129.100000
2534.768231	124.000000
2536.233332	136.500000
2537.696556	115.800000
2539.161129	133.600000
2540.622214	138.500000
2542.084648	124.700000
2543.546819	122.100000
2545.005503	131.100000
2546.468760	127.800000
2547.926920	137.000000
2549.386430	117.500000
2550.840845	132.300000
2552.299831	125.200000
2553.756945	116.200000
2555.212187	126.200000
2556.667169	133.900000
2558.120281	123.500000
2559.574742	128.300000
2561.027334	109.200000
2562.479666	132.100000
2563.930130	114.300000
2565.383551	124.200000
2566.831889	121.200000
2568.283182	135.100000
2569.732610	125.200000
2571.178565	119.000000
2572.627475	121.500000
2574.072915	129.700000
2575.519702	117.800000
2576.964626	128.000000
2578.409293	133.000000
2579.855307	132.700000
2581.297855	122.900000
2582.741749	140.900000
2584.182179	122.900000
2585.623957	134.500000
2587.063875	117.800000
2588.505140	122.300000
2589.942943	129.200000
2591.383696	145.500000
2592.819387	133.600000
2594.258026	149.400000
2595.694809	138.300000
2597.129736	142.800000
2598.567610	127.200000
2600.000427	116.200000
2601.434591	133.900000
2602.866901	130.200000
2604.300557	122.900000
2605.732360	142.900000
2607.163909	125.500000
2608.595205	126.900000
2610.024650	132.400000
2611.453842	130.300000
2612.881183	132.000000
2614.309871	130.700000
2615.738306	144.500000
2617.163295	144.800000
2618.589629	136.800000
2620.014116	143.400000
2621.439948	139.000000
2622.862336	135.100000
2624.286069	147.000000
2625.707957	146.600000
2627.129594	162.700000
2628.549387	141.200000
2629.970525	141.100000
2631.391413	155.900000
2632.808862	155.200000
2634.229251	150.600000
2635.646203	141.200000
2637.062907	155.800000
2638.479362	150.600000
2639.895569	169.200000
2641.311528	148.200000
2642.725646	168.600000
2644.139516	146.600000
2645.551547	184.500000
2646.964923	154.300000
2648.374869	179.200000
2649.787751	189.000000
2651.197204	195.700000
2652.606411	188.500000
2654.013782	189.900000
2655.424087	197.500000
2656.832556	220.400000
2658.239191	196.100000
2659.645580	215.000000
2661.050135	202.800000
2662.456034	215.400000
2663.860100	225.100000
2665.263921	240.500000
2666.667498	239.000000
2668.069244	240.800000
2669.472333	249.900000
2670.872004	273.400000
2672.273019	264.500000
2673.670618	288.600000
2675.071146	288.900000
2676.468260	269.100000
2677.866717	281.600000
2679.263347	276.000000
2680.659734	289.800000
2682.055879	298.200000
2683.450198	285.800000
2684.845860	296.500000
2686.238113	297.300000
2687.631708	310.700000
2689.023479	283.500000
2690.416593	309.900000
2691.807883	304.900000
2693.197350	306.700000
2694.586577	290.000000
2695.975565	319.100000
2697.365894	309.300000
2698.751240	304.100000
2700.139509	313.900000
2701.525958	338.000000
2702.912168	329.200000
2704.298139	349.900000
2705.680712	361.800000
2707.064627	367.400000
2708.448303	373.500000
2709.831742	405.700000
2711.211785	419.000000
2712.593170	420.600000
2713.972740	453.100000
2715.353650	458.100000
2716.732746	462.400000
2718.110028	469.700000
2719.488651	459.100000
2720.865460	437.800000
2722.242034	437.300000
2723.618372	425.600000
2724.992898	419.400000
2726.368765	387.400000
2727.741246	388.100000
2729.116642	367.900000
2730.487078	362.900000
2731.858854	325.700000
2733.230397	321.400000
2734.600131	324.800000
2735.971205	308.900000
2737.340472	312.200000
2738.709505	281.900000
2740.076732	273.700000
2741.443725	265.900000
2742.810486	259.700000
2744.177014	233.100000
2745.541738	252.500000
2746.906229	218.500000
2748.270489	221.600000
2749.634516	188.300000
2750.998311	193.800000
2752.358734	172.300000
2753.722066	175.100000
2755.080456	164.900000
2756.441756	152.700000
2757.799686	143.200000
2759.160524	168.500000
2760.519562	132.400000
2761.875233	136.600000
2763.233811	149.400000
2764.589022	149.300000
2765.944004	126.300000
2767.297189	140.400000
2768.653281	135.200000
2770.006009	135.000000
2771.358509	129.600000
2772.710780	129.600000
2774.064389	121.500000
2775.414638	123.200000
2776.763092	124.500000
2778.114451	134.300000
2779.462452	121.900000
2780.811790	104.700000
2782.159336	118.600000
2783.506656	121.600000
2784.853748	117.600000
2786.199050	119.000000
2787.544126	113.000000
2788.888976	106.800000
2790.233600	104.800000
2791.574872	130.000000
2792.917481	100.200000
2794.259866	119.300000
2795.602025	102.400000
2796.940835	109.800000
2798.282545	109.600000
2799.620906	124.700000
2800.960605	119.300000
2802.298519	118.400000
2803.634647	115.000000
2804.970553	123.400000
2806.307796	115.000000
2807.643255	121.000000
2808.978490	98.000000
2810.311944	124.000000
2811.646734	120.200000
2812.978184	104.100000
2814.312529	114.600000
2815.641975	106.800000
2816.972759	99.900000
2818.303322	120.800000
2819.632105	105.700000
2820.962224	111.000000
2822.290565	105.300000
2823.618685	125.700000
2824.945027	98.700000
2826.272705	118.200000
2827.597051	114.400000
2828.922733	112.300000
2830.246639	107.200000
2831.570325	98.800000
2832.895347	98.600000
2834.217040	100.900000
2835.538514	90.900000
2836.859768	99.000000
2838.180805	98.700000
2839.500068	102.200000
2840.820667	96.500000
2842.139494	105.100000
2843.458104	99.900000
2844.774942	104.800000
2846.091563	98.900000
2847.407967	108.200000
2848.722601	113.200000
2850.038570	119.900000
2851.351220	115.000000
2852.665204	104.400000
2853.978972	97.600000
2855.292523	103.500000
2856.604308	107.000000
2857.914326	88.600000
2859.225679	85.300000
2860.533717	87.000000
2861.843089	87.200000
2863.152246	107.700000
2864.461189	98.600000
2865.768367	102.800000
2867.073783	84.500000
2868.380532	132.100000
2869.685520	83.200000
2870.990293	111.600000
2872.293306	104.600000
2873.599199	115.100000
2874.900238	106.300000
2876.202610	95.100000
2877.503224	94.500000
2878.805170	117.400000
2880.106904	98.300000
2881.405334	96.400000
2882.705097	102.000000
2884.003103	118.500000
2885.300897	85.900000
2886.596935	93.600000
2887.894305	97.700000
2889.189921	104.000000
2890.485325	92.300000
2891.780518	107.400000
2893.072414	89.500000
2894.367185	93.800000
2895.658661	84.700000
2896.951469	81.900000
2898.244067	85.300000
2899.533370	95.700000
2900.824007	85.600000
2902.112892	103.300000
2903.403109	89.800000
2904.690035	93.900000
2905.978293	89.700000
2907.264802	100.300000
2908.551102	89.300000
2909.837194	92.900000
2911.121538	114.500000
2912.408754	100.600000
2913.691143	93.400000
2914.974864	105.000000
2916.256838	84.700000
2917.538606	116.100000
2918.818628	97.400000
2920.101521	94.900000
2921.382667	97.000000
2922.660532	109.300000
2923.941266	83.000000
2925.218720	109.800000
2926.495967	104.600000
2927.771472	99.600000
2929.049845	78.400000
2930.323404	104.200000
2931.599830	101.400000
2932.874515	107.700000
2934.147459	93.500000
2935.421735	95.700000
2936.694271	102.500000
2937.966602	99.600000
2939.235661	98.100000
2940.507585	89.700000
2941.777771	108.800000
2943.047753	94.500000
2944.317532	107.000000
2945.585575	98.500000
2946.851881	105.700000
2948.117985	104.800000
2949.385420	78.600000
2950.651119	92.900000
2951.916617	93.800000
2953.181912	107.200000
2954.443942	75.800000
2955.707302	115.800000
2956.970461	85.300000
2958.231888	113.400000
2959.494644	99.300000
2960.755668	101.500000
2962.014962	86.400000
2963.274055	97.500000
2964.532949	93.700000
2965.791642	76.900000
2967.050134	102.500000
2968.306898	94.600000
2969.563463	73.700000
2970.818299	89.400000
2972.074465	100.600000
2973.327376	85.700000
2974.581615	89.900000
2975.835656	91.000000
2977.087971	85.000000
2978.340088	69.400000
2979.590480	93.500000
2980.843727	105.600000
2982.092197	97.000000
2983.343522	117.200000
2984.591597	87.000000
2985.839475	85.600000
2987.087157	85.600000
2988.334641	88.200000
2989.580404	92.500000
2990.825971	112.000000
2992.072865	98.300000
2993.316515	94.300000
2994.561492	84.300000
2995.803227	92.100000
2997.047813	92.900000
2998.290680	106.100000
2999.530306	94.300000
3000.772782	95.400000
3002.012018	80.800000
3003.252582	107.200000
3004.491429	83.600000
3005.730082	109.500000
3006.967019	97.800000
3008.205284	102.200000
3009.441833	86.700000
3010.678189	86.900000
3011.914351	75.100000
3013.148799	91.400000
3014.383054	82.300000
3015.617117	92.000000
3016.849466	92.200000
3018.080104	91.800000
3019.313588	93.400000
3020.545361	103.200000
3021.775422	79.400000
3023.005292	99.600000
3024.233452	82.700000
3025.462939	90.000000
3026.690716	78.500000
3027.918302	105.300000
3029.147214	79.200000
3030.371384	100.100000
3031.598397	84.900000
3032.822187	91.900000
3034.047302	80.900000
3035.270712	89.200000
3036.493931	82.900000
3037.715445	93.100000
3038.939800	92.800000
3040.159420	92.100000
3041.380366	73.100000
3042.601122	92.100000
3043.820176	80.500000
3045.040554	101.500000
3046.257716	79.300000
3047.476203	94.600000
3048.692989	81.300000
3049.909586	92.000000
3051.125996	59.400000
3052.339192	92.200000
3053.555226	72.400000
3054.768048	86.200000
3055.983707	86.900000
3057.194644	110.400000
3058.406905	80.100000
3059.618979	101.100000
3060.830867	93.300000
3062.041058	79.300000
3063.251062	84.100000
3064.460880	96.000000
3065.669002	65.700000
3066.876939	93.600000
3068.083180	91.500000
3069.290746	99.900000
3070.496617	98.650000
3071.702303	97.400000
3072.907805	81.700000
3074.111613	91.300000
3075.316745	88.900000
3076.520184	96.100000
3077.721932	89.100000
3078.923495	90.700000
3080.124875	99.900000
3081.326071	89.600000
3082.525577	73.800000
3083.724900	87.400000
3084.925546	90.800000
3086.124502	91.400000
3087.320264	71.600000
3088.518854	88.000000
3089.714251	85.900000
3090.910972	94.100000
3092.104500	77.300000
3093.300856	91.300000
3094.495525	84.600000
3095.687004	85.800000
3096.882815	80.000000
3098.073931	92.100000
3099.266371	72.900000
3100.455622	100.200000
3101.647700	77.000000
3102.838094	85.400000
3104.025302	81.500000
3105.213832	92.200000
3106.403685	92.100000
3107.590353	84.500000
3108.776842	89.200000
3109.963152	79.500000
3111.150783	83.900000
3112.335232	80.400000
3113.518002	78.300000
3114.703594	91.000000
3115.887507	82.600000
3117.069740	82.700000
3118.251796	89.600000
3119.433673	67.000000
3120.615372	81.200000
3121.795394	98.300000
3122.973739	80.200000
3124.154904	101.300000
3125.332894	81.400000
3126.510707	96.800000
3127.688343	67.200000
3128.864304	84.300000
3130.040089	66.000000
3131.217194	102.400000
3132.392626	97.800000
3133.566384	89.800000
3134.738469	73.700000
3135.911876	70.600000
3137.085106	71.300000
3138.256665	99.400000
3139.429544	74.500000
3140.599256	79.900000
3141.770289	94.900000
3142.939651	71.200000
3144.107344	83.300000
3145.277852	109.600000
3146.443702	93.800000
3147.613860	89.700000
3148.779361	70.700000
3149.944689	94.700000
3151.109843	78.400000
3152.274824	85.400000
3153.441124	64.400000
3154.602771	91.100000
3155.765739	89.300000
3156.928534	94.600000
3158.091156	69.800000
3159.252112	76.800000
3160.412897	86.200000
3161.573509	77.000000
3162.732457	60.600000
3163.891234	77.900000
3165.049838	81.800000
3166.208271	72.800000
3167.366533	92.400000
3168.523132	93.700000
3169.678070	69.500000
3170.834327	72.100000
3171.988923	80.300000
3173.143349	94.000000
3174.296115	79.600000
3175.448710	71.500000
3176.601136	79.200000
3177.753391	85.500000
3178.905477	83.000000
3180.054416	94.900000
3181.206162	65.000000
3182.356251	78.000000
3183.504683	72.200000
3184.652945	102.100000
3185.801039	65.700000
3186.948964	87.800000
3188.095233	73.900000
3189.241334	99.300000
3190.385781	63.300000
3191.530060	67.800000
3192.674170	64.800000
3193.819599	82.500000
3194.961889	70.800000
3196.104012	81.900000
3197.245967	95.100000
3198.387755	90.300000
3199.529376	74.200000
3200.667862	101.000000
3201.807665	79.100000
3202.948785	78.900000
3204.086772	74.000000
3205.223108	83.300000
3206.359280	75.200000
3207.496768	77.800000
3208.632608	62.800000
3209.769765	81.300000
3210.902309	69.600000
3212.039134	74.000000
3213.171349	66.100000
3214.304880	83.200000
3215.438246	78.600000
3216.568486	70.700000
3217.701523	72.000000
3218.831434	66.000000
3219.962661	82.500000
3221.090764	77.300000
3222.221663	74.300000
3223.350918	103.500000
3224.478530	62.600000
3225.603019	74.500000
3226.731784	100.100000
3227.857427	88.900000
3228.982907	76.700000
3230.106746	85.400000
3231.233380	72.600000
3232.355416	88.600000
3233.478768	80.000000
3234.601958	103.500000
3235.724985	86.500000
3236.846374	97.400000
3237.967600	88.700000
3239.087188	90.800000
3240.206615	94.500000
3241.324405	96.200000
3242.444986	96.700000
3243.562454	120.400000
3244.679761	107.300000
3245.796908	119.700000
3246.912418	114.600000
3248.029244	110.600000
3249.142960	91.600000
3250.259465	111.000000
3251.374335	96.900000
3252.486097	83.900000
3253.597700	80.900000
3254.710618	71.900000
3255.823376	82.200000
3256.933028	100.500000
3258.043995	64.500000
3259.154803	90.100000
3260.263979	61.600000
3261.371524	76.200000
3262.480384	72.500000
3263.589085	61.700000
3264.694684	62.200000
3265.801598	81.900000
3266.906882	49.000000
3268.013480	83.500000
3269.116978	42.000000
3270.221790	83.200000
3271.326445	69.100000
3272.428002	72.900000
3273.529402	75.600000
3274.632116	91.800000
3275.734674	68.800000
3276.834135	72.900000
3277.936380	50.800000
3279.035529	69.200000
3280.133053	68.200000
3281.230423	83.600000
3282.330574	73.500000
3283.427633	60.100000
3284.524536	57.200000
3285.621284	76.500000
3286.713473	78.100000
3287.809912	81.500000
3288.904728	62.900000
3289.999390	71.400000
3291.092429	74.600000
3292.185315	61.900000
3293.276580	86.400000
3294.369158	83.600000
3295.460116	76.500000
3296.549454	75.300000
3297.638639	78.300000
3298.729136	89.300000
3299.816550	76.600000
3300.903810	87.900000
3301.992383	80.700000
3303.080803	89.000000
3304.164677	80.000000
3305.252792	90.200000
3306.337825	67.200000
3307.421243	79.700000
3308.505973	68.700000
3309.589087	98.400000
3310.673514	53.500000
3311.754862	75.900000
3312.837522	81.700000
3313.918567	66.900000
3314.999462	54.400000
3316.078744	89.000000
3317.157875	77.100000
3318.238318	69.000000
3319.315686	69.100000
3320.394366	65.900000
3321.471434	83.800000
3322.548352	96.400000
3323.623660	64.000000
3324.698818	67.400000
3325.775287	75.300000
3326.848686	64.800000
3327.921935	53.800000
3328.996496	68.300000
3330.069448	64.100000
3331.140791	81.900000
3332.213445	82.600000
3333.283032	75.400000
3334.353931	52.700000
3335.423222	66.800000
3336.493823	68.600000
3337.562819	80.400000
3338.630208	51.800000
3339.695992	69.500000
3340.766002	57.500000
3341.832949	55.000000
3342.896834	70.400000
3343.963486	72.600000
3345.028535	70.100000
3346.091980	71.500000
3347.155279	73.400000
3348.218431	88.000000
3349.281437	66.600000
3350.344297	64.600000
3351.405554	78.900000
3352.463755	58.600000
3353.526177	80.600000
3354.585543	72.500000
3355.644763	71.200000
3356.705292	75.300000
3357.761313	41.700000
3358.820097	79.600000
3359.874374	61.500000
3360.931415	56.900000
3361.986857	69.300000
3363.043609	74.900000
3364.098762	70.800000
3365.152318	70.800000
3366.204277	75.800000
3367.258999	59.300000
3368.310671	52.400000
3369.362200	78.500000
3370.415037	64.900000
3371.464827	77.300000
3372.515926	59.200000
3373.563978	81.800000
3374.614791	62.200000
3375.662558	77.400000
3376.710183	65.300000
3377.757666	55.000000
3378.803556	52.300000
3379.850754	83.300000
3380.894910	41.900000
3381.941824	67.000000
3382.987146	66.100000
3384.029427	81.800000
3385.071567	59.000000
3386.115016	86.000000
3387.158323	57.200000
3388.200040	77.300000
3389.241617	57.800000
3390.283052	78.300000
3391.322899	57.100000
3392.361157	59.500000
3393.400723	59.700000
3394.440149	67.900000
3395.477987	59.200000
3396.514238	66.500000
3397.550350	52.000000
3398.587768	78.000000
3399.622154	53.600000
3400.657848	57.600000
3401.693402	87.800000
3402.725925	79.200000
3403.761200	63.800000
3404.793446	73.900000
3405.825553	67.100000
3406.856076	54.100000
3407.887906	61.700000
3408.919598	73.300000
3409.948262	70.900000
3410.976789	55.900000
3412.006622	44.900000
3413.036318	80.900000
3414.062988	74.900000
3415.090964	69.500000
3416.115917	51.900000
3417.143619	70.000000
3418.168297	78.400000
3419.194282	59.400000
3420.218688	55.800000
3421.242957	62.800000
3422.265647	72.400000
3423.288201	63.200000
3424.312061	54.300000
3425.332901	74.400000
3426.353605	56.700000
3427.375615	72.100000
3428.394607	73.600000
3429.413464	73.700000
3430.433627	65.700000
3431.450773	51.000000
