-116.707459	39.333333
-114.037859	20.000000
-111.371194	37.000000
-108.705281	29.666667
-106.042300	45.666667
-103.377890	34.000000
-100.716410	36.333333
-98.053501	19.333333
-95.395698	25.000000
-92.736466	21.000000
-90.077982	7.666667
-87.422422	13.000000
-84.765434	26.666667
-82.113544	30.000000
-79.460224	-1.000000
-76.809823	19.000000
-74.157993	9.666667
-71.511254	15.000000
-68.863086	34.333333
-66.215660	21.333333
-63.571148	22.000000
-60.925208	18.000000
-58.284349	51.666667
-55.642061	66.000000
-53.002682	31.000000
-50.361873	59.000000
-47.721805	38.333333
-45.086809	45.000000
-42.450385	38.666667
-39.816863	58.333333
-37.181913	57.000000
-34.552028	52.000000
-31.918551	61.000000
-29.290136	68.666667
-26.662455	73.000000
-24.033345	65.000000
-21.409292	104.666667
-18.781650	158.333333
-16.159061	141.666667
-13.537204	238.000000
-10.916077	416.000000
-8.295680	1010.333333
-5.678172	3189.666667
-3.059235	10311.666667
-0.443183	31805.000000
2.172140	55799.333333
4.786736	29689.666667
7.398449	4012.000000
10.011591	471.000000
12.619699	223.333333
15.231389	148.333333
17.838048	90.000000
20.446135	123.333333
23.053498	94.666667
25.655836	88.666667
28.261752	73.000000
30.862646	41.000000
33.464968	54.000000
36.062273	47.333333
38.663153	49.333333
41.259018	47.333333
43.856312	37.333333
46.452886	40.333333
49.044451	-2.666667
51.637444	32.333333
54.227576	37.666667
56.819136	38.666667
59.407836	-7.666667
61.997963	82.666667
64.583091	52.333333
67.169647	37.000000
69.755489	34.333333
72.338477	65.000000
74.922891	61.000000
77.500177	28.000000
80.081029	27.666667
82.659032	82.000000
85.236325	16.333333
87.815044	51.666667
90.388781	18.000000
92.963946	43.666667
95.536267	45.000000
98.107880	10.000000
100.676653	12.666667
103.246853	42.333333
105.814215	5.333333
108.383002	36.333333
110.948953	16.666667
113.512069	58.666667
116.078741	36.000000
118.636192	33.666667
121.199328	44.333333
123.757504	80.666667
126.319235	89.666667
128.876009	114.666667
131.434210	122.000000
133.987457	221.666667
136.540007	296.000000
139.096107	419.000000
141.647259	506.333333
144.197714	636.666667
146.747471	686.666667
149.294409	749.333333
151.840652	830.666667
154.388320	833.333333
156.935292	879.000000
159.477329	917.333333
162.018672	870.666667
164.559322	867.000000
167.101398	823.666667
169.640662	826.666667
172.177118	808.333333
174.712882	841.666667
177.250072	835.666667
179.786571	852.666667
182.320264	826.000000
184.851153	825.666667
187.381355	784.666667
189.912981	797.333333
192.441806	869.333333
194.967832	811.666667
197.493172	856.000000
200.019937	828.000000
202.543906	871.000000
205.067190	792.333333
207.589789	840.666667
210.109595	812.666667
212.628718	854.333333
215.147158	840.000000
217.667022	861.333333
220.179885	862.666667
222.696279	865.000000
225.211991	820.666667
227.722813	814.000000
230.235060	814.666667
232.744525	803.000000
235.253311	843.666667
237.761418	832.333333
240.270950	822.666667
242.775601	865.333333
245.279576	876.000000
247.784975	862.333333
250.285499	929.666667
252.789547	951.333333
255.286623	1095.333333
257.787223	1168.666667
260.285051	1486.333333
262.782206	1877.333333
265.278688	2482.333333
267.770307	2719.333333
270.265446	2410.000000
272.757818	1806.666667
275.249520	1457.000000
277.738459	1214.333333
280.228822	1090.666667
282.716422	1094.000000
285.201263	1111.000000
287.689619	1077.000000
290.171035	1094.333333
292.655965	1046.333333
295.136050	909.000000
297.619647	841.666667
300.098401	742.333333
302.578579	805.666667
305.056004	781.000000
307.532766	742.666667
310.008865	780.333333
312.482215	798.333333
314.954903	846.333333
317.426930	885.333333
319.898296	983.000000
322.366917	999.666667
324.834880	982.000000
327.304264	981.666667
329.768826	922.333333
332.236892	810.333333
334.700138	866.666667
337.162726	777.000000
339.624658	825.333333
342.085933	815.666667
344.544474	836.333333
347.004437	791.333333
349.461667	792.000000
351.918243	805.333333
354.374165	791.333333
356.827357	772.000000
359.281972	784.666667
361.731785	763.000000
364.185094	797.333333
366.633605	767.333333
369.081464	830.333333
371.530746	813.000000
373.975234	769.333333
376.421144	771.333333
378.866404	776.000000
381.308946	711.333333
383.750840	727.333333
386.192087	706.333333
388.630618	797.000000
391.070571	740.666667
393.507810	743.000000
395.942337	703.000000
398.380352	734.000000
400.813590	734.000000
403.248249	729.666667
405.678136	701.000000
408.111508	724.666667
410.540110	732.000000
412.968070	700.000000
415.397452	748.333333
417.822068	748.666667
420.248106	778.000000
422.673503	781.333333
425.098260	763.666667
427.518259	718.666667
429.939679	704.333333
432.358402	752.333333
434.778546	730.000000
437.195995	770.666667
439.614864	725.000000
442.031040	741.666667
444.442468	786.666667
446.857374	778.000000
449.269589	758.000000
451.681170	710.000000
454.092117	769.666667
456.500378	759.333333
458.908006	697.666667
461.315002	768.666667
463.721367	692.333333
466.125049	692.333333
468.528101	648.333333
470.930523	700.666667
473.332315	637.333333
475.731430	685.000000
478.131964	679.000000
480.531869	682.000000
482.927051	666.333333
485.325700	730.000000
487.719629	732.666667
490.112932	775.666667
492.505609	715.333333
494.897661	731.000000
497.291131	712.666667
499.679889	699.666667
502.065981	653.666667
504.453493	662.666667
506.840382	619.000000
509.224607	595.333333
511.610250	547.000000
513.993232	609.000000
516.373553	532.333333
518.755293	514.666667
521.134374	529.666667
523.514874	533.000000
525.892716	525.000000
528.267903	557.333333
530.642472	571.666667
533.018459	550.666667
535.391794	528.666667
537.766546	567.000000
540.136613	516.666667
542.506064	510.666667
544.876933	437.333333
547.243122	425.666667
549.610729	457.000000
551.975690	410.333333
554.340038	458.000000
556.703773	438.000000
559.068926	428.000000
561.429407	457.666667
563.791306	435.000000
566.150564	458.000000
568.507185	461.000000
570.867250	458.333333
573.220624	379.333333
575.577443	423.333333
577.931627	440.333333
580.285202	445.666667
582.638170	408.000000
584.988505	419.666667
587.340258	440.666667
589.685334	427.333333
592.035874	442.000000
594.379740	402.000000
596.729068	399.000000
599.073747	419.000000
601.415802	417.000000
603.759274	405.666667
606.100123	421.000000
608.440370	428.333333
610.777996	385.666667
613.119057	389.000000
615.455480	386.333333
617.793320	374.666667
620.128543	365.333333
622.461150	410.666667
624.795173	373.333333
627.126582	382.333333
629.457393	397.333333
631.787607	379.000000
634.117222	404.666667
636.442214	366.000000
638.772648	377.000000
641.098461	390.000000
643.421666	356.333333
645.746288	368.000000
648.068304	351.666667
650.389726	353.000000
652.708546	356.333333
655.028781	363.333333
657.348423	384.000000
659.665464	404.666667
661.981913	364.000000
664.295764	372.000000
666.611031	368.666667
668.923701	357.666667
671.237786	353.666667
673.547271	347.000000
675.858172	379.333333
678.166480	369.000000
680.474200	329.333333
682.783334	340.333333
685.087876	320.333333
687.391832	387.333333
689.695202	312.000000
691.999986	354.000000
694.300184	349.000000
696.601796	318.333333
698.902823	340.333333
701.199269	338.000000
703.497130	310.333333
705.794407	291.000000
708.091101	291.000000
710.383219	313.000000
712.678748	323.333333
714.969703	316.666667
717.262073	296.000000
719.551868	338.333333
721.841082	325.000000
724.129717	331.666667
726.415779	288.333333
728.703256	352.666667
730.988161	320.333333
733.272489	303.000000
735.554248	322.000000
737.837421	311.333333
740.120017	307.000000
742.398057	307.000000
744.677512	314.333333
746.956390	277.000000
749.234694	308.333333
751.508448	347.000000
753.783615	339.333333
756.058209	328.000000
758.330244	307.666667
760.603692	284.666667
762.874582	333.666667
765.142916	307.000000
767.412663	278.333333
769.679856	292.333333
771.946478	363.000000
774.212530	295.666667
776.476031	266.666667
778.740945	318.333333
781.005289	303.333333
783.265104	304.000000
785.526331	325.333333
787.786991	352.333333
790.045105	330.666667
792.300674	320.333333
794.559634	343.666667
796.812095	316.000000
799.069922	282.666667
801.323231	350.666667
803.574000	303.000000
805.826181	303.666667
808.075823	272.000000
810.326878	314.000000
812.573421	277.000000
814.821376	268.666667
817.066797	319.000000
819.313629	300.666667
821.559900	242.000000
823.801666	287.333333
826.046816	259.000000
828.285493	300.000000
830.527552	297.666667
832.765113	306.000000
835.004086	300.333333
837.240532	301.666667
839.478389	270.000000
841.713721	268.333333
843.946530	230.000000
846.180750	277.333333
848.412447	229.666667
850.643590	277.000000
852.874178	255.666667
855.104212	294.333333
857.333692	298.666667
859.558690	279.666667
861.787063	239.333333
864.010956	284.666667
866.236261	249.666667
868.457090	269.666667
870.681291	228.666667
872.901019	233.000000
875.122157	219.666667
877.342745	263.333333
879.560824	245.666667
881.780312	255.000000
883.995334	259.666667
886.209808	226.666667
888.423735	270.666667
890.637115	273.333333
892.849947	289.666667
895.062233	265.333333
897.272016	220.000000
899.481254	290.333333
901.689947	241.666667
903.896141	288.000000
906.103744	264.333333
908.308849	241.333333
910.513411	286.333333
912.715478	252.000000
914.918954	232.000000
917.119936	248.333333
919.320376	263.333333
921.522225	256.666667
923.717683	239.333333
925.916500	239.333333
928.110878	276.000000
930.308614	260.000000
932.501914	274.333333
934.696623	223.666667
936.888846	239.666667
939.080530	295.666667
941.271677	273.666667
943.460341	286.000000
945.648469	250.666667
947.834116	286.000000
950.023115	283.000000
952.207691	285.333333
954.391732	268.000000
956.579123	275.000000
958.758210	292.333333
960.940648	323.666667
963.122552	331.333333
965.301981	287.333333
967.478938	332.000000
969.657303	300.000000
971.837075	303.666667
974.010498	308.666667
976.187267	329.333333
978.359629	339.333333
980.533399	353.666667
982.702765	331.000000
984.875475	319.666667
987.045720	352.000000
989.215436	342.666667
991.384623	371.666667
993.549413	331.666667
995.717544	328.333333
997.881281	313.000000
1000.046424	362.666667
1002.209108	352.666667
1004.371267	333.333333
1006.530969	378.333333
1008.690146	389.666667
1010.850730	338.333333
1013.008859	340.333333
1015.166465	362.333333
1017.323547	371.333333
1019.480105	387.666667
1021.632284	394.666667
1023.785870	388.666667
1025.938934	393.000000
1028.089549	391.666667
1030.241571	405.666667
1032.389219	411.666667
1034.540199	438.333333
1036.686808	397.000000
1038.832898	388.666667
1040.978470	399.000000
1043.125447	449.000000
1045.266135	419.333333
1047.410153	385.666667
1049.551730	409.000000
1051.692791	458.333333
1053.835256	435.000000
1055.971442	429.000000
1058.110953	413.000000
1060.246110	444.000000
1062.384591	422.000000
1064.518718	407.666667
1066.652332	418.000000
1068.787351	428.333333
1070.918020	394.666667
1073.050094	402.000000
1075.179739	398.333333
1077.308872	389.000000
1079.437493	424.666667
1081.565603	394.000000
1083.691287	421.333333
1085.816461	413.000000
1087.943039	378.000000
1090.065279	376.000000
1092.188924	357.333333
1094.308234	330.666667
1096.432774	358.000000
1098.551068	347.666667
1100.670767	366.000000
1102.788047	358.666667
1104.904821	339.333333
1107.021088	363.000000
1109.134939	331.000000
1111.250195	344.666667
1113.361127	307.333333
1115.475372	310.333333
1117.585296	341.666667
1119.696624	296.666667
1121.807447	332.666667
1123.913954	317.666667
1126.023771	336.000000
1128.129273	307.666667
1130.236178	308.333333
1132.336868	338.333333
1134.442770	310.666667
1136.544363	277.333333
1138.647359	303.000000
1140.749854	316.000000
1142.846142	280.666667
1144.947637	291.666667
1147.044830	299.333333
1149.141525	288.666667
1151.237721	301.000000
1153.333420	287.666667
1155.428620	301.000000
1157.521424	278.666667
1159.615631	313.666667
1161.703646	279.333333
1163.796859	299.666667
1165.883884	308.666667
1167.974208	321.000000
1170.060244	290.000000
1172.149579	302.000000
1174.232732	282.333333
1176.317287	300.000000
1178.403244	301.000000
1180.484919	289.000000
1182.567996	271.666667
1184.648687	296.000000
1186.728886	281.333333
1188.808594	311.333333
1190.887811	260.000000
1192.964646	280.666667
1195.039100	303.333333
1197.116845	280.666667
1199.190321	285.666667
1201.265197	271.000000
1203.335806	242.333333
1205.407816	264.000000
1207.477451	288.333333
1209.548486	288.333333
1211.619033	279.666667
1213.685319	259.666667
1215.753006	266.333333
1217.818321	259.333333
1219.885036	260.000000
1221.947495	262.000000
1224.013239	252.333333
1226.074729	271.333333
1228.137620	270.333333
1230.198143	273.000000
1232.258182	263.000000
1234.317739	252.333333
1236.374930	230.000000
1238.431640	290.000000
1240.485986	255.333333
1242.543614	248.666667
1244.598879	273.000000
1246.649903	260.333333
1248.702327	255.666667
1250.754271	206.333333
1252.803857	254.666667
1254.852964	287.333333
1256.901593	221.000000
1258.949743	221.333333
1260.997414	263.333333
1263.040855	246.333333
1265.087572	269.666667
1267.131935	268.333333
1269.175822	280.333333
1271.217357	254.000000
1273.256543	247.666667
1275.299002	217.333333
1277.337238	264.333333
1279.376873	248.666667
1281.416033	255.000000
1283.450974	237.000000
1285.487314	263.000000
1287.521310	238.000000
1289.556703	259.000000
1291.587884	218.333333
1293.620462	253.666667
1295.652569	258.000000
1297.682335	241.000000
1299.713498	251.000000
1301.740455	246.666667
1303.768809	238.666667
1305.792958	260.666667
1307.820373	254.666667
1309.843585	238.333333
1311.868195	246.333333
1313.890471	262.666667
1315.914144	241.000000
1317.935484	267.333333
1319.956356	259.000000
1321.976761	219.000000
1323.992973	248.333333
1326.010582	221.000000
1328.025863	224.000000
1330.044403	268.333333
1332.058754	251.666667
1334.070779	220.000000
1336.086061	268.666667
1338.097158	237.666667
1340.109652	235.000000
1342.117963	226.000000
1344.129529	234.000000
1346.135057	254.000000
1348.143840	229.000000
1350.148445	230.333333
1352.156304	237.333333
1354.163701	249.666667
1356.165067	245.000000
1358.167829	270.000000
1360.170132	226.000000
1362.171975	251.000000
1364.173358	230.333333
1366.172428	257.333333
1368.171039	260.333333
1370.169192	236.666667
1372.166886	285.000000
1374.160418	244.000000
1376.155345	229.333333
1378.149816	278.000000
1380.143830	212.333333
1382.135537	232.000000
1384.126789	279.000000
1386.115735	256.666667
1388.106076	255.666667
1390.095962	229.666667
1392.083544	259.000000
1394.070673	294.333333
1396.055500	250.000000
1398.041722	259.333333
1400.025644	266.666667
1402.009113	262.000000
1403.992129	265.666667
1405.972848	240.666667
1407.954961	249.666667
1409.934778	294.000000
1411.914143	242.000000
1413.889370	266.333333
1415.867835	251.000000
1417.844007	237.000000
1419.819730	265.333333
1421.795003	234.333333
1423.767985	252.333333
1425.740519	269.333333
1427.712605	244.333333
1429.684244	232.333333
1431.651754	241.000000
1433.624338	236.666667
1435.589116	243.000000
1437.558967	248.666667
1439.524694	256.333333
1441.491813	255.000000
1443.456649	245.000000
1445.417365	270.000000
1447.383149	260.333333
1449.342978	271.333333
1451.304201	267.000000
1453.266816	240.333333
1455.225316	246.666667
1457.183373	246.000000
1459.140989	259.666667
1461.098162	265.000000
1463.053060	245.000000
1465.009351	268.666667
1466.963367	252.666667
1468.916942	254.000000
1470.868245	265.333333
1472.820941	255.333333
1474.771364	306.333333
1476.721349	254.333333
1478.670895	287.333333
1480.618172	285.666667
1482.563181	253.000000
1484.509583	270.666667
1486.455547	256.333333
1488.401074	273.000000
1490.344335	271.333333
1492.287161	271.000000
1494.227723	255.666667
1496.169676	255.333333
1498.109367	240.000000
1500.048624	261.666667
1501.987445	314.666667
1503.924007	285.000000
1505.861960	292.333333
1507.797654	282.333333
1509.732915	308.333333
1511.665920	281.000000
1513.598492	294.666667
1515.530632	277.333333
1517.462340	289.000000
1519.391794	279.666667
1521.322639	270.666667
1523.253052	285.333333
1525.179393	244.000000
1527.107125	276.666667
1529.032606	250.666667
1530.957658	269.333333
1532.882281	290.666667
1534.806475	303.333333
1536.728421	280.000000
1538.651758	280.000000
1540.572848	307.666667
1542.491694	304.000000
1544.411930	277.333333
1546.329923	298.333333
1548.247489	296.000000
1550.162813	298.333333
1552.079527	293.333333
1553.992186	300.666667
1555.908049	337.666667
1557.821672	348.333333
1559.733057	261.333333
1561.645832	285.000000
1563.554557	257.333333
1565.464671	293.000000
1567.374362	297.000000
1569.283630	314.000000
1571.190664	282.666667
1573.095465	280.000000
1575.001655	270.666667
1576.905613	318.000000
1578.809150	277.333333
1580.712267	279.333333
1582.613154	283.666667
1584.515430	273.333333
1586.415478	278.666667
1588.316913	260.666667
1590.214315	294.666667
1592.111298	308.333333
1594.007863	268.333333
1595.905816	296.666667
1597.797934	294.000000
1599.693245	257.666667
1601.588139	292.000000
1603.480811	245.333333
1605.373066	289.000000
1607.263102	263.000000
1609.152722	298.666667
1611.041927	274.666667
1612.930717	260.333333
1614.817289	293.000000
1616.705249	310.666667
1618.589192	302.666667
1620.474522	286.666667
1622.359439	273.333333
1624.242142	265.000000
1626.126232	278.666667
1628.006310	244.666667
1629.887776	261.000000
1631.767031	285.333333
1633.647672	303.666667
1635.522509	275.000000
1637.402327	307.333333
1639.278141	307.000000
1641.153544	273.333333
1643.030333	300.666667
1644.901326	277.333333
1646.775500	320.666667
1648.645675	279.000000
1650.519032	271.333333
1652.390184	291.000000
1654.259136	322.000000
1656.129472	296.333333
1657.995816	307.333333
1659.863545	259.000000
1661.729075	293.000000
1663.595991	290.000000
1665.458918	265.000000
1667.323230	318.666667
1669.185346	316.666667
1671.047057	274.000000
1672.910154	290.666667
1674.771055	289.666667
1676.629764	308.666667
1678.488069	327.333333
1680.347759	290.666667
1682.201681	295.666667
1684.058777	262.000000
1685.915470	325.000000
1687.768186	286.666667
1689.624074	258.333333
1691.475988	274.666667
1693.327501	302.333333
1695.178613	289.000000
1697.029325	250.333333
1698.879635	285.666667
1700.727762	290.333333
1702.577273	279.333333
1704.421035	288.000000
1706.269746	278.000000
1708.112711	255.000000
1709.958843	303.333333
1711.801012	303.666667
1713.646347	300.000000
1715.485941	295.000000
1717.326919	262.000000
1719.169280	308.666667
1721.007685	273.666667
1722.847473	307.000000
1724.685086	266.000000
1726.522303	300.333333
1728.357347	291.666667
1730.193774	319.000000
1732.028029	319.000000
1733.861889	229.666667
1735.695355	278.000000
1737.524876	309.000000
1739.357555	291.333333
1741.186290	294.666667
1743.018182	280.333333
1744.846132	315.666667
1746.673691	286.333333
1748.500857	291.666667
1750.327632	284.000000
1752.154015	275.666667
1753.976462	280.333333
1755.802064	296.333333
1757.623731	280.333333
1759.446780	296.666667
1761.267667	276.666667
1763.088166	303.000000
1764.910045	294.666667
1766.726226	319.333333
1768.545558	294.666667
1770.360963	291.000000
1772.179518	293.333333
1773.994148	322.000000
1775.808391	303.000000
1777.622248	328.666667
1779.435718	319.000000
1781.247035	308.666667
1783.059732	260.000000
1784.872044	342.333333
1786.680438	291.666667
1788.490212	273.333333
1790.296072	313.000000
1792.105077	286.000000
1793.910169	282.666667
1795.716642	263.666667
1797.522731	270.000000
1799.324909	251.666667
1801.130232	279.666667
1802.931646	327.333333
1804.734440	317.333333
1806.533328	302.666667
1808.333597	270.333333
1810.133484	303.666667
1811.931229	282.000000
1813.728594	295.333333
1815.525579	309.333333
1817.322183	280.666667
1819.116648	311.666667
1820.912492	288.333333
1822.702681	274.666667
1824.497767	307.333333
1826.287201	313.000000
1828.079771	296.000000
1829.870206	308.666667
1831.658507	326.333333
1833.449943	326.666667
1835.235733	297.333333
1837.022903	274.000000
1838.807941	331.666667
1840.596113	304.000000
1842.380399	315.333333
1844.162555	296.333333
1845.946091	313.666667
1847.727498	281.666667
1849.510284	289.666667
1851.289189	292.666667
1853.069474	300.333333
1854.847632	369.666667
1856.627169	320.666667
1858.404581	327.000000
1860.179869	319.000000
1861.956535	286.000000
1863.731079	304.333333
1865.507001	270.000000
1867.277302	288.666667
1869.050731	307.333333
1870.822040	311.333333
1872.592978	292.000000
1874.365294	330.000000
1876.131996	291.666667
1877.901824	307.000000
1879.667788	357.333333
1881.436875	320.666667
1883.202101	288.666667
1884.966959	337.000000
1886.733194	347.666667
1888.495570	306.666667
1890.257579	339.000000
1892.019220	309.333333
1893.780495	290.666667
1895.541402	281.333333
1897.301943	292.000000
1899.060374	272.666667
1900.818439	325.333333
1902.574397	306.666667
1904.331731	303.000000
1906.088700	331.333333
1907.843562	298.333333
1909.596320	280.666667
1911.348713	280.666667
1913.102483	294.000000
1914.854149	319.000000
1916.603713	315.000000
1918.354652	270.000000
1920.105229	313.666667
1921.851966	321.666667
1923.600080	315.666667
1925.346094	291.000000
1927.093483	344.666667
1928.838775	290.000000
1930.581969	309.666667
1932.326538	293.333333
1934.069012	323.000000
1935.811125	284.000000
1937.552878	304.000000
1939.294271	356.000000
1941.033571	324.666667
1942.772512	306.333333
1944.511094	323.333333
1946.247585	313.666667
1947.983718	304.500000
1949.721225	295.333333
1951.454910	283.666667
1953.189970	313.666667
1954.922941	297.000000
1956.655556	274.666667
1958.387815	290.000000
1960.119717	332.666667
1961.849533	304.333333
1963.577264	300.000000
1965.306370	335.000000
1967.035121	316.333333
1968.761788	333.333333
1970.488101	310.666667
1972.215787	349.666667
1973.937937	288.333333
1975.663188	295.333333
1977.384632	276.333333
1979.109177	299.333333
1980.831641	356.333333
1982.550303	281.333333
1984.272063	343.000000
1985.990021	323.333333
1987.709352	322.000000
1989.424884	311.333333
1991.145236	338.666667
1992.861790	353.666667
1994.574547	303.666667
1996.290400	315.666667
1998.004181	343.000000
1999.717612	321.666667
2001.428972	332.666667
2003.141704	325.666667
2004.850646	328.000000
2006.562680	331.333333
2008.269206	319.666667
2009.978823	339.333333
2011.686374	351.000000
2013.393576	334.666667
2015.098713	278.000000
2016.803504	348.333333
2018.509666	343.000000
2020.212046	329.666667
2021.915797	335.000000
2023.617486	336.333333
2025.318830	303.333333
2027.019828	327.666667
2028.718765	328.666667
2030.419074	353.666667
2032.115608	324.333333
2033.813513	339.000000
2035.509359	291.333333
2037.208291	316.666667
2038.901737	313.666667
2040.596554	332.666667
2042.291029	310.333333
2043.981735	317.333333
2045.675525	344.000000
2047.365548	342.666667
2049.056942	353.000000
2050.746283	309.000000
2052.436994	322.666667
2054.123942	368.666667
2055.810551	346.333333
2057.498529	293.000000
2059.182748	283.333333
2060.868338	302.000000
2062.553588	313.666667
2064.236789	333.333333
2065.921361	322.333333
2067.600470	347.000000
2069.284364	358.000000
2070.962797	355.000000
2072.644308	335.666667
2074.322067	333.000000
2075.999490	315.333333
2077.678282	385.333333
2079.355032	325.000000
2081.029740	323.666667
2082.705817	341.333333
2084.379853	346.333333
2086.053555	344.333333
2087.726921	332.333333
2089.398248	328.000000
2091.069241	307.666667
2092.739900	313.333333
2094.410225	319.000000
2096.080216	353.333333
2097.748171	367.666667
2099.415793	302.666667
2101.081380	331.333333
2102.748336	342.333333
2104.413259	359.333333
2106.077850	356.000000
2107.740409	376.666667
2109.404336	325.333333
2111.066232	364.333333
2112.727798	336.333333
2114.389032	400.333333
2116.048238	380.666667
2117.707113	366.333333
2119.365659	328.666667
2121.023874	350.000000
2122.678367	312.666667
2124.335924	339.000000
2125.993152	387.000000
2127.646658	319.333333
2129.301532	383.000000
2130.952687	339.000000
2132.606905	321.000000
2134.257406	368.333333
2135.909273	313.000000
2137.555732	368.666667
2139.206946	312.000000
2140.854446	352.666667
2142.503313	346.666667
2144.150161	311.000000
2145.796684	355.333333
2147.442881	335.666667
2149.085370	346.333333
2150.730917	350.333333
2152.372757	355.666667
2154.017654	323.333333
2155.658845	365.000000
2157.299714	314.666667
2158.940258	348.333333
2160.578790	317.666667
2162.218688	345.000000
2163.854886	297.333333
2165.492450	363.333333
2167.129692	342.000000
2168.764924	345.666667
2170.399835	380.000000
2172.034423	323.333333
2173.668691	331.666667
2175.299265	347.666667
2176.932891	375.666667
2178.562825	354.666667
2180.194124	342.333333
2181.823418	359.333333
2183.452393	362.333333
2185.081048	351.333333
2186.709384	383.000000
2188.335718	342.666667
2189.961733	336.333333
2191.585746	375.333333
2193.211125	361.666667
2194.834503	365.000000
2196.459246	339.333333
2198.080308	343.000000
2199.701053	353.666667
2201.323163	372.333333
2202.943275	377.000000
2204.561390	316.333333
2206.179190	378.666667
2207.796675	344.000000
2209.413844	372.666667
2211.030698	361.666667
2212.647236	381.666667
2214.261782	354.333333
2215.874335	385.333333
2217.488252	379.000000
2219.100178	377.000000
2220.713467	345.000000
2222.324766	373.000000
2223.934075	361.000000
2225.544748	384.333333
2227.153432	327.666667
2228.761803	375.000000
2230.368188	425.333333
2231.975936	329.333333
2233.581697	374.000000
2235.187147	365.333333
2236.790612	379.666667
2238.395440	352.000000
2239.998284	366.000000
2241.599145	400.333333
2243.201369	324.333333
2244.801611	379.000000
2246.403215	392.333333
2248.001166	390.333333
2249.600480	336.333333
2251.197814	348.333333
2252.794840	375.333333
2254.393228	378.666667
2255.987967	357.666667
2257.580729	370.000000
2259.174854	395.333333
2260.770340	364.666667
2262.362181	412.666667
2263.953716	370.000000
2265.546613	397.666667
2267.134200	362.333333
2268.726483	367.000000
2270.313460	354.000000
2271.903464	351.666667
2273.488164	404.666667
2275.077558	392.666667
2276.661650	391.333333
2278.247102	365.000000
2279.830586	376.333333
2281.417095	336.666667
2282.999971	376.000000
2284.582544	330.666667
2286.164813	392.000000
2287.743452	386.333333
2289.325116	427.000000
2290.903151	362.000000
2292.484209	354.000000
2294.061640	364.500000
2295.637108	375.000000
2297.215598	379.333333
2298.790464	392.000000
2300.365029	352.333333
2301.939294	367.666667
2303.513258	377.000000
2305.086921	370.333333
2306.660285	387.333333
2308.230030	367.666667
2309.799476	380.666667
2311.371940	370.333333
2312.939130	388.333333
2314.509338	395.000000
2316.075931	341.333333
2317.643884	398.333333
2319.209881	360.333333
2320.775581	371.333333
2322.340983	383.666667
2323.904432	385.000000
2325.469240	390.666667
2327.030440	409.000000
2328.594654	447.000000
2330.153606	439.666667
2331.715573	406.666667
2333.275588	406.000000
2334.835309	356.000000
2336.393080	405.666667
2337.950556	385.000000
2339.507738	324.666667
2341.062972	395.666667
2342.617913	370.000000
2344.172559	404.333333
2345.726912	396.333333
2347.280972	376.000000
2348.834737	355.666667
2350.386558	378.333333
2351.936437	388.000000
2353.489323	404.666667
2355.036966	384.000000
2356.587618	382.000000
2358.134678	396.000000
2359.683096	358.666667
2361.231223	390.000000
2362.775761	387.333333
2364.321657	415.666667
2365.865615	371.000000
2367.410930	371.666667
2368.952660	387.666667
2370.495747	398.333333
2372.036898	361.666667
2373.577760	402.000000
2375.118333	391.333333
2376.658617	372.333333
2378.198612	387.666667
2379.735029	370.000000
2381.274447	370.000000
2382.810287	398.666667
2384.347485	376.000000
2385.881107	396.000000
2387.417729	372.333333
2388.952421	419.000000
2390.485183	398.000000
2392.017658	368.666667
2393.548205	380.000000
2395.081750	378.666667
2396.610084	418.666667
2398.139774	390.333333
2399.669179	396.333333
2401.198299	371.000000
2402.727134	404.000000
2404.250763	394.666667
2405.779028	396.666667
2407.302091	396.333333
2408.829787	400.333333
2410.350644	424.000000
2411.876134	380.333333
2413.398063	374.000000
2414.921348	399.666667
2416.442711	397.666667
2417.962155	444.000000
2419.482954	415.333333
2421.001835	371.000000
2422.520433	396.333333
2424.037114	405.333333
2425.555149	428.333333
2427.072903	383.000000
2428.587106	416.000000
2430.101028	438.000000
2431.614670	407.666667
2433.129667	407.000000
2434.641115	373.000000
2436.153918	403.000000
2437.664807	424.333333
2439.175418	427.666667
2440.684117	421.000000
2442.195802	409.666667
2443.703944	416.000000
2445.211808	410.666667
2446.719394	403.666667
2448.223439	419.666667
2449.730469	412.666667
2451.235591	451.333333
2452.740436	441.000000
2454.243374	408.666667
2455.746036	432.333333
2457.248421	444.000000
2458.748901	417.333333
2460.250734	423.333333
2461.750662	410.000000
2463.250315	386.333333
2464.749693	396.666667
2466.247168	430.333333
2467.742741	401.000000
2469.241294	441.333333
2470.736319	440.666667
2472.232696	420.000000
2473.725547	403.333333
2475.219751	415.333333
2476.713681	451.666667
2478.204087	424.333333
2479.697471	416.000000
2481.188957	430.333333
2482.678546	463.333333
2484.167863	439.000000
2485.655284	446.000000
2487.145681	418.000000
2488.632560	424.333333
2490.120790	425.000000
2491.605503	428.666667
2493.089947	411.666667
2494.575741	409.333333
2496.059644	418.333333
2497.544897	410.000000
2499.025017	439.666667
2500.508110	396.000000
2501.989312	438.000000
2503.470245	399.000000
2504.949289	402.333333
2506.428064	424.666667
2507.906571	415.333333
2509.384810	427.666667
2510.862780	423.000000
2512.337245	402.666667
2513.814680	418.666667
2515.288611	433.666667
2516.763892	447.666667
2518.238906	425.000000
2519.710419	390.666667
2521.183283	440.666667
2522.654264	429.000000
2524.126595	430.666667
2525.593812	432.666667
2527.063996	420.333333
2528.532299	422.333333
2530.000337	445.000000
2531.468110	451.666667
2532.935618	400.333333
2534.402861	458.666667
2535.866612	451.333333
2537.331713	415.666667
2538.794937	430.666667
2540.259510	423.666667
2541.720595	438.000000
2543.183029	413.000000
2544.645200	447.333333
2546.103885	421.000000
2547.567141	442.666667
2549.025302	453.666667
2550.484811	437.000000
2551.939226	459.666667
2553.398212	474.333333
2554.855326	464.666667
2556.310569	433.333333
2557.765550	472.666667
2559.218663	506.666667
2560.673124	372.333333
2562.125715	417.666667
2563.578047	456.666667
2565.028512	424.666667
2566.481932	438.333333
2567.930270	449.666667
2569.381563	457.333333
2570.830991	454.000000
2572.276946	465.666667
2573.725856	469.000000
2575.171296	504.333333
2576.618083	451.000000
2578.063008	487.666667
2579.507674	487.666667
2580.953688	463.666667
2582.396236	485.333333
2583.840131	464.333333
2585.280561	476.666667
2586.722338	458.333333
2588.162256	505.000000
2589.603521	441.666667
2591.041324	477.333333
2592.482077	488.333333
2593.917768	458.333333
2595.356408	436.666667
2596.793190	433.000000
2598.228117	486.000000
2599.665991	477.666667
2601.098808	509.333333
2602.532972	465.666667
2603.965282	493.333333
2605.398938	421.666667
2606.830741	452.333333
2608.262290	464.000000
2609.693587	448.666667
2611.123031	481.333333
2612.552223	455.333333
2613.979565	451.666667
2615.408252	472.666667
2616.836688	450.333333
2618.261676	421.666667
2619.688011	430.666667
2621.112497	446.333333
2622.538329	497.000000
2623.960717	463.333333
2625.384451	486.000000
2626.806338	516.666667
2628.227976	475.333333
2629.647768	483.000000
2631.068906	511.000000
2632.489794	416.333333
2633.907244	476.333333
2635.327633	502.333333
2636.744585	457.000000
2638.161288	454.000000
2639.577743	468.666667
2640.993950	513.000000
2642.409909	517.666667
2643.824027	484.000000
2645.237897	521.666667
2646.649929	474.000000
2648.063304	501.666667
2649.473250	474.000000
2650.886132	484.000000
2652.295585	485.333333
2653.704792	449.333333
2655.112163	500.666667
2656.522468	470.333333
2657.930938	477.000000
2659.337572	498.000000
2660.743961	499.000000
2662.148516	483.666667
2663.554415	464.333333
2664.958481	498.000000
2666.362302	463.333333
2667.765879	476.666667
2669.167625	483.000000
2670.570714	495.000000
2671.970385	498.666667
2673.371400	481.000000
2674.768999	491.333333
2676.169527	523.333333
2677.566641	495.000000
2678.965098	492.333333
2680.361728	514.333333
2681.758115	569.333333
2683.154260	505.666667
2684.548579	507.333333
2685.944241	515.333333
2687.336494	509.666667
2688.730089	517.000000
2690.121860	492.666667
2691.514974	538.000000
2692.906264	488.000000
2694.295731	497.666667
2695.684958	478.333333
2697.073946	484.333333
2698.464275	499.666667
2699.849621	476.333333
2701.237890	495.666667
2702.624339	496.666667
2704.010549	508.666667
2705.396520	471.666667
2706.779093	512.000000
2708.163008	478.000000
2709.546685	491.666667
2710.930123	528.333333
2712.310167	483.666667
2713.691551	475.333333
2715.071121	531.000000
2716.452031	524.666667
2717.831127	476.666667
2719.208409	475.000000
2720.587032	499.333333
2721.963842	511.000000
2723.340415	519.666667
2724.716753	511.000000
2726.091280	489.000000
2727.467147	515.666667
2728.839627	480.000000
2730.215023	513.333333
2731.585459	504.666667
2732.957236	455.666667
2734.328778	490.333333
2735.698512	527.333333
2737.069587	494.666667
2738.438853	545.333333
2739.807886	507.333333
2741.175113	518.333333
2742.542106	543.000000
2743.908867	534.333333
2745.275396	503.333333
2746.640119	551.000000
2748.004610	524.666667
2749.368870	518.666667
2750.732897	525.333333
2752.096693	514.333333
2753.457115	512.666667
2754.820447	539.666667
2756.178837	523.333333
2757.540137	492.666667
2758.898067	543.666667
2760.258905	447.666667
2761.617944	514.333333
2762.973614	493.666667
2764.332192	513.666667
2765.687403	522.666667
2767.042385	513.000000
2768.395571	498.333333
2769.751662	511.333333
2771.104390	509.000000
2772.456890	521.666667
2773.809161	493.666667
2775.162770	515.000000
2776.513019	510.666667
2777.861473	590.333333
2779.212833	487.333333
2780.560833	529.000000
2781.910171	539.000000
2783.257717	570.000000
2784.605037	535.666667
2785.952130	553.000000
2787.297432	550.666667
2788.642507	510.666667
2789.987357	530.333333
2791.331981	492.333333
2792.673253	557.333333
2794.015863	560.000000
2795.358247	573.666667
2796.700406	563.333333
2798.039216	533.333333
2799.380926	570.666667
2800.719288	578.666667
2802.058986	558.000000
2803.396900	581.000000
2804.733029	569.333333
2806.068934	507.000000
2807.406177	542.000000
2808.741636	571.666667
2810.076872	593.000000
2811.410325	559.333333
2812.745115	566.666667
2814.076565	608.666667
2815.410910	558.666667
2816.740357	574.000000
2818.071141	603.000000
2819.401703	545.333333
2820.730486	540.333333
2822.060605	562.000000
2823.388946	552.333333
2824.717066	558.000000
2826.043408	580.000000
2827.371087	548.666667
2828.695432	603.666667
2830.021114	515.333333
2831.345020	578.000000
2832.668707	561.000000
2833.993729	557.333333
2835.315421	585.000000
2836.636895	559.666667
2837.958150	575.666667
2839.279186	581.333333
2840.598449	552.666667
2841.919048	570.333333
2843.237876	586.333333
2844.556485	576.666667
2845.873323	577.333333
2847.189944	565.000000
2848.506348	508.000000
2849.820982	514.333333
2851.136952	532.333333
2852.449601	552.333333
2853.763585	595.000000
2855.077353	549.333333
2856.390904	533.666667
2857.702689	546.333333
2859.012707	584.000000
2860.324060	560.000000
2861.632098	544.666667
2862.941470	575.333333
2864.250628	537.000000
2865.559570	590.666667
2866.866748	593.000000
2868.172164	589.666667
2869.478913	598.333333
2870.783901	586.000000
2872.088675	578.333333
2873.391687	606.000000
2874.697580	613.666667
2875.998619	580.000000
2877.300992	594.666667
2878.601605	567.666667
2879.903552	572.666667
2881.205285	577.000000
2882.503715	570.666667
2883.803478	533.000000
2885.101484	557.333333
2886.399278	581.333333
2887.695316	550.666667
2888.992687	548.333333
2890.288302	539.000000
2891.583706	586.000000
2892.878899	567.666667
2894.170795	552.666667
2895.465567	558.333333
2896.757042	516.000000
2898.049850	528.333333
2899.342448	609.666667
2900.631752	566.000000
2901.922388	579.666667
2903.211273	580.333333
2904.501490	599.666667
2905.788416	594.000000
2907.076674	590.000000
2908.363183	608.000000
2909.649483	594.333333
2910.935576	621.000000
2912.219920	535.666667
2913.507135	569.666667
2914.789524	583.333333
2916.073245	599.666667
2917.355220	599.666667
2918.636987	597.000000
2919.917010	610.000000
2921.199902	612.000000
2922.481049	597.000000
2923.758914	620.333333
2925.039648	571.666667
2926.317101	609.000000
2927.594348	566.666667
2928.869853	608.666667
2930.148226	568.000000
2931.421785	590.666667
2932.698211	599.666667
2933.972896	610.333333
2935.245840	612.333333
2936.520116	603.000000
2937.792652	625.666667
2939.064983	594.333333
2940.334042	601.000000
2941.605966	618.000000
2942.876152	604.333333
2944.146134	652.666667
2945.415913	600.666667
2946.683956	605.000000
2947.950262	593.666667
2949.216367	587.000000
2950.483801	603.333333
2951.749501	618.333333
2953.014998	618.333333
2954.280293	625.333333
2955.542323	611.000000
2956.805683	583.000000
2958.068842	580.333333
2959.330269	595.333333
2960.593025	577.000000
2961.854049	602.333333
2963.113343	597.000000
2964.372437	608.000000
2965.631330	624.666667
2966.890023	633.333333
2968.148516	588.666667
2969.405280	575.666667
2970.661844	618.000000
2971.916681	609.666667
2973.172846	676.000000
2974.425757	632.000000
2975.679997	593.000000
2976.934037	617.000000
2978.186353	635.000000
2979.438469	644.666667
2980.688861	589.333333
2981.942108	626.666667
2983.190578	649.333333
2984.441903	635.333333
2985.689978	656.333333
2986.937857	673.666667
2988.185538	634.000000
2989.433022	641.333333
2990.678785	623.666667
2991.924352	641.666667
2993.171246	607.666667
2994.414896	655.000000
2995.659874	650.666667
2996.901608	670.333333
2998.146194	680.666667
2999.389061	625.000000
3000.628687	685.666667
3001.871163	660.000000
3003.110399	653.333333
3004.350963	651.666667
3005.589810	672.333333
3006.828463	676.333333
3008.065400	679.666667
3009.303665	697.666667
3010.540214	688.666667
3011.776570	673.333333
3013.012732	669.666667
3014.247180	678.333333
3015.481436	678.666667
3016.715498	681.666667
3017.947848	702.666667
3019.178486	641.000000
3020.411970	674.333333
3021.643742	710.666667
3022.873804	717.000000
3024.103673	663.333333
3025.331833	681.000000
3026.561320	711.666667
3027.789097	623.333333
3029.016683	698.666667
3030.245596	709.666667
3031.469766	696.000000
3032.696779	691.000000
3033.920568	693.000000
3035.145684	696.666667
3036.369093	709.333333
3037.592312	702.333333
3038.813826	665.000000
3040.038181	666.000000
3041.257801	669.666667
3042.478747	721.333333
3043.699504	690.666667
3044.918557	680.333333
3046.138935	669.666667
3047.356097	670.666667
3048.574585	673.333333
3049.791370	699.333333
3051.007968	689.666667
3052.224377	694.333333
3053.437574	736.000000
3054.653608	687.333333
3055.866430	684.333333
3057.082089	706.000000
3058.293025	706.666667
3059.505286	721.666667
3060.717361	708.000000
3061.929248	706.666667
3063.139439	720.333333
3064.349443	722.666667
3065.559261	687.000000
3066.767383	714.000000
3067.975320	680.666667
3069.181561	695.000000
3070.389127	674.000000
3071.594998	663.500000
3072.800685	653.000000
3074.006186	666.000000
3075.209994	751.666667
3076.415126	692.333333
3077.618565	681.666667
3078.820313	677.666667
3080.021876	636.000000
3081.223256	678.333333
3082.424452	641.333333
3083.623958	660.000000
3084.823281	669.333333
3086.023927	678.000000
3087.222883	670.000000
3088.418645	685.333333
3089.617236	646.666667
3090.812633	668.000000
3092.009353	695.666667
3093.202881	611.000000
3094.399237	648.000000
3095.593907	662.666667
3096.785385	693.333333
3097.981196	650.666667
3099.172312	620.000000
3100.364752	686.000000
3101.554004	643.666667
3102.746081	687.333333
3103.936475	659.000000
3105.123683	723.333333
3106.312213	667.000000
3107.502066	714.666667
3108.688735	669.000000
3109.875223	652.000000
3111.061533	707.000000
3112.249164	646.666667
3113.433613	692.000000
3114.616383	714.000000
3115.801975	716.000000
3116.985888	665.333333
3118.168122	661.666667
3119.350177	673.666667
3120.532054	700.666667
3121.713753	708.333333
3122.893775	693.666667
3124.072120	666.666667
3125.253285	698.666667
3126.431275	649.333333
3127.609089	701.000000
3128.786725	707.333333
3129.962686	651.666667
3131.138470	666.333333
3132.315576	641.666667
3133.491007	707.666667
3134.664765	629.666667
3135.836850	681.666667
3137.010257	696.333333
3138.183487	679.666667
3139.355046	682.666667
3140.527925	732.333333
3141.697637	710.666667
3142.868670	717.333333
3144.038033	721.000000
3145.205725	669.000000
3146.376233	712.000000
3147.542083	703.333333
3148.712241	737.333333
3149.877743	734.666667
3151.043070	739.666667
3152.208224	751.666667
3153.373205	775.666667
3154.539505	768.000000
3155.701153	747.000000
3156.864120	764.000000
3158.026915	724.333333
3159.189537	776.000000
3160.350494	757.333333
3161.511278	774.000000
3162.671890	778.666667
3163.830838	792.000000
3164.989615	750.333333
3166.148220	775.333333
3167.306652	771.666667
3168.464914	726.000000
3169.621513	771.333333
3170.776451	751.666667
3171.932708	779.333333
3173.087304	815.000000
3174.241730	764.333333
3175.394496	808.000000
3176.547091	756.333333
3177.699517	749.666667
3178.851773	792.333333
3180.003858	773.666667
3181.152798	744.000000
3182.304544	792.333333
3183.454632	755.000000
3184.603064	754.333333
3185.751326	783.333333
3186.899420	795.000000
3188.047345	770.000000
3189.193614	829.333333
3190.339715	748.333333
3191.484162	746.000000
3192.628441	771.000000
3193.772552	803.666667
3194.917980	756.000000
3196.060270	772.000000
3197.202393	761.333333
3198.344348	801.666667
3199.486136	780.666667
3200.627757	775.333333
3201.766243	772.000000
3202.906046	762.666667
3204.047167	755.000000
3205.185153	788.000000
3206.321490	819.000000
3207.457661	782.000000
3208.595149	767.333333
3209.730989	698.333333
3210.868146	771.000000
3212.000690	767.333333
3213.137516	795.000000
3214.269730	764.000000
3215.403261	746.000000
3216.536628	774.666667
3217.666867	744.333333
3218.799904	764.000000
3219.929815	792.000000
3221.061042	748.333333
3222.189145	749.000000
3223.320044	782.333333
3224.449299	790.666667
3225.576911	795.333333
3226.701400	797.000000
3227.830165	787.333333
3228.955808	753.666667
3230.081289	815.333333
3231.205128	826.333333
3232.331761	807.000000
3233.453797	854.000000
3234.577149	790.000000
3235.700339	806.333333
3236.823366	820.666667
3237.944755	786.666667
3239.065981	771.000000
3240.185570	785.333333
3241.304997	787.000000
3242.422786	817.666667
3243.543367	810.666667
3244.660835	798.000000
3245.778142	765.333333
3246.895289	815.000000
3248.010800	798.333333
3249.127625	783.666667
3250.241341	798.333333
3251.357846	785.333333
3252.472717	852.000000
3253.584479	808.333333
3254.696081	805.000000
3255.808999	799.666667
3256.921757	828.000000
3258.031409	789.333333
3259.142376	827.666667
3260.253184	791.333333
3261.362360	869.333333
3262.469906	810.666667
3263.578765	837.333333
3264.687467	824.000000
3265.793066	840.333333
3266.899979	863.333333
3268.005263	864.666667
3269.111861	860.333333
3270.215359	902.333333
3271.320172	873.666667
3272.424827	865.666667
3273.526383	879.666667
3274.627783	838.000000
3275.730497	837.666667
3276.833055	840.333333
3277.932516	901.333333
3279.034761	857.000000
3280.133910	813.666667
3281.231435	844.333333
3282.328804	849.000000
3283.428955	837.333333
3284.526014	837.333333
3285.622917	859.333333
3286.719665	834.333333
3287.811855	870.666667
3288.908293	824.666667
3290.003109	851.000000
3291.097771	829.333333
3292.190811	786.666667
3293.283696	821.333333
3294.374962	823.666667
3295.467539	801.666667
3296.558497	810.000000
3297.647835	830.000000
3298.737020	853.666667
3299.827518	845.333333
3300.914931	764.000000
3302.002191	847.333333
3303.090764	836.666667
3304.179185	898.666667
3305.263058	850.333333
3306.351173	873.333333
3307.436206	879.000000
3308.519624	860.333333
3309.604354	858.333333
3310.687468	831.000000
3311.771895	835.333333
3312.853243	846.666667
3313.935903	820.666667
3315.016949	850.666667
3316.097844	895.333333
3317.177125	930.333333
3318.256256	855.000000
3319.336699	873.000000
3320.414067	847.333333
3321.492747	919.666667
3322.569815	904.000000
3323.646734	872.000000
3324.722041	900.000000
3325.797199	907.666667
3326.873668	926.666667
3327.947067	930.000000
3329.020317	895.666667
3330.094877	928.666667
3331.167829	938.333333
3332.239172	912.000000
3333.311826	935.000000
3334.381414	924.000000
3335.452312	903.000000
3336.521603	971.000000
3337.592205	907.666667
3338.661200	934.000000
3339.728589	1006.666667
3340.794373	875.666667
3341.864383	947.666667
3342.931330	947.000000
3343.995215	967.666667
3345.061868	930.666667
3346.126916	967.666667
3347.190361	920.000000
3348.253660	979.000000
3349.316812	1007.666667
3350.379818	985.333333
3351.442678	928.666667
3352.503936	987.333333
3353.562137	998.000000
3354.624558	933.000000
3355.683924	929.000000
3356.743144	978.333333
3357.803673	915.666667
3358.859694	961.666667
3359.918478	954.000000
3360.972755	938.333333
3362.029796	984.333333
3363.085238	984.333333
3364.141990	972.000000
3365.197143	966.333333
3366.250699	963.666667
3367.302659	964.000000
3368.357380	957.000000
3369.409052	964.666667
3370.460581	950.333333
3371.513418	929.666667
3372.563208	948.000000
3373.614307	980.666667
3374.662360	955.000000
3375.713172	957.000000
3376.760940	888.000000
3377.808565	901.666667
3378.856047	900.333333
3379.901937	960.333333
3380.949135	936.000000
3381.993291	983.333333
3383.040205	959.666667
3384.085527	946.666667
3385.127808	1001.333333
3386.169949	1001.000000
3387.213397	960.333333
3388.256704	969.333333
3389.298422	1003.333333
3390.339998	986.666667
3391.381433	956.666667
3392.421280	1062.333333
3393.459538	986.333333
3394.499104	945.333333
3395.538530	990.000000
3396.576368	994.333333
3397.612619	1004.666667
3398.648731	971.666667
3399.686150	916.000000
3400.720536	950.000000
3401.756229	988.000000
3402.791783	946.333333
3403.824306	950.333333
3404.859582	1023.666667
3405.891827	972.000000
3406.923934	973.333333
3407.954457	984.666667
3408.986287	992.666667
3410.017979	953.666667
3411.046643	958.000000
3412.075170	961.666667
3413.105003	994.333333
3414.134699	996.000000
3415.161369	1037.000000
3416.189346	970.333333
3417.214298	968.000000
3418.242000	990.333333
3419.266679	961.333333
3420.292664	1027.333333
3421.317069	1018.333333
3422.341338	932.333333
3423.364028	1015.333333
3424.386582	987.000000
3425.410442	1017.000000
3426.431282	1010.333333
3427.451986	995.000000
3428.473997	1028.333333
3429.492989	1005.000000
3430.511845	1015.666667
3431.532008	1016.666667
3432.549154	1017.000000
