-116.707459	21.333333
-114.037859	20.333333
-111.371194	18.333333
-108.705281	36.333333
-106.042300	64.333333
-103.377890	33.666667
-100.716410	25.000000
-98.053501	1.333333
-95.395698	36.000000
-92.736466	32.666667
-90.077982	36.666667
-87.422422	34.000000
-84.765434	22.000000
-82.113544	34.333333
-79.460224	3.666667
-76.809823	26.666667
-74.157993	22.333333
-71.511254	-4.666667
-68.863086	34.000000
-66.215660	25.666667
-63.571148	26.666667
-60.925208	32.333333
-58.284349	8.666667
-55.642061	86.000000
-53.002682	53.000000
-50.361873	61.666667
-47.721805	59.666667
-45.086809	36.000000
-42.450385	56.333333
-39.816863	63.000000
-37.181913	60.000000
-34.552028	48.333333
-31.918551	57.666667
-29.290136	64.666667
-26.662455	69.666667
-24.033345	97.666667
-21.409292	100.666667
-18.781650	130.000000
-16.159061	116.333333
-13.537204	219.000000
-10.916077	385.666667
-8.295680	912.000000
-5.678172	3149.666667
-3.059235	10249.000000
-0.443183	31661.333333
2.172140	55778.666667
4.786736	29903.666667
7.398449	4013.000000
10.011591	476.666667
12.619699	244.333333
15.231389	131.000000
17.838048	86.000000
20.446135	90.333333
23.053498	97.333333
25.655836	77.000000
28.261752	74.666667
30.862646	53.000000
33.464968	31.333333
36.062273	74.333333
38.663153	76.333333
41.259018	22.333333
43.856312	43.000000
46.452886	48.666667
49.044451	13.666667
51.637444	51.666667
54.227576	18.666667
56.819136	38.333333
59.407836	29.000000
61.997963	62.333333
64.583091	77.000000
67.169647	42.333333
69.755489	56.000000
72.338477	49.666667
74.922891	43.333333
77.500177	33.666667
80.081029	10.333333
82.659032	70.000000
85.236325	25.666667
87.815044	40.666667
90.388781	29.000000
92.963946	38.666667
95.536267	32.000000
98.107880	36.000000
100.676653	18.000000
103.246853	55.333333
105.814215	38.000000
108.383002	40.333333
110.948953	44.000000
113.512069	59.666667
116.078741	32.666667
118.636192	40.000000
121.199328	59.333333
123.757504	54.333333
126.319235	111.000000
128.876009	113.000000
131.434210	175.666667
133.987457	230.666667
136.540007	298.666667
139.096107	453.000000
141.647259	533.333333
144.197714	656.666667
146.747471	730.333333
149.294409	810.666667
151.840652	818.666667
154.388320	850.000000
156.935292	876.666667
159.477329	927.666667
162.018672	883.333333
164.559322	859.333333
167.101398	847.333333
169.640662	801.333333
172.177118	801.000000
174.712882	861.666667
177.250072	826.333333
179.786571	792.000000
182.320264	810.333333
184.851153	830.666667
187.381355	865.333333
189.912981	784.666667
192.441806	838.333333
194.967832	835.000000
197.493172	838.000000
200.019937	816.333333
202.543906	846.666667
205.067190	830.333333
207.589789	850.000000
210.109595	876.000000
212.628718	808.000000
215.147158	814.666667
217.667022	835.333333
220.179885	884.333333
222.696279	846.333333
225.211991	822.333333
227.722813	808.333333
230.235060	812.000000
232.744525	785.666667
235.253311	792.000000
237.761418	807.333333
240.270950	833.333333
242.775601	862.666667
245.279576	852.000000
247.784975	867.666667
250.285499	884.000000
252.789547	947.333333
255.286623	1048.333333
257.787223	1213.000000
260.285051	1464.666667
262.782206	1882.333333
265.278688	2507.666667
267.770307	2762.333333
270.265446	2429.000000
272.757818	1825.333333
275.249520	1440.000000
277.738459	1189.000000
280.228822	1148.000000
282.716422	1088.000000
285.201263	1066.000000
287.689619	1072.666667
290.171035	1091.333333
292.655965	997.333333
295.136050	891.333333
297.619647	824.000000
300.098401	781.000000
302.578579	763.666667
305.056004	761.666667
307.532766	774.000000
310.008865	741.000000
312.482215	788.333333
314.954903	834.333333
317.426930	911.333333
319.898296	952.333333
322.366917	1000.333333
324.834880	1017.666667
327.304264	921.000000
329.768826	905.333333
332.236892	856.666667
334.700138	842.333333
337.162726	861.333333
339.624658	845.333333
342.085933	816.000000
344.544474	795.666667
347.004437	803.333333
349.461667	810.333333
351.918243	811.333333
354.374165	867.333333
356.827357	763.666667
359.281972	822.666667
361.731785	836.333333
364.185094	758.333333
366.633605	830.000000
369.081464	835.333333
371.530746	813.666667
373.975234	829.666667
376.421144	772.000000
378.866404	716.666667
381.308946	732.000000
383.750840	780.666667
386.192087	722.333333
388.630618	766.333333
391.070571	754.000000
393.507810	787.000000
395.942337	741.666667
398.380352	726.666667
400.813590	713.333333
403.248249	750.666667
405.678136	737.000000
408.111508	743.000000
410.540110	730.666667
412.968070	736.333333
415.397452	694.333333
417.822068	741.000000
420.248106	753.333333
422.673503	748.000000
425.098260	794.666667
427.518259	749.333333
429.939679	717.333333
432.358402	762.000000
434.778546	739.666667
437.195995	766.333333
439.614864	720.333333
442.031040	798.666667
444.442468	768.000000
446.857374	735.666667
449.269589	754.666667
451.681170	757.000000
454.092117	746.333333
456.500378	740.666667
458.908006	761.000000
461.315002	735.333333
463.721367	743.333333
466.125049	727.666667
468.528101	704.666667
470.930523	694.666667
473.332315	689.666667
475.731430	758.000000
478.131964	675.666667
480.531869	736.333333
482.927051	728.000000
485.325700	719.666667
487.719629	732.333333
490.112932	723.333333
492.505609	733.666667
494.897661	740.666667
497.291131	716.333333
499.679889	687.000000
502.065981	655.333333
504.453493	658.000000
506.840382	578.000000
509.224607	617.666667
511.610250	571.333333
513.993232	567.333333
516.373553	584.666667
518.755293	539.666667
521.134374	551.333333
523.514874	527.666667
525.892716	500.000000
528.267903	551.666667
530.642472	569.666667
533.018459	529.000000
535.391794	520.666667
537.766546	529.666667
540.136613	513.333333
542.506064	479.000000
544.876933	473.333333
547.243122	460.000000
549.610729	454.333333
551.975690	462.333333
554.340038	424.666667
556.703773	457.333333
559.068926	463.666667
561.429407	466.000000
563.791306	427.333333
566.150564	474.333333
568.507185	443.666667
570.867250	459.333333
573.220624	404.666667
575.577443	405.333333
577.931627	413.666667
580.285202	460.000000
582.638170	430.666667
584.988505	485.333333
587.340258	441.666667
589.685334	432.333333
592.035874	401.666667
594.379740	448.666667
596.729068	393.000000
599.073747	425.666667
601.415802	434.000000
603.759274	428.000000
606.100123	410.000000
608.440370	413.333333
610.777996	387.333333
613.119057	429.666667
615.455480	383.333333
617.793320	409.666667
620.128543	372.333333
622.461150	416.333333
624.795173	397.000000
627.126582	397.333333
629.457393	400.333333
631.787607	377.000000
634.117222	442.666667
636.442214	381.333333
638.772648	397.000000
641.098461	380.000000
643.421666	363.666667
645.746288	380.000000
648.068304	368.000000
650.389726	345.666667
652.708546	361.333333
655.028781	336.666667
657.348423	359.666667
659.665464	344.333333
661.981913	366.000000
664.295764	380.000000
666.611031	382.000000
668.923701	388.666667
671.237786	362.666667
673.547271	352.666667
675.858172	362.666667
678.166480	379.333333
680.474200	358.666667
682.783334	333.666667
685.087876	308.666667
687.391832	331.333333
689.695202	332.000000
691.999986	331.666667
694.300184	347.000000
696.601796	328.666667
698.902823	304.666667
701.199269	331.000000
703.497130	301.333333
705.794407	308.333333
708.091101	302.666667
710.383219	320.666667
712.678748	298.000000
714.969703	327.333333
717.262073	303.000000
719.551868	353.000000
721.841082	309.333333
724.129717	352.333333
726.415779	339.333333
728.703256	346.333333
730.988161	269.333333
733.272489	334.000000
735.554248	342.000000
737.837421	339.666667
740.120017	341.000000
742.398057	360.666667
744.677512	290.333333
746.956390	308.333333
749.234694	320.333333
751.508448	315.666667
753.783615	332.666667
756.058209	323.333333
758.330244	317.000000
760.603692	310.333333
762.874582	309.000000
765.142916	311.000000
767.412663	302.333333
769.679856	332.666667
771.946478	310.000000
774.212530	342.333333
776.476031	297.666667
778.740945	318.666667
781.005289	307.666667
783.265104	307.666667
785.526331	337.000000
787.786991	348.000000
790.045105	314.333333
792.300674	335.000000
794.559634	350.000000
796.812095	337.000000
799.069922	285.000000
801.323231	323.000000
803.574000	303.000000
805.826181	280.666667
808.075823	302.666667
810.326878	256.000000
812.573421	292.333333
814.821376	278.333333
817.066797	327.333333
819.313629	318.666667
821.559900	275.000000
823.801666	312.333333
826.046816	310.333333
828.285493	287.666667
830.527552	306.666667
832.765113	305.000000
835.004086	275.000000
837.240532	316.000000
839.478389	267.333333
841.713721	302.333333
843.946530	270.666667
846.180750	279.000000
848.412447	294.000000
850.643590	285.333333
852.874178	254.000000
855.104212	287.333333
857.333692	254.333333
859.558690	282.000000
861.787063	252.333333
864.010956	275.333333
866.236261	244.666667
868.457090	282.666667
870.681291	216.000000
872.901019	248.000000
875.122157	223.000000
877.342745	253.666667
879.560824	277.000000
881.780312	248.333333
883.995334	252.666667
886.209808	285.666667
888.423735	259.000000
890.637115	243.000000
892.849947	248.666667
895.062233	250.666667
897.272016	243.666667
899.481254	276.333333
901.689947	283.000000
903.896141	265.000000
906.103744	279.000000
908.308849	253.000000
910.513411	239.666667
912.715478	214.666667
914.918954	228.666667
917.119936	277.333333
919.320376	270.666667
921.522225	293.666667
923.717683	265.666667
925.916500	260.666667
928.110878	259.000000
930.308614	268.333333
932.501914	285.666667
934.696623	257.666667
936.888846	242.666667
939.080530	307.333333
941.271677	255.000000
943.460341	294.000000
945.648469	268.000000
947.834116	302.666667
950.023115	287.666667
952.207691	269.666667
954.391732	267.333333
956.579123	275.000000
958.758210	300.000000
960.940648	334.666667
963.122552	345.666667
965.301981	288.000000
967.478938	340.000000
969.657303	308.000000
971.837075	301.000000
974.010498	351.000000
976.187267	346.666667
978.359629	353.000000
980.533399	320.333333
982.702765	299.666667
984.875475	345.666667
987.045720	326.666667
989.215436	358.666667
991.384623	375.666667
993.549413	362.666667
995.717544	380.000000
997.881281	363.000000
1000.046424	381.333333
1002.209108	377.333333
1004.371267	363.666667
1006.530969	331.666667
1008.690146	413.666667
1010.850730	354.666667
1013.008859	378.333333
1015.166465	362.666667
1017.323547	380.000000
1019.480105	385.000000
1021.632284	416.666667
1023.785870	396.666667
1025.938934	377.666667
1028.089549	418.000000
1030.241571	398.666667
1032.389219	382.000000
1034.540199	392.666667
1036.686808	409.000000
1038.832898	361.000000
1040.978470	387.333333
1043.125447	445.666667
1045.266135	419.333333
1047.410153	428.333333
1049.551730	421.333333
1051.692791	449.666667
1053.835256	441.666667
1055.971442	419.333333
1058.110953	449.666667
1060.246110	456.333333
1062.384591	423.666667
1064.518718	423.666667
1066.652332	419.333333
1068.787351	422.333333
1070.918020	381.333333
1073.050094	470.333333
1075.179739	393.333333
1077.308872	395.666667
1079.437493	418.333333
1081.565603	421.000000
1083.691287	374.333333
1085.816461	417.333333
1087.943039	385.333333
1090.065279	355.000000
1092.188924	379.000000
1094.308234	365.333333
1096.432774	382.333333
1098.551068	313.333333
1100.670767	345.333333
1102.788047	325.666667
1104.904821	325.333333
1107.021088	354.333333
1109.134939	338.333333
1111.250195	367.000000
1113.361127	303.666667
1115.475372	349.666667
1117.585296	320.333333
1119.696624	343.333333
1121.807447	289.000000
1123.913954	334.000000
1126.023771	334.000000
1128.129273	314.000000
1130.236178	329.333333
1132.336868	327.333333
1134.442770	316.333333
1136.544363	339.000000
1138.647359	304.333333
1140.749854	332.333333
1142.846142	293.333333
1144.947637	317.333333
1147.044830	318.666667
1149.141525	309.000000
1151.237721	307.333333
1153.333420	289.333333
1155.428620	304.000000
1157.521424	298.000000
1159.615631	298.666667
1161.703646	306.333333
1163.796859	296.666667
1165.883884	315.333333
1167.974208	296.666667
1170.060244	296.666667
1172.149579	297.333333
1174.232732	287.333333
1176.317287	293.333333
1178.403244	284.333333
1180.484919	289.000000
1182.567996	310.000000
1184.648687	329.000000
1186.728886	294.333333
1188.808594	283.000000
1190.887811	280.666667
1192.964646	296.333333
1195.039100	308.000000
1197.116845	302.666667
1199.190321	299.666667
1201.265197	285.000000
1203.335806	261.666667
1205.407816	257.333333
1207.477451	308.666667
1209.548486	275.333333
1211.619033	267.666667
1213.685319	278.333333
1215.753006	311.666667
1217.818321	251.333333
1219.885036	242.333333
1221.947495	288.666667
1224.013239	266.000000
1226.074729	243.000000
1228.137620	263.000000
1230.198143	260.666667
1232.258182	277.000000
1234.317739	283.000000
1236.374930	286.666667
1238.431640	304.666667
1240.485986	239.333333
1242.543614	259.333333
1244.598879	279.000000
1246.649903	261.000000
1248.702327	252.000000
1250.754271	225.666667
1252.803857	295.333333
1254.852964	296.333333
1256.901593	266.666667
1258.949743	241.666667
1260.997414	279.333333
1263.040855	248.333333
1265.087572	249.666667
1267.131935	255.000000
1269.175822	310.333333
1271.217357	278.000000
1273.256543	265.333333
1275.299002	243.333333
1277.337238	301.000000
1279.376873	253.333333
1281.416033	265.666667
1283.450974	243.000000
1285.487314	272.666667
1287.521310	278.000000
1289.556703	224.666667
1291.587884	243.000000
1293.620462	289.666667
1295.652569	237.333333
1297.682335	231.333333
1299.713498	253.000000
1301.740455	260.000000
1303.768809	215.000000
1305.792958	261.333333
1307.820373	247.666667
1309.843585	237.666667
1311.868195	241.000000
1313.890471	249.000000
1315.914144	250.333333
1317.935484	254.666667
1319.956356	240.333333
1321.976761	229.333333
1323.992973	264.666667
1326.010582	230.666667
1328.025863	233.333333
1330.044403	241.000000
1332.058754	249.666667
1334.070779	278.000000
1336.086061	265.000000
1338.097158	247.333333
1340.109652	256.666667
1342.117963	220.000000
1344.129529	226.666667
1346.135057	233.000000
1348.143840	249.666667
1350.148445	250.000000
1352.156304	215.666667
1354.163701	233.666667
1356.165067	238.333333
1358.167829	268.333333
1360.170132	237.333333
1362.171975	264.000000
1364.173358	232.666667
1366.172428	246.666667
1368.171039	272.666667
1370.169192	244.666667
1372.166886	308.000000
1374.160418	242.666667
1376.155345	223.000000
1378.149816	267.666667
1380.143830	234.666667
1382.135537	248.000000
1384.126789	250.666667
1386.115735	262.000000
1388.106076	258.000000
1390.095962	257.333333
1392.083544	265.666667
1394.070673	250.333333
1396.055500	251.333333
1398.041722	263.666667
1400.025644	249.000000
1402.009113	247.000000
1403.992129	236.333333
1405.972848	259.333333
1407.954961	237.666667
1409.934778	261.666667
1411.914143	231.333333
1413.889370	269.000000
1415.867835	238.666667
1417.844007	267.000000
1419.819730	268.333333
1421.795003	254.000000
1423.767985	256.000000
1425.740519	280.666667
1427.712605	243.666667
1429.684244	263.666667
1431.651754	206.000000
1433.624338	260.333333
1435.589116	221.666667
1437.558967	270.666667
1439.524694	239.333333
1441.491813	265.000000
1443.456649	234.666667
1445.417365	288.666667
1447.383149	280.666667
1449.342978	302.666667
1451.304201	271.333333
1453.266816	288.333333
1455.225316	290.666667
1457.183373	267.666667
1459.140989	287.666667
1461.098162	259.333333
1463.053060	246.000000
1465.009351	297.000000
1466.963367	263.000000
1468.916942	258.000000
1470.868245	248.333333
1472.820941	270.666667
1474.771364	264.000000
1476.721349	274.333333
1478.670895	276.000000
1480.618172	282.333333
1482.563181	213.666667
1484.509583	265.666667
1486.455547	280.666667
1488.401074	297.666667
1490.344335	238.333333
1492.287161	323.666667
1494.227723	241.333333
1496.169676	276.666667
1498.109367	275.333333
1500.048624	280.666667
1501.987445	308.000000
1503.924007	271.000000
1505.861960	300.333333
1507.797654	290.333333
1509.732915	281.000000
1511.665920	316.333333
1513.598492	244.666667
1515.530632	282.666667
1517.462340	284.000000
1519.391794	283.666667
1521.322639	246.000000
1523.253052	276.000000
1525.179393	261.333333
1527.107125	288.666667
1529.032606	265.666667
1530.957658	263.666667
1532.882281	285.333333
1534.806475	285.333333
1536.728421	281.666667
1538.651758	273.333333
1540.572848	325.666667
1542.491694	304.333333
1544.411930	299.333333
1546.329923	300.000000
1548.247489	293.666667
1550.162813	306.666667
1552.079527	294.666667
1553.992186	305.666667
1555.908049	360.333333
1557.821672	335.333333
1559.733057	275.000000
1561.645832	303.333333
1563.554557	303.333333
1565.464671	303.000000
1567.374362	287.666667
1569.283630	315.666667
1571.190664	263.666667
1573.095465	310.666667
1575.001655	276.000000
1576.905613	311.333333
1578.809150	268.666667
1580.712267	297.666667
1582.613154	271.000000
1584.515430	332.333333
1586.415478	286.000000
1588.316913	304.000000
1590.214315	269.333333
1592.111298	269.000000
1594.007863	237.333333
1595.905816	312.333333
1597.797934	275.000000
1599.693245	300.333333
1601.588139	261.333333
1603.480811	265.333333
1605.373066	292.000000
1607.263102	287.666667
1609.152722	303.666667
1611.041927	294.000000
1612.930717	296.000000
1614.817289	302.666667
1616.705249	275.666667
1618.589192	312.000000
1620.474522	274.666667
1622.359439	296.666667
1624.242142	271.666667
1626.126232	276.666667
1628.006310	281.666667
1629.887776	298.000000
1631.767031	298.333333
1633.647672	314.666667
1635.522509	303.333333
1637.402327	274.666667
1639.278141	273.333333
1641.153544	292.000000
1643.030333	309.666667
1644.901326	282.666667
1646.775500	306.333333
1648.645675	296.000000
1650.519032	277.666667
1652.390184	298.333333
1654.259136	317.666667
1656.129472	322.000000
1657.995816	300.333333
1659.863545	315.666667
1661.729075	288.666667
1663.595991	305.333333
1665.458918	275.000000
1667.323230	313.000000
1669.185346	322.333333
1671.047057	298.000000
1672.910154	297.666667
1674.771055	304.000000
1676.629764	298.666667
1678.488069	307.333333
1680.347759	302.666667
1682.201681	314.333333
1684.058777	288.333333
1685.915470	323.666667
1687.768186	280.333333
1689.624074	300.666667
1691.475988	308.333333
1693.327501	281.000000
1695.178613	307.000000
1697.029325	299.333333
1698.879635	288.000000
1700.727762	297.000000
1702.577273	297.333333
1704.421035	298.000000
1706.269746	298.666667
1708.112711	275.333333
1709.958843	308.333333
1711.801012	256.666667
1713.646347	258.666667
1715.485941	297.333333
1717.326919	305.333333
1719.169280	284.666667
1721.007685	280.666667
1722.847473	319.333333
1724.685086	265.000000
1726.522303	291.333333
1728.357347	309.333333
1730.193774	314.666667
1732.028029	321.333333
1733.861889	253.666667
1735.695355	283.666667
1737.524876	330.666667
1739.357555	269.666667
1741.186290	275.666667
1743.018182	264.000000
1744.846132	311.666667
1746.673691	257.000000
1748.500857	309.000000
1750.327632	292.333333
1752.154015	283.000000
1753.976462	293.333333
1755.802064	300.000000
1757.623731	298.666667
1759.446780	289.000000
1761.267667	291.333333
1763.088166	298.333333
1764.910045	293.000000
1766.726226	306.333333
1768.545558	265.333333
1770.360963	288.000000
1772.179518	323.333333
1773.994148	315.333333
1775.808391	303.000000
1777.622248	287.000000
1779.435718	298.666667
1781.247035	312.333333
1783.059732	267.333333
1784.872044	315.666667
1786.680438	308.666667
1788.490212	319.333333
1790.296072	316.666667
1792.105077	321.666667
1793.910169	293.000000
1795.716642	285.333333
1797.522731	284.333333
1799.324909	277.333333
1801.130232	257.333333
1802.931646	303.333333
1804.734440	298.000000
1806.533328	292.000000
1808.333597	289.666667
1810.133484	302.000000
1811.931229	276.333333
1813.728594	301.666667
1815.525579	271.000000
1817.322183	340.000000
1819.116648	309.333333
1820.912492	265.666667
1822.702681	291.000000
1824.497767	328.666667
1826.287201	289.666667
1828.079771	307.666667
1829.870206	311.666667
1831.658507	308.666667
1833.449943	319.000000
1835.235733	298.333333
1837.022903	278.666667
1838.807941	290.666667
1840.596113	296.666667
1842.380399	336.666667
1844.162555	300.666667
1845.946091	303.000000
1847.727498	313.000000
1849.510284	292.333333
1851.289189	267.000000
1853.069474	337.000000
1854.847632	351.000000
1856.627169	298.666667
1858.404581	317.000000
1860.179869	317.000000
1861.956535	318.333333
1863.731079	339.666667
1865.507001	304.000000
1867.277302	343.000000
1869.050731	325.000000
1870.822040	318.666667
1872.592978	333.333333
1874.365294	341.666667
1876.131996	320.666667
1877.901824	330.666667
1879.667788	330.333333
1881.436875	357.000000
1883.202101	318.000000
1884.966959	353.333333
1886.733194	346.333333
1888.495570	287.333333
1890.257579	325.333333
1892.019220	330.333333
1893.780495	305.333333
1895.541402	320.666667
1897.301943	311.333333
1899.060374	271.666667
1900.818439	316.333333
1902.574397	298.333333
1904.331731	295.666667
1906.088700	327.000000
1907.843562	320.666667
1909.596320	301.000000
1911.348713	279.666667
1913.102483	305.000000
1914.854149	314.000000
1916.603713	337.666667
1918.354652	272.666667
1920.105229	330.666667
1921.851966	309.333333
1923.600080	280.666667
1925.346094	291.333333
1927.093483	293.666667
1928.838775	331.333333
1930.581969	313.666667
1932.326538	298.000000
1934.069012	303.000000
1935.811125	294.333333
1937.552878	308.000000
1939.294271	295.000000
1941.033571	326.666667
1942.772512	284.000000
1944.511094	341.000000
1946.247585	351.666667
1947.983718	341.833333
1949.721225	332.000000
1951.454910	320.666667
1953.189970	317.666667
1954.922941	319.000000
1956.655556	291.666667
1958.387815	341.666667
1960.119717	329.666667
1961.849533	303.666667
1963.577264	316.000000
1965.306370	336.666667
1967.035121	326.000000
1968.761788	353.333333
1970.488101	302.333333
1972.215787	348.666667
1973.937937	314.000000
1975.663188	331.000000
1977.384632	328.666667
1979.109177	304.666667
1980.831641	345.333333
1982.550303	309.666667
1984.272063	308.333333
1985.990021	328.000000
1987.709352	343.000000
1989.424884	312.000000
1991.145236	322.000000
1992.861790	353.333333
1994.574547	301.666667
1996.290400	329.000000
1998.004181	314.000000
1999.717612	330.333333
2001.428972	313.666667
2003.141704	324.666667
2004.850646	359.000000
2006.562680	324.333333
2008.269206	315.666667
2009.978823	354.333333
2011.686374	284.000000
2013.393576	343.000000
2015.098713	299.333333
2016.803504	364.333333
2018.509666	337.000000
2020.212046	331.333333
2021.915797	351.666667
2023.617486	310.333333
2025.318830	314.666667
2027.019828	307.333333
2028.718765	307.333333
2030.419074	344.666667
2032.115608	313.000000
2033.813513	288.000000
2035.509359	298.666667
2037.208291	327.000000
2038.901737	296.666667
2040.596554	353.000000
2042.291029	308.666667
2043.981735	326.333333
2045.675525	357.000000
2047.365548	315.666667
2049.056942	362.333333
2050.746283	319.666667
2052.436994	320.333333
2054.123942	337.333333
2055.810551	321.333333
2057.498529	320.333333
2059.182748	319.333333
2060.868338	309.666667
2062.553588	322.666667
2064.236789	327.333333
2065.921361	326.333333
2067.600470	352.333333
2069.284364	321.666667
2070.962797	333.666667
2072.644308	354.666667
2074.322067	357.666667
2075.999490	348.000000
2077.678282	373.333333
2079.355032	360.333333
2081.029740	376.666667
2082.705817	336.666667
2084.379853	344.000000
2086.053555	342.000000
2087.726921	353.000000
2089.398248	371.333333
2091.069241	333.333333
2092.739900	373.666667
2094.410225	334.333333
2096.080216	330.000000
2097.748171	374.666667
2099.415793	273.000000
2101.081380	350.333333
2102.748336	378.000000
2104.413259	358.000000
2106.077850	343.666667
2107.740409	375.000000
2109.404336	341.666667
2111.066232	319.666667
2112.727798	363.666667
2114.389032	367.666667
2116.048238	336.666667
2117.707113	371.666667
2119.365659	342.000000
2121.023874	355.333333
2122.678367	334.000000
2124.335924	335.333333
2125.993152	368.666667
2127.646658	354.333333
2129.301532	366.666667
2130.952687	342.000000
2132.606905	360.666667
2134.257406	348.000000
2135.909273	349.333333
2137.555732	342.000000
2139.206946	329.333333
2140.854446	356.000000
2142.503313	331.333333
2144.150161	325.333333
2145.796684	337.000000
2147.442881	327.000000
2149.085370	382.666667
2150.730917	339.000000
2152.372757	330.333333
2154.017654	329.000000
2155.658845	281.000000
2157.299714	325.000000
2158.940258	346.333333
2160.578790	354.333333
2162.218688	344.000000
2163.854886	339.333333
2165.492450	362.666667
2167.129692	377.666667
2168.764924	319.000000
2170.399835	393.666667
2172.034423	334.000000
2173.668691	345.000000
2175.299265	354.666667
2176.932891	371.666667
2178.562825	349.333333
2180.194124	335.000000
2181.823418	357.000000
2183.452393	347.333333
2185.081048	356.000000
2186.709384	361.000000
2188.335718	322.666667
2189.961733	365.333333
2191.585746	362.666667
2193.211125	363.000000
2194.834503	365.333333
2196.459246	367.666667
2198.080308	359.666667
2199.701053	388.000000
2201.323163	381.666667
2202.943275	356.000000
2204.561390	352.333333
2206.179190	371.333333
2207.796675	406.333333
2209.413844	355.666667
2211.030698	399.000000
2212.647236	400.000000
2214.261782	351.666667
2215.874335	370.666667
2217.488252	364.000000
2219.100178	355.666667
2220.713467	375.666667
2222.324766	419.000000
2223.934075	349.333333
2225.544748	398.333333
2227.153432	367.000000
2228.761803	354.000000
2230.368188	376.000000
2231.975936	346.666667
2233.581697	374.666667
2235.187147	325.666667
2236.790612	343.333333
2238.395440	344.666667
2239.998284	355.000000
2241.599145	370.666667
2243.201369	338.333333
2244.801611	376.333333
2246.403215	417.000000
2248.001166	378.666667
2249.600480	362.000000
2251.197814	366.000000
2252.794840	339.333333
2254.393228	378.333333
2255.987967	397.666667
2257.580729	368.000000
2259.174854	384.333333
2260.770340	384.333333
2262.362181	402.666667
2263.953716	374.333333
2265.546613	381.666667
2267.134200	388.000000
2268.726483	366.000000
2270.313460	370.666667
2271.903464	388.666667
2273.488164	417.666667
2275.077558	385.333333
2276.661650	402.333333
2278.247102	387.666667
2279.830586	414.333333
2281.417095	391.666667
2282.999971	373.333333
2284.582544	337.666667
2286.164813	356.666667
2287.743452	388.666667
2289.325116	382.666667
2290.903151	379.000000
2292.484209	377.000000
2294.061640	387.000000
2295.637108	397.000000
2297.215598	388.666667
2298.790464	405.666667
2300.365029	347.333333
2301.939294	391.000000
2303.513258	381.000000
2305.086921	380.666667
2306.660285	368.666667
2308.230030	376.000000
2309.799476	323.333333
2311.371940	397.333333
2312.939130	360.000000
2314.509338	379.333333
2316.075931	332.000000
2317.643884	412.666667
2319.209881	354.000000
2320.775581	363.333333
2322.340983	379.333333
2323.904432	407.333333
2325.469240	394.333333
2327.030440	394.666667
2328.594654	470.666667
2330.153606	461.000000
2331.715573	417.000000
2333.275588	458.000000
2334.835309	359.000000
2336.393080	406.666667
2337.950556	368.666667
2339.507738	384.333333
2341.062972	400.333333
2342.617913	402.000000
2344.172559	420.666667
2345.726912	371.666667
2347.280972	366.000000
2348.834737	358.333333
2350.386558	384.000000
2351.936437	393.000000
2353.489323	379.333333
2355.036966	368.333333
2356.587618	363.333333
2358.134678	439.000000
2359.683096	336.333333
2361.231223	375.666667
2362.775761	367.333333
2364.321657	406.333333
2365.865615	369.666667
2367.410930	375.666667
2368.952660	393.333333
2370.495747	388.666667
2372.036898	372.000000
2373.577760	370.333333
2375.118333	381.666667
2376.658617	348.333333
2378.198612	363.666667
2379.735029	384.333333
2381.274447	401.333333
2382.810287	414.000000
2384.347485	381.000000
2385.881107	420.000000
2387.417729	379.666667
2388.952421	398.666667
2390.485183	387.000000
2392.017658	366.000000
2393.548205	362.666667
2395.081750	348.000000
2396.610084	405.000000
2398.139774	383.000000
2399.669179	408.666667
2401.198299	406.666667
2402.727134	411.666667
2404.250763	358.000000
2405.779028	429.666667
2407.302091	400.666667
2408.829787	383.666667
2410.350644	408.666667
2411.876134	381.333333
2413.398063	385.666667
2414.921348	368.333333
2416.442711	405.333333
2417.962155	392.666667
2419.482954	415.000000
2421.001835	373.000000
2422.520433	426.666667
2424.037114	423.000000
2425.555149	399.333333
2427.072903	379.333333
2428.587106	429.333333
2430.101028	429.666667
2431.614670	436.000000
2433.129667	390.000000
2434.641115	414.000000
2436.153918	406.666667
2437.664807	346.333333
2439.175418	403.666667
2440.684117	454.666667
2442.195802	419.000000
2443.703944	388.000000
2445.211808	409.333333
2446.719394	469.666667
2448.223439	424.333333
2449.730469	443.000000
2451.235591	419.000000
2452.740436	407.000000
2454.243374	447.666667
2455.746036	431.000000
2457.248421	468.000000
2458.748901	481.333333
2460.250734	405.333333
2461.750662	462.666667
2463.250315	409.666667
2464.749693	435.666667
2466.247168	452.666667
2467.742741	460.666667
2469.241294	401.333333
2470.736319	400.666667
2472.232696	411.000000
2473.725547	371.666667
2475.219751	384.666667
2476.713681	428.666667
2478.204087	395.333333
2479.697471	417.666667
2481.188957	431.000000
2482.678546	447.333333
2484.167863	453.333333
2485.655284	438.333333
2487.145681	418.666667
2488.632560	455.000000
2490.120790	413.000000
2491.605503	428.000000
2493.089947	411.000000
2494.575741	414.333333
2496.059644	409.666667
2497.544897	432.666667
2499.025017	428.666667
2500.508110	398.000000
2501.989312	421.666667
2503.470245	403.000000
2504.949289	425.000000
2506.428064	418.000000
2507.906571	411.333333
2509.384810	450.000000
2510.862780	453.666667
2512.337245	415.333333
2513.814680	432.333333
2515.288611	409.666667
2516.763892	455.666667
2518.238906	428.333333
2519.710419	372.000000
2521.183283	428.000000
2522.654264	432.666667
2524.126595	442.333333
2525.593812	440.666667
2527.063996	439.666667
2528.532299	437.666667
2530.000337	469.333333
2531.468110	463.666667
2532.935618	454.666667
2534.402861	447.666667
2535.866612	438.666667
2537.331713	425.000000
2538.794937	456.666667
2540.259510	419.666667
2541.720595	439.333333
2543.183029	406.333333
2544.645200	407.000000
2546.103885	442.333333
2547.567141	463.666667
2549.025302	434.333333
2550.484811	466.333333
2551.939226	479.666667
2553.398212	473.333333
2554.855326	489.666667
2556.310569	414.666667
2557.765550	436.000000
2559.218663	484.666667
2560.673124	429.333333
2562.125715	437.000000
2563.578047	443.333333
2565.028512	430.666667
2566.481932	461.000000
2567.930270	483.333333
2569.381563	420.333333
2570.830991	460.000000
2572.276946	443.666667
2573.725856	468.666667
2575.171296	484.333333
2576.618083	461.666667
2578.063008	472.333333
2579.507674	476.333333
2580.953688	460.000000
2582.396236	437.000000
2583.840131	498.666667
2585.280561	478.000000
2586.722338	466.000000
2588.162256	467.333333
2589.603521	442.000000
2591.041324	466.000000
2592.482077	489.333333
2593.917768	438.000000
2595.356408	456.000000
2596.793190	466.333333
2598.228117	482.666667
2599.665991	469.000000
2601.098808	448.333333
2602.532972	436.000000
2603.965282	482.333333
2605.398938	456.666667
2606.830741	495.666667
2608.262290	450.333333
2609.693587	437.666667
2611.123031	457.666667
2612.552223	461.666667
2613.979565	430.333333
2615.408252	441.666667
2616.836688	451.000000
2618.261676	455.000000
2619.688011	445.666667
2621.112497	486.000000
2622.538329	467.000000
2623.960717	484.666667
2625.384451	461.000000
2626.806338	498.666667
2628.227976	473.333333
2629.647768	482.000000
2631.068906	452.000000
2632.489794	443.333333
2633.907244	489.000000
2635.327633	495.333333
2636.744585	496.666667
2638.161288	471.000000
2639.577743	495.666667
2640.993950	489.000000
2642.409909	498.333333
2643.824027	502.666667
2645.237897	462.333333
2646.649929	473.333333
2648.063304	534.333333
2649.473250	432.000000
2650.886132	507.000000
2652.295585	495.666667
2653.704792	460.333333
2655.112163	473.000000
2656.522468	485.333333
2657.930938	499.666667
2659.337572	499.666667
2660.743961	515.666667
2662.148516	478.333333
2663.554415	470.000000
2664.958481	522.666667
2666.362302	464.000000
2667.765879	452.333333
2669.167625	485.333333
2670.570714	470.000000
2671.970385	471.666667
2673.371400	534.333333
2674.768999	501.666667
2676.169527	492.333333
2677.566641	483.666667
2678.965098	515.333333
2680.361728	493.000000
2681.758115	566.000000
2683.154260	502.666667
2684.548579	525.333333
2685.944241	526.666667
2687.336494	524.000000
2688.730089	499.333333
2690.121860	500.333333
2691.514974	509.000000
2692.906264	494.333333
2694.295731	488.333333
2695.684958	504.000000
2697.073946	471.000000
2698.464275	489.333333
2699.849621	495.333333
2701.237890	508.333333
2702.624339	526.666667
2704.010549	551.333333
2705.396520	485.000000
2706.779093	545.666667
2708.163008	510.000000
2709.546685	503.333333
2710.930123	480.000000
2712.310167	515.333333
2713.691551	525.333333
2715.071121	534.666667
2716.452031	510.666667
2717.831127	521.000000
2719.208409	460.666667
2720.587032	539.333333
2721.963842	499.666667
2723.340415	545.333333
2724.716753	506.666667
2726.091280	526.000000
2727.467147	470.000000
2728.839627	508.666667
2730.215023	488.666667
2731.585459	516.333333
2732.957236	502.000000
2734.328778	507.000000
2735.698512	539.333333
2737.069587	512.666667
2738.438853	532.000000
2739.807886	503.333333
2741.175113	515.666667
2742.542106	534.333333
2743.908867	508.000000
2745.275396	504.333333
2746.640119	561.333333
2748.004610	535.333333
2749.368870	559.333333
2750.732897	505.666667
2752.096693	554.000000
2753.457115	533.666667
2754.820447	542.666667
2756.178837	544.000000
2757.540137	522.000000
2758.898067	505.666667
2760.258905	464.666667
2761.617944	528.000000
2762.973614	546.000000
2764.332192	522.000000
2765.687403	503.000000
2767.042385	493.666667
2768.395571	501.666667
2769.751662	525.666667
2771.104390	489.666667
2772.456890	528.000000
2773.809161	510.000000
2775.162770	521.666667
2776.513019	523.000000
2777.861473	569.666667
2779.212833	512.333333
2780.560833	538.000000
2781.910171	539.333333
2783.257717	534.666667
2784.605037	536.333333
2785.952130	538.333333
2787.297432	507.000000
2788.642507	532.666667
2789.987357	535.333333
2791.331981	521.000000
2792.673253	531.000000
2794.015863	556.333333
2795.358247	553.666667
2796.700406	561.333333
2798.039216	567.000000
2799.380926	590.333333
2800.719288	606.000000
2802.058986	611.333333
2803.396900	551.666667
2804.733029	597.666667
2806.068934	586.333333
2807.406177	552.666667
2808.741636	575.333333
2810.076872	611.333333
2811.410325	579.666667
2812.745115	602.666667
2814.076565	570.333333
2815.410910	551.333333
2816.740357	579.000000
2818.071141	616.666667
2819.401703	551.000000
2820.730486	593.000000
2822.060605	579.666667
2823.388946	554.000000
2824.717066	556.000000
2826.043408	606.000000
2827.371087	556.000000
2828.695432	532.333333
2830.021114	536.000000
2831.345020	606.666667
2832.668707	551.333333
2833.993729	524.666667
2835.315421	537.000000
2836.636895	553.333333
2837.958150	567.666667
2839.279186	606.666667
2840.598449	562.333333
2841.919048	547.000000
2843.237876	501.666667
2844.556485	526.666667
2845.873323	572.333333
2847.189944	588.666667
2848.506348	541.000000
2849.820982	514.333333
2851.136952	553.666667
2852.449601	541.333333
2853.763585	574.333333
2855.077353	547.333333
2856.390904	518.000000
2857.702689	522.000000
2859.012707	557.333333
2860.324060	556.333333
2861.632098	543.666667
2862.941470	616.333333
2864.250628	559.000000
2865.559570	573.666667
2866.866748	550.333333
2868.172164	594.000000
2869.478913	586.333333
2870.783901	619.000000
2872.088675	611.666667
2873.391687	623.333333
2874.697580	631.333333
2875.998619	566.666667
2877.300992	565.000000
2878.601605	608.333333
2879.903552	585.000000
2881.205285	629.333333
2882.503715	593.333333
2883.803478	556.000000
2885.101484	586.000000
2886.399278	564.000000
2887.695316	606.666667
2888.992687	524.666667
2890.288302	547.666667
2891.583706	576.000000
2892.878899	515.333333
2894.170795	545.000000
2895.465567	587.333333
2896.757042	598.666667
2898.049850	544.000000
2899.342448	549.666667
2900.631752	593.000000
2901.922388	604.000000
2903.211273	568.333333
2904.501490	600.000000
2905.788416	567.000000
2907.076674	569.333333
2908.363183	603.666667
2909.649483	582.000000
2910.935576	582.333333
2912.219920	573.333333
2913.507135	599.333333
2914.789524	584.333333
2916.073245	578.666667
2917.355220	578.333333
2918.636987	608.333333
2919.917010	590.333333
2921.199902	624.000000
2922.481049	597.000000
2923.758914	581.333333
2925.039648	597.000000
2926.317101	559.000000
2927.594348	629.333333
2928.869853	597.000000
2930.148226	628.333333
2931.421785	538.666667
2932.698211	618.666667
2933.972896	626.333333
2935.245840	593.333333
2936.520116	619.666667
2937.792652	656.666667
2939.064983	605.000000
2940.334042	629.333333
2941.605966	618.666667
2942.876152	626.333333
2944.146134	662.000000
2945.415913	628.000000
2946.683956	637.333333
2947.950262	626.000000
2949.216367	611.666667
2950.483801	655.666667
2951.749501	582.333333
2953.014998	628.666667
2954.280293	578.000000
2955.542323	603.000000
2956.805683	588.666667
2958.068842	612.333333
2959.330269	565.333333
2960.593025	602.666667
2961.854049	583.333333
2963.113343	618.333333
2964.372437	596.333333
2965.631330	578.000000
2966.890023	579.000000
2968.148516	598.000000
2969.405280	586.000000
2970.661844	597.000000
2971.916681	607.333333
2973.172846	663.000000
2974.425757	627.000000
2975.679997	623.666667
2976.934037	595.666667
2978.186353	634.666667
2979.438469	630.333333
2980.688861	634.666667
2981.942108	602.333333
2983.190578	627.000000
2984.441903	671.333333
2985.689978	626.666667
2986.937857	598.333333
2988.185538	654.333333
2989.433022	653.000000
2990.678785	646.666667
2991.924352	631.000000
2993.171246	661.000000
2994.414896	655.333333
2995.659874	634.000000
2996.901608	668.666667
2998.146194	681.000000
2999.389061	666.000000
3000.628687	627.333333
3001.871163	659.333333
3003.110399	674.000000
3004.350963	640.000000
3005.589810	698.000000
3006.828463	681.333333
3008.065400	664.000000
3009.303665	671.666667
3010.540214	672.333333
3011.776570	646.666667
3013.012732	673.333333
3014.247180	687.333333
3015.481436	695.333333
3016.715498	666.333333
3017.947848	716.000000
3019.178486	698.666667
3020.411970	706.333333
3021.643742	710.000000
3022.873804	720.000000
3024.103673	656.333333
3025.331833	709.333333
3026.561320	684.000000
3027.789097	667.000000
3029.016683	701.666667
3030.245596	727.666667
3031.469766	685.333333
3032.696779	668.333333
3033.920568	669.333333
3035.145684	713.666667
3036.369093	679.000000
3037.592312	666.000000
3038.813826	685.333333
3040.038181	693.333333
3041.257801	668.333333
3042.478747	719.666667
3043.699504	680.333333
3044.918557	661.666667
3046.138935	713.333333
3047.356097	717.666667
3048.574585	709.333333
3049.791370	681.666667
3051.007968	696.000000
3052.224377	661.666667
3053.437574	732.000000
3054.653608	724.333333
3055.866430	685.666667
3057.082089	711.333333
3058.293025	709.666667
3059.505286	702.333333
3060.717361	705.000000
3061.929248	724.000000
3063.139439	732.666667
3064.349443	745.000000
3065.559261	713.666667
3066.767383	684.666667
3067.975320	685.666667
3069.181561	694.000000
3070.389127	714.333333
3071.594998	694.333333
3072.800685	674.333333
3074.006186	663.666667
3075.209994	675.666667
3076.415126	679.333333
3077.618565	735.666667
3078.820313	674.666667
3080.021876	661.666667
3081.223256	664.000000
3082.424452	620.000000
3083.623958	668.333333
3084.823281	656.666667
3086.023927	636.333333
3087.222883	644.333333
3088.418645	662.666667
3089.617236	642.333333
3090.812633	687.000000
3092.009353	651.666667
3093.202881	637.666667
3094.399237	664.000000
3095.593907	707.333333
3096.785385	653.000000
3097.981196	661.000000
3099.172312	639.666667
3100.364752	655.000000
3101.554004	679.333333
3102.746081	667.333333
3103.936475	653.333333
3105.123683	684.666667
3106.312213	671.666667
3107.502066	730.000000
3108.688735	665.333333
3109.875223	659.000000
3111.061533	680.666667
3112.249164	628.000000
3113.433613	680.666667
3114.616383	691.000000
3115.801975	700.000000
3116.985888	662.333333
3118.168122	657.000000
3119.350177	725.666667
3120.532054	712.333333
3121.713753	706.666667
3122.893775	738.666667
3124.072120	704.666667
3125.253285	695.666667
3126.431275	718.333333
3127.609089	646.333333
3128.786725	728.666667
3129.962686	731.000000
3131.138470	675.666667
3132.315576	662.333333
3133.491007	677.000000
3134.664765	664.000000
3135.836850	654.333333
3137.010257	664.666667
3138.183487	701.000000
3139.355046	686.333333
3140.527925	721.333333
3141.697637	684.000000
3142.868670	712.000000
3144.038033	687.333333
3145.205725	722.666667
3146.376233	734.000000
3147.542083	744.000000
3148.712241	715.666667
3149.877743	724.666667
3151.043070	779.000000
3152.208224	768.000000
3153.373205	719.000000
3154.539505	740.000000
3155.701153	772.666667
3156.864120	771.000000
3158.026915	749.000000
3159.189537	791.666667
3160.350494	775.000000
3161.511278	760.333333
3162.671890	770.333333
3163.830838	774.666667
3164.989615	740.666667
3166.148220	749.000000
3167.306652	759.000000
3168.464914	787.333333
3169.621513	730.666667
3170.776451	752.333333
3171.932708	780.666667
3173.087304	750.333333
3174.241730	781.000000
3175.394496	729.666667
3176.547091	793.000000
3177.699517	768.000000
3178.851773	741.000000
3180.003858	741.333333
3181.152798	739.333333
3182.304544	765.000000
3183.454632	749.666667
3184.603064	769.333333
3185.751326	770.666667
3186.899420	775.000000
3188.047345	811.333333
3189.193614	798.666667
3190.339715	779.000000
3191.484162	743.000000
3192.628441	743.666667
3193.772552	825.000000
3194.917980	778.333333
3196.060270	763.666667
3197.202393	784.666667
3198.344348	781.333333
3199.486136	789.333333
3200.627757	763.333333
3201.766243	776.666667
3202.906046	832.000000
3204.047167	792.000000
3205.185153	801.333333
3206.321490	784.666667
3207.457661	796.333333
3208.595149	719.000000
3209.730989	769.000000
3210.868146	799.666667
3212.000690	841.000000
3213.137516	793.333333
3214.269730	769.666667
3215.403261	824.666667
3216.536628	740.000000
3217.666867	707.666667
3218.799904	798.333333
3219.929815	776.666667
3221.061042	768.333333
3222.189145	783.666667
3223.320044	815.333333
3224.449299	773.000000
3225.576911	783.000000
3226.701400	833.333333
3227.830165	799.666667
3228.955808	750.666667
3230.081289	817.666667
3231.205128	843.333333
3232.331761	841.333333
3233.453797	870.333333
3234.577149	818.000000
3235.700339	854.666667
3236.823366	835.666667
3237.944755	789.000000
3239.065981	799.666667
3240.185570	752.333333
3241.304997	829.000000
3242.422786	810.000000
3243.543367	800.000000
3244.660835	816.666667
3245.778142	811.666667
3246.895289	850.000000
3248.010800	821.000000
3249.127625	808.000000
3250.241341	824.333333
3251.357846	762.000000
3252.472717	845.000000
3253.584479	788.333333
3254.696081	823.333333
3255.808999	770.333333
3256.921757	788.333333
3258.031409	852.000000
3259.142376	813.000000
3260.253184	790.666667
3261.362360	876.333333
3262.469906	845.000000
3263.578765	843.333333
3264.687467	862.000000
3265.793066	876.333333
3266.899979	889.000000
3268.005263	902.666667
3269.111861	830.333333
3270.215359	870.666667
3271.320172	844.666667
3272.424827	824.666667
3273.526383	845.000000
3274.627783	854.000000
3275.730497	842.333333
3276.833055	834.666667
3277.932516	864.666667
3279.034761	837.666667
3280.133910	808.666667
3281.231435	849.666667
3282.328804	832.666667
3283.428955	856.333333
3284.526014	829.666667
3285.622917	815.333333
3286.719665	844.000000
3287.811855	819.000000
3288.908293	835.000000
3290.003109	819.000000
3291.097771	821.000000
3292.190811	811.666667
3293.283696	859.333333
3294.374962	840.666667
3295.467539	823.333333
3296.558497	852.666667
3297.647835	846.333333
3298.737020	857.000000
3299.827518	869.666667
3300.914931	802.666667
3302.002191	866.666667
3303.090764	829.666667
3304.179185	859.333333
3305.263058	895.333333
3306.351173	872.333333
3307.436206	906.666667
3308.519624	866.000000
3309.604354	911.000000
3310.687468	851.000000
3311.771895	853.000000
3312.853243	859.666667
3313.935903	918.000000
3315.016949	855.333333
3316.097844	918.333333
3317.177125	893.000000
3318.256256	905.333333
3319.336699	893.000000
3320.414067	867.000000
3321.492747	918.333333
3322.569815	896.000000
3323.646734	892.333333
3324.722041	884.666667
3325.797199	936.333333
3326.873668	931.000000
3327.947067	882.666667
3329.020317	915.666667
3330.094877	940.000000
3331.167829	944.333333
3332.239172	891.333333
3333.311826	901.666667
3334.381414	913.666667
3335.452312	894.000000
3336.521603	910.666667
3337.592205	938.000000
3338.661200	937.000000
3339.728589	928.333333
3340.794373	916.333333
3341.864383	949.000000
3342.931330	932.000000
3343.995215	923.666667
3345.061868	970.333333
3346.126916	986.000000
3347.190361	976.000000
3348.253660	953.333333
3349.316812	965.666667
3350.379818	997.666667
3351.442678	966.000000
3352.503936	925.666667
3353.562137	1001.666667
3354.624558	953.333333
3355.683924	953.666667
3356.743144	997.333333
3357.803673	912.000000
3358.859694	954.333333
3359.918478	952.333333
3360.972755	998.000000
3362.029796	965.666667
3363.085238	984.666667
3364.141990	954.333333
3365.197143	969.666667
3366.250699	959.666667
3367.302659	969.000000
3368.357380	970.000000
3369.409052	964.333333
3370.460581	1027.000000
3371.513418	990.666667
3372.563208	971.666667
3373.614307	964.666667
3374.662360	980.666667
3375.713172	925.000000
3376.760940	959.333333
3377.808565	974.333333
3378.856047	915.333333
3379.901937	942.666667
3380.949135	925.333333
3381.993291	929.000000
3383.040205	964.333333
3384.085527	975.666667
3385.127808	986.000000
3386.169949	1022.666667
3387.213397	1005.666667
3388.256704	957.666667
3389.298422	1010.333333
3390.339998	931.000000
3391.381433	987.000000
3392.421280	1027.666667
3393.459538	1015.333333
3394.499104	973.000000
3395.538530	953.333333
3396.576368	954.666667
3397.612619	960.666667
3398.648731	932.333333
3399.686150	908.666667
3400.720536	920.000000
3401.756229	960.333333
3402.791783	951.666667
3403.824306	875.000000
3404.859582	1003.333333
3405.891827	953.666667
3406.923934	962.000000
3407.954457	1012.333333
3408.986287	1011.333333
3410.017979	963.333333
3411.046643	976.000000
3412.075170	985.000000
3413.105003	983.000000
3414.134699	1022.666667
3415.161369	994.333333
3416.189346	1003.000000
3417.214298	1000.333333
3418.242000	999.666667
3419.266679	971.666667
3420.292664	1013.666667
3421.317069	1038.666667
3422.341338	972.666667
3423.364028	1046.333333
3424.386582	1026.666667
3425.410442	1013.333333
3426.431282	1011.666667
3427.451986	980.000000
3428.473997	1043.333333
3429.492989	1032.000000
3430.511845	1012.333333
3431.532008	1018.000000
3432.549154	1017.333333
