-116.707459	-5.333333
-114.037859	17.666667
-111.371194	13.666667
-108.705281	35.333333
-106.042300	7.333333
-103.377890	13.333333
-100.716410	24.333333
-98.053501	16.666667
-95.395698	19.000000
-92.736466	35.000000
-90.077982	26.333333
-87.422422	34.666667
-84.765434	0.333333
-82.113544	18.666667
-79.460224	-24.666667
-76.809823	1.333333
-74.157993	1.333333
-71.511254	16.333333
-68.863086	25.333333
-66.215660	38.000000
-63.571148	11.333333
-60.925208	44.000000
-58.284349	-11.666667
-55.642061	61.333333
-53.002682	20.666667
-50.361873	29.666667
-47.721805	62.333333
-45.086809	39.333333
-42.450385	20.333333
-39.816863	25.000000
-37.181913	41.000000
-34.552028	45.000000
-31.918551	75.666667
-29.290136	50.666667
-26.662455	60.666667
-24.033345	74.000000
-21.409292	105.333333
-18.781650	120.666667
-16.159061	84.666667
-13.537204	200.666667
-10.916077	362.666667
-8.295680	929.666667
-5.678172	3132.333333
-3.059235	10010.333333
-0.443183	29233.000000
2.172140	55588.333333
4.786736	29530.000000
7.398449	3645.666667
10.011591	451.000000
12.619699	229.000000
15.231389	142.666667
17.838048	86.333333
20.446135	111.000000
23.053498	69.000000
25.655836	98.666667
28.261752	67.333333
30.862646	51.000000
33.464968	68.000000
36.062273	78.000000
38.663153	45.666667
41.259018	46.000000
43.856312	35.000000
46.452886	56.000000
49.044451	12.000000
51.637444	23.666667
54.227576	4.666667
56.819136	38.000000
59.407836	7.666667
61.997963	61.000000
64.583091	27.666667
67.169647	39.333333
69.755489	30.000000
72.338477	53.000000
74.922891	5.000000
77.500177	47.333333
80.081029	30.666667
82.659032	75.000000
85.236325	8.000000
87.815044	29.333333
90.388781	3.666667
92.963946	36.000000
95.536267	17.666667
98.107880	9.333333
100.676653	20.000000
103.246853	59.000000
105.814215	43.000000
108.383002	-9.333333
110.948953	23.666667
113.512069	31.333333
116.078741	32.333333
118.636192	31.666667
121.199328	38.000000
123.757504	49.000000
126.319235	89.333333
128.876009	72.666667
131.434210	151.333333
133.987457	228.666667
136.540007	278.666667
139.096107	453.333333
141.647259	503.000000
144.197714	608.666667
146.747471	706.333333
149.294409	765.333333
151.840652	790.666667
154.388320	881.666667
156.935292	865.000000
159.477329	868.666667
162.018672	906.000000
164.559322	868.000000
167.101398	833.000000
169.640662	838.333333
172.177118	804.000000
174.712882	836.000000
177.250072	822.333333
179.786571	817.333333
182.320264	792.000000
184.851153	802.666667
187.381355	838.666667
189.912981	764.666667
192.441806	828.333333
194.967832	826.666667
197.493172	865.333333
200.019937	808.666667
202.543906	859.333333
205.067190	825.000000
207.589789	802.333333
210.109595	823.333333
212.628718	811.333333
215.147158	817.333333
217.667022	824.666667
220.179885	824.333333
222.696279	860.000000
225.211991	815.666667
227.722813	777.666667
230.235060	824.333333
232.744525	821.666667
235.253311	780.666667
237.761418	782.333333
240.270950	772.333333
242.775601	805.000000
245.279576	814.666667
247.784975	847.333333
250.285499	892.000000
252.789547	929.000000
255.286623	1061.000000
257.787223	1179.666667
260.285051	1483.000000
262.782206	1940.666667
265.278688	2470.000000
267.770307	2780.666667
270.265446	2447.000000
272.757818	1833.666667
275.249520	1413.666667
277.738459	1211.000000
280.228822	1074.333333
282.716422	1025.666667
285.201263	1081.000000
287.689619	1119.666667
290.171035	1097.000000
292.655965	1046.333333
295.136050	882.666667
297.619647	857.333333
300.098401	809.666667
302.578579	779.333333
305.056004	773.666667
307.532766	764.000000
310.008865	762.333333
312.482215	737.333333
314.954903	844.000000
317.426930	883.333333
319.898296	949.000000
322.366917	985.333333
324.834880	1021.666667
327.304264	922.666667
329.768826	908.333333
332.236892	836.333333
334.700138	843.333333
337.162726	801.666667
339.624658	765.333333
342.085933	817.000000
344.544474	767.333333
347.004437	801.666667
349.461667	797.666667
351.918243	774.666667
354.374165	844.666667
356.827357	771.666667
359.281972	837.000000
361.731785	760.000000
364.185094	753.000000
366.633605	774.000000
369.081464	820.666667
371.530746	830.666667
373.975234	807.666667
376.421144	772.333333
378.866404	728.333333
381.308946	738.000000
383.750840	737.000000
386.192087	729.000000
388.630618	757.333333
391.070571	722.333333
393.507810	775.000000
395.942337	684.666667
398.380352	711.000000
400.813590	744.666667
403.248249	677.333333
405.678136	706.333333
408.111508	752.333333
410.540110	731.000000
412.968070	720.333333
415.397452	694.333333
417.822068	737.333333
420.248106	761.333333
422.673503	747.333333
425.098260	748.000000
427.518259	757.666667
429.939679	733.333333
432.358402	715.666667
434.778546	756.666667
437.195995	726.000000
439.614864	713.000000
442.031040	706.000000
444.442468	763.000000
446.857374	755.333333
449.269589	725.666667
451.681170	745.333333
454.092117	737.333333
456.500378	751.333333
458.908006	765.000000
461.315002	739.666667
463.721367	708.000000
466.125049	682.666667
468.528101	711.666667
470.930523	712.333333
473.332315	656.666667
475.731430	695.000000
478.131964	663.666667
480.531869	727.666667
482.927051	737.666667
485.325700	722.333333
487.719629	723.333333
490.112932	729.333333
492.505609	695.666667
494.897661	707.333333
497.291131	666.000000
499.679889	678.333333
502.065981	699.333333
504.453493	637.666667
506.840382	608.333333
509.224607	585.666667
511.610250	553.333333
513.993232	558.333333
516.373553	541.666667
518.755293	577.000000
521.134374	550.333333
523.514874	539.000000
525.892716	506.333333
528.267903	528.666667
530.642472	540.333333
533.018459	549.000000
535.391794	519.000000
537.766546	532.000000
540.136613	516.000000
542.506064	489.000000
544.876933	495.666667
547.243122	426.000000
549.610729	426.333333
551.975690	429.333333
554.340038	430.333333
556.703773	447.666667
559.068926	462.333333
561.429407	461.666667
563.791306	412.666667
566.150564	457.333333
568.507185	429.666667
570.867250	447.000000
573.220624	423.000000
575.577443	406.000000
577.931627	433.000000
580.285202	430.333333
582.638170	405.666667
584.988505	388.000000
587.340258	408.000000
589.685334	413.000000
592.035874	418.666667
594.379740	392.666667
596.729068	430.666667
599.073747	396.000000
601.415802	422.333333
603.759274	411.666667
606.100123	411.333333
608.440370	403.333333
610.777996	396.000000
613.119057	396.666667
615.455480	385.333333
617.793320	444.333333
620.128543	367.666667
622.461150	371.666667
624.795173	370.666667
627.126582	385.000000
629.457393	372.333333
631.787607	373.333333
634.117222	392.000000
636.442214	377.000000
638.772648	385.333333
641.098461	406.000000
643.421666	330.333333
645.746288	327.333333
648.068304	364.666667
650.389726	318.000000
652.708546	379.333333
655.028781	329.666667
657.348423	379.666667
659.665464	380.333333
661.981913	346.666667
664.295764	368.000000
666.611031	359.666667
668.923701	336.333333
671.237786	380.000000
673.547271	352.333333
675.858172	343.333333
678.166480	374.000000
680.474200	314.333333
682.783334	315.333333
685.087876	308.000000
687.391832	342.666667
689.695202	321.666667
691.999986	347.333333
694.300184	347.000000
696.601796	321.333333
698.902823	277.000000
701.199269	308.333333
703.497130	315.000000
705.794407	289.000000
708.091101	274.666667
710.383219	320.333333
712.678748	312.000000
714.969703	290.333333
717.262073	311.000000
719.551868	305.666667
721.841082	333.666667
724.129717	328.666667
726.415779	314.666667
728.703256	349.333333
730.988161	285.000000
733.272489	255.333333
735.554248	317.000000
737.837421	294.333333
740.120017	320.666667
742.398057	305.333333
744.677512	308.000000
746.956390	303.666667
749.234694	285.333333
751.508448	327.333333
753.783615	348.000000
756.058209	282.000000
758.330244	307.333333
760.603692	300.666667
762.874582	330.000000
765.142916	341.666667
767.412663	296.333333
769.679856	322.333333
771.946478	335.000000
774.212530	295.666667
776.476031	326.000000
778.740945	305.666667
781.005289	273.333333
783.265104	315.333333
785.526331	338.000000
787.786991	338.000000
790.045105	327.000000
792.300674	293.000000
794.559634	334.666667
796.812095	335.666667
799.069922	247.666667
801.323231	350.000000
803.574000	316.000000
805.826181	296.666667
808.075823	297.666667
810.326878	306.666667
812.573421	312.333333
814.821376	301.666667
817.066797	284.000000
819.313629	313.000000
821.559900	286.333333
823.801666	318.000000
826.046816	300.000000
828.285493	314.666667
830.527552	275.333333
832.765113	277.333333
835.004086	289.333333
837.240532	282.666667
839.478389	262.000000
841.713721	270.333333
843.946530	259.666667
846.180750	265.333333
848.412447	281.666667
850.643590	258.666667
852.874178	279.333333
855.104212	285.666667
857.333692	276.000000
859.558690	270.666667
861.787063	260.666667
864.010956	330.000000
866.236261	240.333333
868.457090	254.000000
870.681291	269.666667
872.901019	226.000000
875.122157	235.333333
877.342745	236.333333
879.560824	226.333333
881.780312	226.666667
883.995334	247.666667
886.209808	260.000000
888.423735	250.333333
890.637115	268.333333
892.849947	230.000000
895.062233	275.333333
897.272016	236.333333
899.481254	259.666667
901.689947	269.666667
903.896141	246.666667
906.103744	291.666667
908.308849	273.333333
910.513411	281.333333
912.715478	228.000000
914.918954	248.000000
917.119936	257.333333
919.320376	254.666667
921.522225	253.666667
923.717683	251.666667
925.916500	252.000000
928.110878	235.333333
930.308614	268.666667
932.501914	259.000000
934.696623	279.000000
936.888846	268.000000
939.080530	240.000000
941.271677	244.333333
943.460341	241.666667
945.648469	246.333333
947.834116	267.000000
950.023115	281.333333
952.207691	272.333333
954.391732	255.666667
956.579123	278.333333
958.758210	270.333333
960.940648	305.000000
963.122552	287.000000
965.301981	276.000000
967.478938	341.000000
969.657303	309.000000
971.837075	312.666667
974.010498	298.000000
976.187267	332.000000
978.359629	354.333333
980.533399	321.333333
982.702765	339.666667
984.875475	355.000000
987.045720	309.666667
989.215436	354.333333
991.384623	373.666667
993.549413	344.666667
995.717544	365.333333
997.881281	340.000000
1000.046424	354.000000
1002.209108	329.000000
1004.371267	312.333333
1006.530969	348.333333
1008.690146	344.000000
1010.850730	348.333333
1013.008859	385.000000
1015.166465	345.666667
1017.323547	356.666667
1019.480105	367.000000
1021.632284	399.000000
1023.785870	362.000000
1025.938934	368.333333
1028.089549	414.333333
1030.241571	376.333333
1032.389219	382.333333
1034.540199	424.333333
1036.686808	413.666667
1038.832898	349.333333
1040.978470	414.000000
1043.125447	419.000000
1045.266135	418.000000
1047.410153	413.333333
1049.551730	428.666667
1051.692791	425.000000
1053.835256	426.666667
1055.971442	433.666667
1058.110953	434.333333
1060.246110	403.333333
1062.384591	431.333333
1064.518718	420.333333
1066.652332	429.666667
1068.787351	406.666667
1070.918020	393.666667
1073.050094	444.000000
1075.179739	351.000000
1077.308872	405.666667
1079.437493	396.333333
1081.565603	414.666667
1083.691287	414.333333
1085.816461	402.333333
1087.943039	395.333333
1090.065279	361.333333
1092.188924	352.333333
1094.308234	350.666667
1096.432774	384.000000
1098.551068	298.333333
1100.670767	345.000000
1102.788047	341.666667
1104.904821	339.000000
1107.021088	344.666667
1109.134939	315.333333
1111.250195	350.666667
1113.361127	350.000000
1115.475372	322.666667
1117.585296	315.000000
1119.696624	307.000000
1121.807447	328.000000
1123.913954	296.000000
1126.023771	304.666667
1128.129273	319.000000
1130.236178	278.333333
1132.336868	340.000000
1134.442770	353.666667
1136.544363	304.333333
1138.647359	313.666667
1140.749854	286.666667
1142.846142	327.666667
1144.947637	291.333333
1147.044830	304.666667
1149.141525	285.000000
1151.237721	275.000000
1153.333420	256.333333
1155.428620	324.000000
1157.521424	275.000000
1159.615631	291.666667
1161.703646	309.333333
1163.796859	299.333333
1165.883884	273.000000
1167.974208	325.666667
1170.060244	258.333333
1172.149579	294.666667
1174.232732	281.666667
1176.317287	260.000000
1178.403244	283.333333
1180.484919	311.000000
1182.567996	250.666667
1184.648687	294.666667
1186.728886	273.000000
1188.808594	289.000000
1190.887811	311.000000
1192.964646	283.666667
1195.039100	300.666667
1197.116845	284.000000
1199.190321	283.000000
1201.265197	245.333333
1203.335806	278.000000
1205.407816	265.666667
1207.477451	272.666667
1209.548486	237.333333
1211.619033	269.333333
1213.685319	233.333333
1215.753006	270.333333
1217.818321	277.333333
1219.885036	228.666667
1221.947495	286.666667
1224.013239	280.000000
1226.074729	267.666667
1228.137620	272.000000
1230.198143	281.666667
1232.258182	253.333333
1234.317739	272.000000
1236.374930	246.333333
1238.431640	279.666667
1240.485986	252.333333
1242.543614	266.000000
1244.598879	246.000000
1246.649903	241.666667
1248.702327	251.333333
1250.754271	227.666667
1252.803857	250.000000
1254.852964	271.666667
1256.901593	244.333333
1258.949743	255.000000
1260.997414	223.666667
1263.040855	288.333333
1265.087572	263.333333
1267.131935	234.666667
1269.175822	291.333333
1271.217357	252.000000
1273.256543	274.666667
1275.299002	233.333333
1277.337238	274.333333
1279.376873	239.000000
1281.416033	264.666667
1283.450974	258.666667
1285.487314	275.000000
1287.521310	276.666667
1289.556703	243.000000
1291.587884	265.000000
1293.620462	252.000000
1295.652569	250.000000
1297.682335	243.000000
1299.713498	250.000000
1301.740455	220.000000
1303.768809	216.666667
1305.792958	257.333333
1307.820373	236.333333
1309.843585	216.333333
1311.868195	226.666667
1313.890471	255.666667
1315.914144	269.666667
1317.935484	254.000000
1319.956356	269.666667
1321.976761	230.333333
1323.992973	227.333333
1326.010582	241.333333
1328.025863	230.000000
1330.044403	216.666667
1332.058754	264.333333
1334.070779	264.333333
1336.086061	265.666667
1338.097158	235.333333
1340.109652	240.666667
1342.117963	229.333333
1344.129529	215.666667
1346.135057	230.000000
1348.143840	222.666667
1350.148445	210.666667
1352.156304	211.333333
1354.163701	232.333333
1356.165067	209.000000
1358.167829	298.666667
1360.170132	219.666667
1362.171975	260.666667
1364.173358	266.333333
1366.172428	256.000000
1368.171039	272.333333
1370.169192	221.000000
1372.166886	260.000000
1374.160418	264.666667
1376.155345	228.666667
1378.149816	273.000000
1380.143830	238.666667
1382.135537	258.333333
1384.126789	256.000000
1386.115735	271.000000
1388.106076	230.000000
1390.095962	228.000000
1392.083544	261.000000
1394.070673	211.000000
1396.055500	252.333333
1398.041722	226.333333
1400.025644	266.000000
1402.009113	263.333333
1403.992129	241.000000
1405.972848	241.000000
1407.954961	234.000000
1409.934778	274.333333
1411.914143	254.000000
1413.889370	268.666667
1415.867835	257.666667
1417.844007	239.666667
1419.819730	234.666667
1421.795003	218.333333
1423.767985	267.000000
1425.740519	225.666667
1427.712605	222.666667
1429.684244	245.000000
1431.651754	228.666667
1433.624338	262.000000
1435.589116	259.000000
1437.558967	247.000000
1439.524694	263.333333
1441.491813	280.000000
1443.456649	224.000000
1445.417365	266.333333
1447.383149	267.000000
1449.342978	247.000000
1451.304201	249.000000
1453.266816	289.333333
1455.225316	264.000000
1457.183373	242.666667
1459.140989	280.333333
1461.098162	247.000000
1463.053060	229.000000
1465.009351	277.333333
1466.963367	265.666667
1468.916942	292.333333
1470.868245	242.000000
1472.820941	236.000000
1474.771364	264.666667
1476.721349	241.333333
1478.670895	261.000000
1480.618172	252.333333
1482.563181	233.000000
1484.509583	263.666667
1486.455547	274.000000
1488.401074	299.666667
1490.344335	250.000000
1492.287161	252.333333
1494.227723	249.000000
1496.169676	260.333333
1498.109367	241.333333
1500.048624	245.666667
1501.987445	269.333333
1503.924007	264.333333
1505.861960	280.666667
1507.797654	253.000000
1509.732915	274.333333
1511.665920	260.666667
1513.598492	273.666667
1515.530632	285.000000
1517.462340	283.333333
1519.391794	267.333333
1521.322639	288.666667
1523.253052	306.333333
1525.179393	281.333333
1527.107125	258.000000
1529.032606	251.333333
1530.957658	281.333333
1532.882281	308.000000
1534.806475	291.000000
1536.728421	283.000000
1538.651758	286.333333
1540.572848	310.000000
1542.491694	294.000000
1544.411930	266.666667
1546.329923	287.000000
1548.247489	294.666667
1550.162813	311.666667
1552.079527	283.666667
1553.992186	278.666667
1555.908049	319.666667
1557.821672	324.000000
1559.733057	298.333333
1561.645832	291.000000
1563.554557	272.000000
1565.464671	276.333333
1567.374362	313.000000
1569.283630	315.333333
1571.190664	268.666667
1573.095465	306.666667
1575.001655	265.000000
1576.905613	294.333333
1578.809150	310.666667
1580.712267	288.333333
1582.613154	313.333333
1584.515430	306.333333
1586.415478	300.000000
1588.316913	272.333333
1590.214315	269.000000
1592.111298	280.333333
1594.007863	241.666667
1595.905816	294.666667
1597.797934	235.666667
1599.693245	285.000000
1601.588139	288.000000
1603.480811	266.000000
1605.373066	289.666667
1607.263102	244.000000
1609.152722	321.000000
1611.041927	287.333333
1612.930717	292.666667
1614.817289	283.666667
1616.705249	300.666667
1618.589192	303.000000
1620.474522	291.666667
1622.359439	292.666667
1624.242142	254.000000
1626.126232	285.666667
1628.006310	308.666667
1629.887776	287.666667
1631.767031	275.000000
1633.647672	295.000000
1635.522509	277.666667
1637.402327	279.000000
1639.278141	299.666667
1641.153544	265.333333
1643.030333	285.000000
1644.901326	278.333333
1646.775500	306.333333
1648.645675	266.000000
1650.519032	256.000000
1652.390184	282.333333
1654.259136	316.333333
1656.129472	291.333333
1657.995816	290.333333
1659.863545	320.333333
1661.729075	284.333333
1663.595991	268.666667
1665.458918	271.333333
1667.323230	283.333333
1669.185346	319.000000
1671.047057	303.000000
1672.910154	270.333333
1674.771055	301.666667
1676.629764	303.000000
1678.488069	267.333333
1680.347759	291.666667
1682.201681	311.666667
1684.058777	260.333333
1685.915470	316.666667
1687.768186	300.000000
1689.624074	303.666667
1691.475988	270.000000
1693.327501	272.000000
1695.178613	270.000000
1697.029325	251.333333
1698.879635	284.333333
1700.727762	301.333333
1702.577273	278.000000
1704.421035	305.000000
1706.269746	298.000000
1708.112711	249.666667
1709.958843	276.666667
1711.801012	302.333333
1713.646347	308.666667
1715.485941	280.000000
1717.326919	263.666667
1719.169280	285.000000
1721.007685	275.666667
1722.847473	332.666667
1724.685086	274.666667
1726.522303	299.000000
1728.357347	301.333333
1730.193774	278.000000
1732.028029	322.333333
1733.861889	270.666667
1735.695355	239.333333
1737.524876	340.666667
1739.357555	259.333333
1741.186290	282.000000
1743.018182	271.000000
1744.846132	311.333333
1746.673691	279.666667
1748.500857	296.333333
1750.327632	269.333333
1752.154015	282.333333
1753.976462	250.000000
1755.802064	314.000000
1757.623731	321.666667
1759.446780	291.666667
1761.267667	274.000000
1763.088166	301.000000
1764.910045	295.333333
1766.726226	272.666667
1768.545558	289.666667
1770.360963	284.000000
1772.179518	327.000000
1773.994148	297.333333
1775.808391	271.000000
1777.622248	275.666667
1779.435718	291.000000
1781.247035	264.000000
1783.059732	268.000000
1784.872044	322.000000
1786.680438	321.333333
1788.490212	317.333333
1790.296072	293.666667
1792.105077	309.333333
1793.910169	266.666667
1795.716642	280.000000
1797.522731	275.000000
1799.324909	263.000000
1801.130232	338.333333
1802.931646	301.333333
1804.734440	290.000000
1806.533328	287.333333
1808.333597	289.666667
1810.133484	257.333333
1811.931229	286.666667
1813.728594	285.000000
1815.525579	291.333333
1817.322183	306.000000
1819.116648	284.000000
1820.912492	261.000000
1822.702681	272.666667
1824.497767	310.333333
1826.287201	317.000000
1828.079771	282.666667
1829.870206	304.666667
1831.658507	311.333333
1833.449943	301.000000
1835.235733	316.333333
1837.022903	316.666667
1838.807941	313.666667
1840.596113	302.666667
1842.380399	319.666667
1844.162555	274.000000
1845.946091	269.666667
1847.727498	310.666667
1849.510284	260.666667
1851.289189	265.000000
1853.069474	291.333333
1854.847632	362.333333
1856.627169	324.000000
1858.404581	285.333333
1860.179869	333.000000
1861.956535	292.333333
1863.731079	275.000000
1865.507001	281.666667
1867.277302	324.666667
1869.050731	317.333333
1870.822040	331.666667
1872.592978	304.666667
1874.365294	328.333333
1876.131996	330.333333
1877.901824	320.666667
1879.667788	335.333333
1881.436875	314.333333
1883.202101	290.666667
1884.966959	313.000000
1886.733194	359.333333
1888.495570	310.666667
1890.257579	353.666667
1892.019220	326.666667
1893.780495	260.000000
1895.541402	291.666667
1897.301943	309.000000
1899.060374	316.000000
1900.818439	296.000000
1902.574397	283.666667
1904.331731	301.666667
1906.088700	315.000000
1907.843562	330.666667
1909.596320	300.666667
1911.348713	327.000000
1913.102483	296.333333
1914.854149	291.666667
1916.603713	306.000000
1918.354652	278.666667
1920.105229	316.000000
1921.851966	309.000000
1923.600080	296.333333
1925.346094	282.000000
1927.093483	327.333333
1928.838775	317.000000
1930.581969	312.000000
1932.326538	276.333333
1934.069012	283.333333
1935.811125	254.000000
1937.552878	312.000000
1939.294271	316.666667
1941.033571	303.333333
1942.772512	306.000000
1944.511094	317.000000
1946.247585	302.666667
1947.983718	312.833333
1949.721225	323.000000
1951.454910	303.000000
1953.189970	304.666667
1954.922941	320.333333
1956.655556	297.333333
1958.387815	319.000000
1960.119717	325.333333
1961.849533	271.000000
1963.577264	305.666667
1965.306370	315.000000
1967.035121	320.333333
1968.761788	317.333333
1970.488101	321.333333
1972.215787	331.666667
1973.937937	322.333333
1975.663188	302.333333
1977.384632	306.333333
1979.109177	303.333333
1980.831641	358.333333
1982.550303	301.000000
1984.272063	325.000000
1985.990021	358.333333
1987.709352	290.333333
1989.424884	285.666667
1991.145236	348.666667
1992.861790	361.333333
1994.574547	336.666667
1996.290400	325.000000
1998.004181	291.333333
1999.717612	286.333333
2001.428972	331.666667
2003.141704	353.000000
2004.850646	306.333333
2006.562680	329.000000
2008.269206	308.000000
2009.978823	338.000000
2011.686374	311.333333
2013.393576	339.666667
2015.098713	308.333333
2016.803504	299.666667
2018.509666	357.666667
2020.212046	311.333333
2021.915797	313.333333
2023.617486	345.333333
2025.318830	273.000000
2027.019828	330.666667
2028.718765	351.333333
2030.419074	319.000000
2032.115608	320.000000
2033.813513	324.333333
2035.509359	340.333333
2037.208291	322.333333
2038.901737	317.000000
2040.596554	321.000000
2042.291029	293.000000
2043.981735	314.000000
2045.675525	317.333333
2047.365548	339.000000
2049.056942	338.666667
2050.746283	301.000000
2052.436994	314.000000
2054.123942	325.000000
2055.810551	321.666667
2057.498529	287.000000
2059.182748	306.666667
2060.868338	315.000000
2062.553588	347.333333
2064.236789	300.000000
2065.921361	321.000000
2067.600470	373.333333
2069.284364	341.666667
2070.962797	313.666667
2072.644308	329.666667
2074.322067	350.333333
2075.999490	297.000000
2077.678282	334.000000
2079.355032	297.666667
2081.029740	366.333333
2082.705817	302.666667
2084.379853	315.333333
2086.053555	345.000000
2087.726921	344.333333
2089.398248	314.666667
2091.069241	359.000000
2092.739900	305.000000
2094.410225	330.333333
2096.080216	320.000000
2097.748171	354.666667
2099.415793	326.666667
2101.081380	302.666667
2102.748336	359.000000
2104.413259	350.000000
2106.077850	345.333333
2107.740409	360.666667
2109.404336	333.333333
2111.066232	354.000000
2112.727798	349.000000
2114.389032	361.000000
2116.048238	328.333333
2117.707113	355.333333
2119.365659	331.666667
2121.023874	355.000000
2122.678367	299.666667
2124.335924	361.666667
2125.993152	355.666667
2127.646658	326.666667
2129.301532	361.666667
2130.952687	377.000000
2132.606905	334.000000
2134.257406	347.666667
2135.909273	321.333333
2137.555732	347.333333
2139.206946	328.000000
2140.854446	338.666667
2142.503313	360.333333
2144.150161	296.333333
2145.796684	375.000000
2147.442881	318.000000
2149.085370	337.333333
2150.730917	322.333333
2152.372757	325.333333
2154.017654	320.333333
2155.658845	342.333333
2157.299714	329.333333
2158.940258	341.333333
2160.578790	356.000000
2162.218688	333.000000
2163.854886	343.666667
2165.492450	338.333333
2167.129692	355.333333
2168.764924	347.000000
2170.399835	349.333333
2172.034423	355.333333
2173.668691	372.666667
2175.299265	386.666667
2176.932891	355.333333
2178.562825	366.000000
2180.194124	345.000000
2181.823418	354.000000
2183.452393	357.666667
2185.081048	376.000000
2186.709384	401.333333
2188.335718	313.666667
2189.961733	342.333333
2191.585746	348.333333
2193.211125	334.000000
2194.834503	349.333333
2196.459246	309.666667
2198.080308	400.000000
2199.701053	339.000000
2201.323163	352.666667
2202.943275	328.333333
2204.561390	346.333333
2206.179190	375.666667
2207.796675	362.333333
2209.413844	331.000000
2211.030698	387.666667
2212.647236	362.000000
2214.261782	375.666667
2215.874335	381.666667
2217.488252	367.000000
2219.100178	345.000000
2220.713467	386.000000
2222.324766	384.666667
2223.934075	349.666667
2225.544748	342.333333
2227.153432	338.000000
2228.761803	361.000000
2230.368188	388.000000
2231.975936	342.000000
2233.581697	403.666667
2235.187147	394.333333
2236.790612	324.000000
2238.395440	342.333333
2239.998284	388.333333
2241.599145	373.666667
2243.201369	355.666667
2244.801611	379.333333
2246.403215	388.333333
2248.001166	415.000000
2249.600480	344.333333
2251.197814	342.000000
2252.794840	343.333333
2254.393228	386.666667
2255.987967	382.000000
2257.580729	341.666667
2259.174854	395.666667
2260.770340	315.000000
2262.362181	409.000000
2263.953716	379.333333
2265.546613	348.000000
2267.134200	374.666667
2268.726483	382.333333
2270.313460	367.666667
2271.903464	363.666667
2273.488164	412.000000
2275.077558	387.666667
2276.661650	397.000000
2278.247102	363.000000
2279.830586	425.000000
2281.417095	359.000000
2282.999971	388.000000
2284.582544	342.000000
2286.164813	347.666667
2287.743452	378.666667
2289.325116	384.333333
2290.903151	398.333333
2292.484209	365.000000
2294.061640	367.000000
2295.637108	369.000000
2297.215598	351.000000
2298.790464	418.333333
2300.365029	386.000000
2301.939294	348.333333
2303.513258	362.666667
2305.086921	395.666667
2306.660285	368.000000
2308.230030	395.000000
2309.799476	354.333333
2311.371940	358.666667
2312.939130	364.666667
2314.509338	383.333333
2316.075931	342.333333
2317.643884	383.000000
2319.209881	344.000000
2320.775581	350.000000
2322.340983	378.333333
2323.904432	369.666667
2325.469240	383.000000
2327.030440	432.333333
2328.594654	429.333333
2330.153606	462.666667
2331.715573	395.000000
2333.275588	383.000000
2334.835309	350.666667
2336.393080	377.333333
2337.950556	364.000000
2339.507738	359.666667
2341.062972	363.333333
2342.617913	353.000000
2344.172559	363.000000
2345.726912	400.666667
2347.280972	344.000000
2348.834737	356.333333
2350.386558	391.333333
2351.936437	369.000000
2353.489323	405.666667
2355.036966	353.000000
2356.587618	386.333333
2358.134678	425.666667
2359.683096	349.333333
2361.231223	391.333333
2362.775761	364.666667
2364.321657	413.000000
2365.865615	369.666667
2367.410930	336.333333
2368.952660	385.000000
2370.495747	354.333333
2372.036898	367.333333
2373.577760	390.333333
2375.118333	391.666667
2376.658617	350.333333
2378.198612	349.000000
2379.735029	392.666667
2381.274447	376.666667
2382.810287	367.333333
2384.347485	361.666667
2385.881107	417.000000
2387.417729	416.333333
2388.952421	422.333333
2390.485183	356.333333
2392.017658	405.333333
2393.548205	361.333333
2395.081750	384.333333
2396.610084	402.666667
2398.139774	389.666667
2399.669179	383.333333
2401.198299	397.000000
2402.727134	387.000000
2404.250763	386.666667
2405.779028	416.666667
2407.302091	392.000000
2408.829787	369.666667
2410.350644	379.000000
2411.876134	403.666667
2413.398063	409.000000
2414.921348	386.000000
2416.442711	383.000000
2417.962155	374.000000
2419.482954	392.333333
2421.001835	398.666667
2422.520433	436.000000
2424.037114	429.666667
2425.555149	415.000000
2427.072903	402.000000
2428.587106	388.000000
2430.101028	415.666667
2431.614670	405.000000
2433.129667	413.333333
2434.641115	415.000000
2436.153918	385.000000
2437.664807	420.000000
2439.175418	396.000000
2440.684117	447.666667
2442.195802	415.333333
2443.703944	377.000000
2445.211808	408.666667
2446.719394	403.333333
2448.223439	406.666667
2449.730469	412.666667
2451.235591	422.000000
2452.740436	429.666667
2454.243374	432.000000
2455.746036	446.666667
2457.248421	437.666667
2458.748901	425.000000
2460.250734	461.666667
2461.750662	446.333333
2463.250315	417.000000
2464.749693	405.000000
2466.247168	425.000000
2467.742741	418.666667
2469.241294	411.666667
2470.736319	416.666667
2472.232696	453.333333
2473.725547	418.000000
2475.219751	394.333333
2476.713681	406.333333
2478.204087	455.333333
2479.697471	402.666667
2481.188957	426.666667
2482.678546	474.000000
2484.167863	411.666667
2485.655284	435.000000
2487.145681	444.333333
2488.632560	423.333333
2490.120790	413.000000
2491.605503	411.666667
2493.089947	438.666667
2494.575741	394.666667
2496.059644	422.333333
2497.544897	420.000000
2499.025017	429.000000
2500.508110	409.000000
2501.989312	425.000000
2503.470245	389.666667
2504.949289	387.000000
2506.428064	411.000000
2507.906571	416.000000
2509.384810	422.333333
2510.862780	459.666667
2512.337245	423.666667
2513.814680	409.333333
2515.288611	422.666667
2516.763892	428.666667
2518.238906	402.333333
2519.710419	385.333333
2521.183283	413.666667
2522.654264	421.000000
2524.126595	400.666667
2525.593812	473.000000
2527.063996	439.666667
2528.532299	402.333333
2530.000337	420.000000
2531.468110	438.666667
2532.935618	447.333333
2534.402861	426.666667
2535.866612	459.333333
2537.331713	419.000000
2538.794937	420.000000
2540.259510	416.000000
2541.720595	487.333333
2543.183029	430.333333
2544.645200	424.333333
2546.103885	436.666667
2547.567141	443.000000
2549.025302	465.333333
2550.484811	444.333333
2551.939226	478.333333
2553.398212	423.000000
2554.855326	449.666667
2556.310569	405.333333
2557.765550	439.666667
2559.218663	464.666667
2560.673124	391.333333
2562.125715	458.333333
2563.578047	436.666667
2565.028512	439.666667
2566.481932	463.000000
2567.930270	427.333333
2569.381563	445.333333
2570.830991	438.000000
2572.276946	467.000000
2573.725856	457.000000
2575.171296	508.666667
2576.618083	464.333333
2578.063008	459.000000
2579.507674	518.000000
2580.953688	476.000000
2582.396236	501.666667
2583.840131	447.000000
2585.280561	467.000000
2586.722338	466.333333
2588.162256	460.333333
2589.603521	474.333333
2591.041324	450.333333
2592.482077	485.000000
2593.917768	450.000000
2595.356408	451.666667
2596.793190	479.666667
2598.228117	485.666667
2599.665991	496.000000
2601.098808	462.000000
2602.532972	459.666667
2603.965282	464.666667
2605.398938	431.666667
2606.830741	434.333333
2608.262290	434.666667
2609.693587	459.666667
2611.123031	479.333333
2612.552223	459.333333
2613.979565	446.666667
2615.408252	475.333333
2616.836688	459.666667
2618.261676	461.666667
2619.688011	466.666667
2621.112497	468.333333
2622.538329	478.666667
2623.960717	470.333333
2625.384451	461.666667
2626.806338	493.000000
2628.227976	492.666667
2629.647768	492.666667
2631.068906	466.333333
2632.489794	429.333333
2633.907244	472.000000
2635.327633	497.000000
2636.744585	477.666667
2638.161288	495.666667
2639.577743	489.333333
2640.993950	510.333333
2642.409909	511.000000
2643.824027	499.000000
2645.237897	509.000000
2646.649929	510.333333
2648.063304	481.000000
2649.473250	466.666667
2650.886132	471.333333
2652.295585	485.000000
2653.704792	480.333333
2655.112163	490.666667
2656.522468	505.333333
2657.930938	512.000000
2659.337572	475.666667
2660.743961	469.333333
2662.148516	462.666667
2663.554415	493.666667
2664.958481	524.666667
2666.362302	485.000000
2667.765879	473.666667
2669.167625	471.333333
2670.570714	455.666667
2671.970385	477.000000
2673.371400	478.666667
2674.768999	500.666667
2676.169527	496.000000
2677.566641	513.666667
2678.965098	488.000000
2680.361728	526.000000
2681.758115	551.000000
2683.154260	488.333333
2684.548579	507.000000
2685.944241	518.333333
2687.336494	501.666667
2688.730089	487.333333
2690.121860	511.666667
2691.514974	530.333333
2692.906264	493.333333
2694.295731	521.000000
2695.684958	486.666667
2697.073946	454.000000
2698.464275	504.000000
2699.849621	503.000000
2701.237890	528.666667
2702.624339	505.000000
2704.010549	524.000000
2705.396520	536.666667
2706.779093	510.333333
2708.163008	510.666667
2709.546685	499.333333
2710.930123	503.666667
2712.310167	484.000000
2713.691551	502.000000
2715.071121	516.333333
2716.452031	521.000000
2717.831127	515.333333
2719.208409	475.333333
2720.587032	538.000000
2721.963842	507.666667
2723.340415	546.000000
2724.716753	511.000000
2726.091280	481.000000
2727.467147	491.666667
2728.839627	513.666667
2730.215023	516.000000
2731.585459	500.000000
2732.957236	484.000000
2734.328778	509.666667
2735.698512	492.333333
2737.069587	504.666667
2738.438853	533.000000
2739.807886	485.333333
2741.175113	523.666667
2742.542106	514.000000
2743.908867	479.666667
2745.275396	525.333333
2746.640119	585.333333
2748.004610	557.333333
2749.368870	506.000000
2750.732897	551.666667
2752.096693	495.333333
2753.457115	507.333333
2754.820447	502.666667
2756.178837	536.000000
2757.540137	507.333333
2758.898067	488.666667
2760.258905	516.000000
2761.617944	492.333333
2762.973614	506.000000
2764.332192	531.666667
2765.687403	526.666667
2767.042385	536.666667
2768.395571	475.666667
2769.751662	506.333333
2771.104390	505.333333
2772.456890	509.666667
2773.809161	524.666667
2775.162770	517.000000
2776.513019	521.000000
2777.861473	540.333333
2779.212833	494.333333
2780.560833	535.000000
2781.910171	537.666667
2783.257717	540.000000
2784.605037	551.333333
2785.952130	524.000000
2787.297432	519.666667
2788.642507	517.333333
2789.987357	569.666667
2791.331981	511.666667
2792.673253	542.333333
2794.015863	520.333333
2795.358247	536.000000
2796.700406	543.333333
2798.039216	579.666667
2799.380926	567.666667
2800.719288	555.666667
2802.058986	585.333333
2803.396900	540.000000
2804.733029	605.000000
2806.068934	565.000000
2807.406177	512.333333
2808.741636	577.000000
2810.076872	598.000000
2811.410325	580.333333
2812.745115	625.000000
2814.076565	614.666667
2815.410910	597.666667
2816.740357	594.666667
2818.071141	604.666667
2819.401703	551.333333
2820.730486	564.666667
2822.060605	566.000000
2823.388946	584.000000
2824.717066	520.666667
2826.043408	552.333333
2827.371087	559.000000
2828.695432	555.666667
2830.021114	532.666667
2831.345020	571.000000
2832.668707	538.000000
2833.993729	552.666667
2835.315421	557.333333
2836.636895	548.333333
2837.958150	541.000000
2839.279186	567.666667
2840.598449	568.333333
2841.919048	542.666667
2843.237876	526.333333
2844.556485	606.666667
2845.873323	544.000000
2847.189944	592.666667
2848.506348	530.000000
2849.820982	537.333333
2851.136952	551.000000
2852.449601	542.666667
2853.763585	595.000000
2855.077353	501.666667
2856.390904	568.000000
2857.702689	560.333333
2859.012707	556.666667
2860.324060	570.000000
2861.632098	530.000000
2862.941470	563.333333
2864.250628	559.333333
2865.559570	593.666667
2866.866748	581.333333
2868.172164	624.333333
2869.478913	592.333333
2870.783901	596.333333
2872.088675	596.333333
2873.391687	583.000000
2874.697580	639.666667
2875.998619	586.333333
2877.300992	581.000000
2878.601605	624.000000
2879.903552	566.666667
2881.205285	562.666667
2882.503715	606.666667
2883.803478	561.333333
2885.101484	598.333333
2886.399278	538.000000
2887.695316	590.000000
2888.992687	562.666667
2890.288302	524.666667
2891.583706	554.000000
2892.878899	559.666667
2894.170795	556.333333
2895.465567	571.000000
2896.757042	573.666667
2898.049850	567.000000
2899.342448	586.333333
2900.631752	531.666667
2901.922388	600.666667
2903.211273	610.333333
2904.501490	551.333333
2905.788416	601.000000
2907.076674	611.666667
2908.363183	572.000000
2909.649483	613.666667
2910.935576	569.666667
2912.219920	558.666667
2913.507135	596.000000
2914.789524	618.666667
2916.073245	579.000000
2917.355220	607.000000
2918.636987	575.000000
2919.917010	576.000000
2921.199902	590.000000
2922.481049	589.000000
2923.758914	599.333333
2925.039648	591.333333
2926.317101	556.333333
2927.594348	595.333333
2928.869853	559.000000
2930.148226	554.333333
2931.421785	563.000000
2932.698211	611.000000
2933.972896	614.000000
2935.245840	628.000000
2936.520116	616.333333
2937.792652	602.000000
2939.064983	567.000000
2940.334042	596.666667
2941.605966	614.666667
2942.876152	616.333333
2944.146134	632.000000
2945.415913	628.333333
2946.683956	606.666667
2947.950262	651.000000
2949.216367	628.000000
2950.483801	620.000000
2951.749501	592.333333
2953.014998	608.666667
2954.280293	579.666667
2955.542323	578.666667
2956.805683	636.000000
2958.068842	609.333333
2959.330269	597.333333
2960.593025	574.666667
2961.854049	611.333333
2963.113343	579.000000
2964.372437	591.666667
2965.631330	580.000000
2966.890023	635.333333
2968.148516	585.666667
2969.405280	633.000000
2970.661844	608.666667
2971.916681	610.333333
2973.172846	641.666667
2974.425757	644.000000
2975.679997	619.666667
2976.934037	624.000000
2978.186353	576.000000
2979.438469	651.000000
2980.688861	628.666667
2981.942108	628.666667
2983.190578	629.666667
2984.441903	640.333333
2985.689978	632.333333
2986.937857	626.333333
2988.185538	636.000000
2989.433022	656.333333
2990.678785	621.000000
2991.924352	644.000000
2993.171246	597.333333
2994.414896	643.333333
2995.659874	662.666667
2996.901608	631.333333
2998.146194	640.000000
2999.389061	631.000000
3000.628687	699.333333
3001.871163	654.333333
3003.110399	634.666667
3004.350963	641.333333
3005.589810	681.333333
3006.828463	641.666667
3008.065400	678.000000
3009.303665	671.666667
3010.540214	642.666667
3011.776570	668.666667
3013.012732	661.666667
3014.247180	710.333333
3015.481436	681.666667
3016.715498	662.333333
3017.947848	684.666667
3019.178486	663.000000
3020.411970	682.333333
3021.643742	704.666667
3022.873804	694.000000
3024.103673	711.000000
3025.331833	695.333333
3026.561320	676.666667
3027.789097	694.666667
3029.016683	717.333333
3030.245596	693.666667
3031.469766	703.000000
3032.696779	721.666667
3033.920568	663.333333
3035.145684	724.000000
3036.369093	720.000000
3037.592312	696.333333
3038.813826	709.666667
3040.038181	675.333333
3041.257801	655.333333
3042.478747	742.333333
3043.699504	715.666667
3044.918557	709.666667
3046.138935	722.333333
3047.356097	673.333333
3048.574585	719.000000
3049.791370	688.333333
3051.007968	693.000000
3052.224377	680.666667
3053.437574	688.333333
3054.653608	704.333333
3055.866430	730.333333
3057.082089	645.000000
3058.293025	703.333333
3059.505286	723.000000
3060.717361	694.666667
3061.929248	752.333333
3063.139439	742.000000
3064.349443	720.333333
3065.559261	715.333333
3066.767383	702.000000
3067.975320	706.000000
3069.181561	646.000000
3070.389127	676.666667
3071.594998	657.833333
3072.800685	639.000000
3074.006186	704.333333
3075.209994	669.666667
3076.415126	648.000000
3077.618565	682.000000
3078.820313	683.000000
3080.021876	677.000000
3081.223256	686.000000
3082.424452	646.000000
3083.623958	622.666667
3084.823281	662.000000
3086.023927	626.000000
3087.222883	636.000000
3088.418645	671.666667
3089.617236	689.333333
3090.812633	659.666667
3092.009353	682.000000
3093.202881	637.333333
3094.399237	663.333333
3095.593907	635.333333
3096.785385	646.333333
3097.981196	626.333333
3099.172312	605.333333
3100.364752	666.333333
3101.554004	678.333333
3102.746081	690.333333
3103.936475	648.000000
3105.123683	673.333333
3106.312213	682.000000
3107.502066	723.333333
3108.688735	656.000000
3109.875223	648.333333
3111.061533	726.333333
3112.249164	680.666667
3113.433613	705.666667
3114.616383	693.000000
3115.801975	672.333333
3116.985888	655.666667
3118.168122	662.000000
3119.350177	662.666667
3120.532054	721.333333
3121.713753	710.666667
3122.893775	726.666667
3124.072120	699.666667
3125.253285	677.666667
3126.431275	710.000000
3127.609089	680.333333
3128.786725	717.666667
3129.962686	720.666667
3131.138470	673.000000
3132.315576	678.000000
3133.491007	686.666667
3134.664765	654.333333
3135.836850	667.666667
3137.010257	652.000000
3138.183487	716.000000
3139.355046	716.333333
3140.527925	726.000000
3141.697637	713.333333
3142.868670	728.000000
3144.038033	712.666667
3145.205725	700.333333
3146.376233	746.666667
3147.542083	710.000000
3148.712241	711.000000
3149.877743	749.000000
3151.043070	768.666667
3152.208224	744.666667
3153.373205	730.333333
3154.539505	750.666667
3155.701153	759.666667
3156.864120	748.666667
3158.026915	756.666667
3159.189537	754.000000
3160.350494	759.666667
3161.511278	753.666667
3162.671890	753.666667
3163.830838	791.000000
3164.989615	741.000000
3166.148220	753.333333
3167.306652	777.666667
3168.464914	725.666667
3169.621513	768.333333
3170.776451	745.666667
3171.932708	746.333333
3173.087304	771.333333
3174.241730	766.333333
3175.394496	708.333333
3176.547091	778.333333
3177.699517	751.666667
3178.851773	807.000000
3180.003858	776.000000
3181.152798	786.000000
3182.304544	801.000000
3183.454632	781.666667
3184.603064	792.333333
3185.751326	814.666667
3186.899420	749.666667
3188.047345	794.666667
3189.193614	786.666667
3190.339715	763.000000
3191.484162	781.000000
3192.628441	768.333333
3193.772552	774.000000
3194.917980	722.666667
3196.060270	748.000000
3197.202393	747.666667
3198.344348	808.333333
3199.486136	778.333333
3200.627757	755.333333
3201.766243	747.333333
3202.906046	778.666667
3204.047167	763.666667
3205.185153	799.666667
3206.321490	731.333333
3207.457661	737.333333
3208.595149	726.666667
3209.730989	729.000000
3210.868146	780.666667
3212.000690	770.666667
3213.137516	738.666667
3214.269730	806.666667
3215.403261	777.666667
3216.536628	787.666667
3217.666867	759.333333
3218.799904	747.666667
3219.929815	782.666667
3221.061042	752.333333
3222.189145	758.666667
3223.320044	790.333333
3224.449299	772.000000
3225.576911	771.666667
3226.701400	800.000000
3227.830165	829.000000
3228.955808	824.000000
3230.081289	796.333333
3231.205128	787.000000
3232.331761	812.333333
3233.453797	854.000000
3234.577149	804.333333
3235.700339	853.666667
3236.823366	844.666667
3237.944755	777.333333
3239.065981	802.666667
3240.185570	774.666667
3241.304997	761.000000
3242.422786	768.333333
3243.543367	812.666667
3244.660835	815.333333
3245.778142	828.333333
3246.895289	776.000000
3248.010800	791.666667
3249.127625	834.666667
3250.241341	773.666667
3251.357846	766.000000
3252.472717	819.666667
3253.584479	792.000000
3254.696081	825.000000
3255.808999	825.000000
3256.921757	801.000000
3258.031409	818.000000
3259.142376	838.000000
3260.253184	829.666667
3261.362360	780.666667
3262.469906	816.000000
3263.578765	820.333333
3264.687467	825.666667
3265.793066	841.666667
3266.899979	907.333333
3268.005263	878.666667
3269.111861	873.333333
3270.215359	898.000000
3271.320172	868.333333
3272.424827	863.000000
3273.526383	869.333333
3274.627783	872.333333
3275.730497	852.666667
3276.833055	843.000000
3277.932516	858.666667
3279.034761	861.666667
3280.133910	826.333333
3281.231435	882.333333
3282.328804	820.666667
3283.428955	833.000000
3284.526014	839.000000
3285.622917	873.333333
3286.719665	855.000000
3287.811855	798.666667
3288.908293	801.333333
3290.003109	842.333333
3291.097771	819.333333
3292.190811	814.333333
3293.283696	804.666667
3294.374962	832.666667
3295.467539	831.333333
3296.558497	839.666667
3297.647835	825.000000
3298.737020	857.333333
3299.827518	847.333333
3300.914931	829.000000
3302.002191	852.000000
3303.090764	857.666667
3304.179185	889.666667
3305.263058	843.000000
3306.351173	859.333333
3307.436206	895.333333
3308.519624	824.333333
3309.604354	880.000000
3310.687468	889.000000
3311.771895	855.000000
3312.853243	860.333333
3313.935903	890.666667
3315.016949	853.666667
3316.097844	890.333333
3317.177125	906.666667
3318.256256	898.000000
3319.336699	867.333333
3320.414067	825.666667
3321.492747	880.000000
3322.569815	914.000000
3323.646734	915.333333
3324.722041	909.333333
3325.797199	886.333333
3326.873668	954.333333
3327.947067	899.666667
3329.020317	873.666667
3330.094877	933.333333
3331.167829	950.333333
3332.239172	957.666667
3333.311826	937.333333
3334.381414	913.333333
3335.452312	927.333333
3336.521603	919.333333
3337.592205	962.333333
3338.661200	922.333333
3339.728589	951.333333
3340.794373	941.666667
3341.864383	951.000000
3342.931330	965.333333
3343.995215	911.000000
3345.061868	940.333333
3346.126916	963.333333
3347.190361	998.000000
3348.253660	936.000000
3349.316812	993.333333
3350.379818	959.666667
3351.442678	956.666667
3352.503936	959.333333
3353.562137	986.000000
3354.624558	966.666667
3355.683924	935.000000
3356.743144	1013.333333
3357.803673	993.333333
3358.859694	951.000000
3359.918478	983.666667
3360.972755	965.000000
3362.029796	960.000000
3363.085238	966.666667
3364.141990	981.666667
3365.197143	992.666667
3366.250699	974.333333
3367.302659	917.333333
3368.357380	960.333333
3369.409052	945.333333
3370.460581	972.666667
3371.513418	966.333333
3372.563208	987.666667
3373.614307	931.666667
3374.662360	963.666667
3375.713172	927.333333
3376.760940	910.666667
3377.808565	992.666667
3378.856047	974.000000
3379.901937	962.666667
3380.949135	985.000000
3381.993291	980.000000
3383.040205	960.666667
3384.085527	927.000000
3385.127808	1022.666667
3386.169949	1017.000000
3387.213397	944.333333
3388.256704	978.666667
3389.298422	980.666667
3390.339998	929.000000
3391.381433	1003.333333
3392.421280	1014.333333
3393.459538	946.333333
3394.499104	985.333333
3395.538530	1024.000000
3396.576368	935.000000
3397.612619	928.333333
3398.648731	985.666667
3399.686150	953.333333
3400.720536	965.000000
3401.756229	974.333333
3402.791783	972.000000
3403.824306	930.000000
3404.859582	960.000000
3405.891827	949.666667
3406.923934	938.666667
3407.954457	1026.333333
3408.986287	984.333333
3410.017979	937.000000
3411.046643	982.000000
3412.075170	990.666667
3413.105003	1016.666667
3414.134699	995.666667
3415.161369	987.000000
3416.189346	1027.666667
3417.214298	1010.666667
3418.242000	1013.333333
3419.266679	978.000000
3420.292664	984.000000
3421.317069	1022.333333
3422.341338	1004.000000
3423.364028	976.000000
3424.386582	1025.000000
3425.410442	1052.000000
3426.431282	1016.000000
3427.451986	995.000000
3428.473997	1058.666667
3429.492989	1050.666667
3430.511845	1025.333333
3431.532008	985.333333
3432.549154	999.333333
