-116.707459	3.000000
-114.037859	-0.333333
-111.371194	-13.666667
-108.705281	16.666667
-106.042300	8.333333
-103.377890	-44.666667
-100.716410	6.333333
-98.053501	-20.000000
-95.395698	3.666667
-92.736466	-20.666667
-90.077982	43.333333
-87.422422	-18.000000
-84.765434	2.666667
-82.113544	-0.333333
-79.460224	21.666667
-76.809823	-18.333333
-74.157993	-3.666667
-71.511254	-3.666667
-68.863086	45.333333
-66.215660	7.000000
-63.571148	9.333333
-60.925208	-10.333333
-58.284349	25.666667
-55.642061	-14.000000
-53.002682	24.000000
-50.361873	17.666667
-47.721805	33.333333
-45.086809	-25.666667
-42.450385	7.000000
-39.816863	21.666667
-37.181913	-6.333333
-34.552028	-0.333333
-31.918551	6.666667
-29.290136	-17.000000
-26.662455	33.333333
-24.033345	-5.000000
-21.409292	27.000000
-18.781650	-7.000000
-16.159061	42.000000
-13.537204	18.666667
-10.916077	106.333333
-8.295680	152.666667
-5.678172	471.000000
-3.059235	1318.333333
-0.443183	2745.333333
2.172140	3443.333333
4.786736	2023.000000
7.398449	284.666667
10.011591	48.000000
12.619699	22.333333
15.231389	-6.000000
17.838048	-19.000000
20.446135	37.333333
23.053498	-0.666667
25.655836	17.666667
28.261752	-16.000000
30.862646	23.000000
33.464968	3.000000
36.062273	16.000000
38.663153	16.333333
41.259018	54.333333
43.856312	-1.000000
46.452886	24.000000
49.044451	7.333333
51.637444	31.666667
54.227576	8.000000
56.819136	4.000000
59.407836	5.666667
61.997963	2.666667
64.583091	9.333333
67.169647	22.666667
69.755489	-2.666667
72.338477	30.666667
74.922891	6.333333
77.500177	12.333333
80.081029	14.666667
82.659032	6.000000
85.236325	18.666667
87.815044	13.666667
90.388781	10.000000
92.963946	13.333333
95.536267	6.666667
98.107880	19.333333
100.676653	-38.333333
103.246853	33.000000
105.814215	-13.000000
108.383002	0.666667
110.948953	-15.333333
113.512069	11.333333
116.078741	13.333333
118.636192	23.333333
121.199328	-11.333333
123.757504	16.333333
126.319235	12.000000
128.876009	38.000000
131.434210	55.666667
133.987457	67.000000
136.540007	106.000000
139.096107	191.666667
141.647259	174.333333
144.197714	270.333333
146.747471	262.000000
149.294409	326.000000
151.840652	338.333333
154.388320	348.666667
156.935292	349.000000
159.477329	381.666667
162.018672	359.000000
164.559322	345.000000
167.101398	381.000000
169.640662	369.000000
172.177118	330.000000
174.712882	368.000000
177.250072	322.666667
179.786571	349.000000
182.320264	306.666667
184.851153	336.666667
187.381355	338.000000
189.912981	327.000000
192.441806	301.333333
194.967832	324.000000
197.493172	330.000000
200.019937	347.000000
202.543906	282.333333
205.067190	320.333333
207.589789	308.000000
210.109595	328.000000
212.628718	272.333333
215.147158	308.666667
217.667022	294.333333
220.179885	299.333333
222.696279	302.666667
225.211991	326.666667
227.722813	313.666667
230.235060	349.000000
232.744525	284.333333
235.253311	296.333333
237.761418	329.333333
240.270950	298.000000
242.775601	245.666667
245.279576	264.333333
247.784975	305.333333
250.285499	306.666667
252.789547	286.333333
255.286623	265.666667
257.787223	329.000000
260.285051	337.000000
262.782206	311.666667
265.278688	307.666667
267.770307	290.000000
270.265446	362.666667
272.757818	374.333333
275.249520	393.666667
277.738459	396.000000
280.228822	462.333333
282.716422	471.000000
285.201263	563.000000
287.689619	574.333333
290.171035	776.000000
292.655965	1057.000000
295.136050	1696.333333
297.619647	3020.666667
300.098401	4961.666667
302.578579	6080.000000
305.056004	5234.333333
307.532766	2620.666667
310.008865	1351.666667
312.482215	876.333333
314.954903	688.000000
317.426930	583.333333
319.898296	512.666667
322.366917	477.666667
324.834880	486.333333
327.304264	409.333333
329.768826	401.666667
332.236892	355.333333
334.700138	371.333333
337.162726	380.000000
339.624658	366.333333
342.085933	380.666667
344.544474	343.000000
347.004437	354.000000
349.461667	352.000000
351.918243	338.000000
354.374165	360.000000
356.827357	355.000000
359.281972	355.000000
361.731785	370.333333
364.185094	337.666667
366.633605	364.000000
369.081464	340.666667
371.530746	326.333333
373.975234	330.333333
376.421144	311.000000
378.866404	333.666667
381.308946	325.333333
383.750840	362.666667
386.192087	307.666667
388.630618	326.666667
391.070571	321.000000
393.507810	327.666667
395.942337	260.000000
398.380352	294.333333
400.813590	296.333333
403.248249	315.333333
405.678136	347.000000
408.111508	364.666667
410.540110	310.333333
412.968070	343.666667
415.397452	326.333333
417.822068	290.666667
420.248106	301.666667
422.673503	336.333333
425.098260	300.666667
427.518259	327.666667
429.939679	295.666667
432.358402	330.000000
434.778546	341.000000
437.195995	324.333333
439.614864	272.000000
442.031040	318.666667
444.442468	285.666667
446.857374	322.666667
449.269589	278.000000
451.681170	306.000000
454.092117	285.333333
456.500378	332.666667
458.908006	326.666667
461.315002	329.000000
463.721367	306.333333
466.125049	304.666667
468.528101	323.666667
470.930523	319.666667
473.332315	346.666667
475.731430	324.000000
478.131964	318.666667
480.531869	297.333333
482.927051	304.000000
485.325700	291.333333
487.719629	318.000000
490.112932	328.666667
492.505609	290.000000
494.897661	283.000000
497.291131	280.666667
499.679889	277.333333
502.065981	248.666667
504.453493	244.333333
506.840382	206.666667
509.224607	253.333333
511.610250	217.333333
513.993232	261.666667
516.373553	232.333333
518.755293	208.000000
521.134374	212.666667
523.514874	241.333333
525.892716	198.666667
528.267903	227.000000
530.642472	188.333333
533.018459	205.333333
535.391794	230.666667
537.766546	207.333333
540.136613	209.333333
542.506064	191.333333
544.876933	236.000000
547.243122	227.000000
549.610729	219.333333
551.975690	214.666667
554.340038	208.333333
556.703773	260.333333
559.068926	232.000000
561.429407	271.333333
563.791306	224.333333
566.150564	263.666667
568.507185	233.000000
570.867250	208.666667
573.220624	229.666667
575.577443	285.666667
577.931627	218.666667
580.285202	243.000000
582.638170	226.333333
584.988505	236.666667
587.340258	231.666667
589.685334	223.666667
592.035874	243.333333
594.379740	255.333333
596.729068	141.333333
599.073747	224.333333
601.415802	182.666667
603.759274	186.000000
606.100123	151.333333
608.440370	158.333333
610.777996	162.666667
613.119057	187.000000
615.455480	158.666667
617.793320	141.000000
620.128543	181.000000
622.461150	153.000000
624.795173	148.000000
627.126582	157.333333
629.457393	162.666667
631.787607	182.666667
634.117222	149.333333
636.442214	117.333333
638.772648	126.000000
641.098461	182.666667
643.421666	120.666667
645.746288	125.666667
648.068304	171.000000
650.389726	153.666667
652.708546	159.333333
655.028781	154.666667
657.348423	129.666667
659.665464	165.666667
661.981913	112.000000
664.295764	137.666667
666.611031	125.666667
668.923701	167.000000
671.237786	146.666667
673.547271	159.666667
675.858172	155.000000
678.166480	152.333333
680.474200	136.333333
682.783334	142.000000
685.087876	119.333333
687.391832	158.000000
689.695202	138.666667
691.999986	174.666667
694.300184	126.000000
696.601796	170.333333
698.902823	121.000000
701.199269	129.000000
703.497130	100.333333
705.794407	115.666667
708.091101	123.333333
710.383219	154.333333
712.678748	117.333333
714.969703	152.000000
717.262073	120.666667
719.551868	133.666667
721.841082	146.333333
724.129717	161.333333
726.415779	184.666667
728.703256	135.666667
730.988161	108.666667
733.272489	149.666667
735.554248	123.666667
737.837421	151.000000
740.120017	120.666667
742.398057	132.000000
744.677512	129.333333
746.956390	129.666667
749.234694	140.333333
751.508448	127.000000
753.783615	150.000000
756.058209	126.666667
758.330244	147.666667
760.603692	129.333333
762.874582	120.333333
765.142916	159.333333
767.412663	167.000000
769.679856	190.333333
771.946478	170.333333
774.212530	158.666667
776.476031	155.666667
778.740945	165.333333
781.005289	146.000000
783.265104	159.000000
785.526331	118.000000
787.786991	161.000000
790.045105	166.333333
792.300674	143.666667
794.559634	149.000000
796.812095	177.666667
799.069922	146.333333
801.323231	143.666667
803.574000	119.666667
805.826181	163.000000
808.075823	149.333333
810.326878	128.666667
812.573421	123.000000
814.821376	135.666667
817.066797	125.666667
819.313629	152.000000
821.559900	137.000000
823.801666	138.333333
826.046816	124.666667
828.285493	135.666667
830.527552	128.666667
832.765113	157.333333
835.004086	140.000000
837.240532	187.000000
839.478389	147.333333
841.713721	195.000000
843.946530	144.666667
846.180750	142.666667
848.412447	139.333333
850.643590	160.000000
852.874178	156.000000
855.104212	154.000000
857.333692	147.000000
859.558690	126.333333
861.787063	125.333333
864.010956	144.333333
866.236261	113.000000
868.457090	153.000000
870.681291	106.666667
872.901019	142.000000
875.122157	112.000000
877.342745	162.666667
879.560824	127.666667
881.780312	157.333333
883.995334	88.333333
886.209808	149.000000
888.423735	168.000000
890.637115	162.333333
892.849947	137.000000
895.062233	116.666667
897.272016	127.666667
899.481254	151.333333
901.689947	98.666667
903.896141	136.000000
906.103744	127.000000
908.308849	112.333333
910.513411	136.666667
912.715478	114.000000
914.918954	146.666667
917.119936	139.666667
919.320376	115.000000
921.522225	139.000000
923.717683	165.000000
925.916500	157.333333
928.110878	111.000000
930.308614	117.333333
932.501914	133.000000
934.696623	143.333333
936.888846	123.333333
939.080530	141.333333
941.271677	94.000000
943.460341	128.000000
945.648469	124.000000
947.834116	127.666667
950.023115	152.000000
952.207691	153.000000
954.391732	146.333333
956.579123	158.333333
958.758210	154.000000
960.940648	148.333333
963.122552	101.000000
965.301981	172.333333
967.478938	124.333333
969.657303	147.666667
971.837075	166.666667
974.010498	174.333333
976.187267	131.333333
978.359629	157.666667
980.533399	150.333333
982.702765	170.333333
984.875475	148.666667
987.045720	157.000000
989.215436	172.000000
991.384623	170.666667
993.549413	156.666667
995.717544	175.000000
997.881281	186.666667
1000.046424	170.333333
1002.209108	182.000000
1004.371267	201.666667
1006.530969	163.000000
1008.690146	213.333333
1010.850730	205.333333
1013.008859	170.333333
1015.166465	190.000000
1017.323547	192.000000
1019.480105	160.333333
1021.632284	184.000000
1023.785870	155.000000
1025.938934	172.333333
1028.089549	160.000000
1030.241571	189.666667
1032.389219	194.333333
1034.540199	184.000000
1036.686808	169.666667
1038.832898	161.333333
1040.978470	171.666667
1043.125447	178.333333
1045.266135	174.666667
1047.410153	205.000000
1049.551730	179.666667
1051.692791	189.666667
1053.835256	152.000000
1055.971442	203.333333
1058.110953	186.333333
1060.246110	204.666667
1062.384591	172.000000
1064.518718	194.666667
1066.652332	192.000000
1068.787351	211.333333
1070.918020	175.000000
1073.050094	207.333333
1075.179739	180.000000
1077.308872	182.000000
1079.437493	176.000000
1081.565603	190.000000
1083.691287	182.666667
1085.816461	194.333333
1087.943039	155.000000
1090.065279	186.666667
1092.188924	171.333333
1094.308234	201.333333
1096.432774	167.333333
1098.551068	170.333333
1100.670767	155.666667
1102.788047	179.000000
1104.904821	150.666667
1107.021088	172.000000
1109.134939	140.666667
1111.250195	173.000000
1113.361127	178.666667
1115.475372	200.666667
1117.585296	159.666667
1119.696624	194.666667
1121.807447	145.333333
1123.913954	156.333333
1126.023771	180.000000
1128.129273	168.000000
1130.236178	138.000000
1132.336868	178.333333
1134.442770	147.666667
1136.544363	180.000000
1138.647359	143.666667
1140.749854	199.666667
1142.846142	168.666667
1144.947637	185.666667
1147.044830	145.666667
1149.141525	168.333333
1151.237721	159.666667
1153.333420	130.333333
1155.428620	133.000000
1157.521424	139.000000
1159.615631	162.000000
1161.703646	168.000000
1163.796859	134.000000
1165.883884	194.000000
1167.974208	152.666667
1170.060244	182.000000
1172.149579	148.666667
1174.232732	148.000000
1176.317287	160.333333
1178.403244	173.000000
1180.484919	152.333333
1182.567996	176.666667
1184.648687	149.333333
1186.728886	140.666667
1188.808594	175.333333
1190.887811	164.000000
1192.964646	156.000000
1195.039100	154.333333
1197.116845	179.333333
1199.190321	178.000000
1201.265197	115.333333
1203.335806	150.666667
1205.407816	145.666667
1207.477451	159.666667
1209.548486	152.333333
1211.619033	161.333333
1213.685319	138.000000
1215.753006	154.000000
1217.818321	128.666667
1219.885036	155.333333
1221.947495	151.666667
1224.013239	151.000000
1226.074729	130.333333
1228.137620	171.000000
1230.198143	168.333333
1232.258182	143.000000
1234.317739	172.000000
1236.374930	159.333333
1238.431640	114.666667
1240.485986	173.666667
1242.543614	138.000000
1244.598879	144.000000
1246.649903	135.000000
1248.702327	168.000000
1250.754271	148.333333
1252.803857	119.000000
1254.852964	129.000000
1256.901593	134.333333
1258.949743	139.000000
1260.997414	171.000000
1263.040855	99.333333
1265.087572	116.000000
1267.131935	130.333333
1269.175822	122.333333
1271.217357	141.000000
1273.256543	178.000000
1275.299002	140.666667
1277.337238	150.000000
1279.376873	125.000000
1281.416033	142.333333
1283.450974	137.666667
1285.487314	157.666667
1287.521310	138.666667
1289.556703	139.333333
1291.587884	141.333333
1293.620462	148.000000
1295.652569	137.000000
1297.682335	144.000000
1299.713498	125.000000
1301.740455	129.333333
1303.768809	127.333333
1305.792958	158.666667
1307.820373	128.333333
1309.843585	143.666667
1311.868195	120.666667
1313.890471	170.333333
1315.914144	127.000000
1317.935484	144.333333
1319.956356	166.333333
1321.976761	117.000000
1323.992973	113.666667
1326.010582	114.333333
1328.025863	143.000000
1330.044403	147.333333
1332.058754	132.333333
1334.070779	114.333333
1336.086061	145.000000
1338.097158	144.000000
1340.109652	116.333333
1342.117963	134.666667
1344.129529	142.333333
1346.135057	121.000000
1348.143840	136.000000
1350.148445	145.666667
1352.156304	115.000000
1354.163701	159.666667
1356.165067	143.333333
1358.167829	117.333333
1360.170132	132.000000
1362.171975	154.333333
1364.173358	126.666667
1366.172428	136.666667
1368.171039	145.333333
1370.169192	120.666667
1372.166886	116.000000
1374.160418	137.666667
1376.155345	152.666667
1378.149816	166.000000
1380.143830	129.666667
1382.135537	167.000000
1384.126789	119.333333
1386.115735	141.000000
1388.106076	103.000000
1390.095962	152.666667
1392.083544	136.000000
1394.070673	140.666667
1396.055500	167.333333
1398.041722	129.666667
1400.025644	119.000000
1402.009113	151.666667
1403.992129	111.000000
1405.972848	99.000000
1407.954961	126.000000
1409.934778	171.333333
1411.914143	147.666667
1413.889370	141.333333
1415.867835	132.666667
1417.844007	147.666667
1419.819730	128.000000
1421.795003	106.666667
1423.767985	145.333333
1425.740519	122.333333
1427.712605	121.333333
1429.684244	152.666667
1431.651754	154.000000
1433.624338	167.333333
1435.589116	164.333333
1437.558967	159.000000
1439.524694	144.666667
1441.491813	203.666667
1443.456649	141.666667
1445.417365	155.666667
1447.383149	154.666667
1449.342978	140.000000
1451.304201	128.333333
1453.266816	163.666667
1455.225316	138.666667
1457.183373	158.000000
1459.140989	90.666667
1461.098162	144.666667
1463.053060	147.333333
1465.009351	143.333333
1466.963367	122.333333
1468.916942	150.333333
1470.868245	102.000000
1472.820941	174.000000
1474.771364	145.000000
1476.721349	122.666667
1478.670895	139.000000
1480.618172	157.666667
1482.563181	136.000000
1484.509583	156.666667
1486.455547	147.333333
1488.401074	151.666667
1490.344335	95.666667
1492.287161	145.000000
1494.227723	140.000000
1496.169676	179.000000
1498.109367	130.666667
1500.048624	150.333333
1501.987445	141.666667
1503.924007	162.666667
1505.861960	159.333333
1507.797654	181.333333
1509.732915	156.333333
1511.665920	174.333333
1513.598492	124.666667
1515.530632	147.666667
1517.462340	122.000000
1519.391794	147.333333
1521.322639	167.666667
1523.253052	144.666667
1525.179393	120.666667
1527.107125	185.000000
1529.032606	128.333333
1530.957658	155.000000
1532.882281	151.000000
1534.806475	112.333333
1536.728421	173.666667
1538.651758	152.666667
1540.572848	129.000000
1542.491694	149.666667
1544.411930	151.333333
1546.329923	124.000000
1548.247489	157.666667
1550.162813	197.000000
1552.079527	139.000000
1553.992186	169.000000
1555.908049	151.333333
1557.821672	165.333333
1559.733057	131.666667
1561.645832	180.000000
1563.554557	163.333333
1565.464671	142.666667
1567.374362	146.000000
1569.283630	162.000000
1571.190664	139.666667
1573.095465	125.000000
1575.001655	143.333333
1576.905613	150.000000
1578.809150	152.666667
1580.712267	167.666667
1582.613154	144.000000
1584.515430	121.333333
1586.415478	128.666667
1588.316913	158.333333
1590.214315	165.333333
1592.111298	123.000000
1594.007863	137.000000
1595.905816	141.333333
1597.797934	133.666667
1599.693245	150.333333
1601.588139	169.333333
1603.480811	144.000000
1605.373066	135.333333
1607.263102	171.000000
1609.152722	106.666667
1611.041927	151.333333
1612.930717	152.333333
1614.817289	170.333333
1616.705249	138.666667
1618.589192	169.000000
1620.474522	131.666667
1622.359439	163.666667
1624.242142	147.333333
1626.126232	128.666667
1628.006310	113.000000
1629.887776	166.333333
1631.767031	159.333333
1633.647672	138.333333
1635.522509	135.333333
1637.402327	154.000000
1639.278141	135.333333
1641.153544	156.666667
1643.030333	130.000000
1644.901326	147.000000
1646.775500	135.666667
1648.645675	184.333333
1650.519032	152.000000
1652.390184	122.666667
1654.259136	128.000000
1656.129472	140.333333
1657.995816	132.666667
1659.863545	146.000000
1661.729075	103.333333
1663.595991	168.333333
1665.458918	164.333333
1667.323230	141.000000
1669.185346	138.000000
1671.047057	156.333333
1672.910154	165.333333
1674.771055	149.333333
1676.629764	140.333333
1678.488069	108.666667
1680.347759	133.666667
1682.201681	164.666667
1684.058777	114.000000
1685.915470	145.000000
1687.768186	143.666667
1689.624074	165.666667
1691.475988	148.333333
1693.327501	147.666667
1695.178613	128.333333
1697.029325	149.666667
1698.879635	120.666667
1700.727762	150.000000
1702.577273	119.666667
1704.421035	157.666667
1706.269746	157.000000
1708.112711	127.666667
1709.958843	137.000000
1711.801012	146.000000
1713.646347	167.000000
1715.485941	153.333333
1717.326919	118.666667
1719.169280	156.666667
1721.007685	136.333333
1722.847473	135.000000
1724.685086	142.666667
1726.522303	141.333333
1728.357347	132.333333
1730.193774	137.000000
1732.028029	118.000000
1733.861889	136.000000
1735.695355	129.333333
1737.524876	139.333333
1739.357555	159.666667
1741.186290	147.000000
1743.018182	96.666667
1744.846132	147.000000
1746.673691	120.333333
1748.500857	162.000000
1750.327632	118.000000
1752.154015	124.333333
1753.976462	166.666667
1755.802064	109.666667
1757.623731	133.333333
1759.446780	129.666667
1761.267667	123.000000
1763.088166	163.666667
1764.910045	147.333333
1766.726226	119.666667
1768.545558	133.333333
1770.360963	154.333333
1772.179518	116.666667
1773.994148	134.333333
1775.808391	117.666667
1777.622248	132.666667
1779.435718	145.000000
1781.247035	158.333333
1783.059732	119.333333
1784.872044	138.666667
1786.680438	118.000000
1788.490212	167.333333
1790.296072	162.333333
1792.105077	138.666667
1793.910169	117.333333
1795.716642	129.000000
1797.522731	119.666667
1799.324909	154.333333
1801.130232	129.333333
1802.931646	154.333333
1804.734440	135.000000
1806.533328	164.000000
1808.333597	152.333333
1810.133484	111.666667
1811.931229	134.333333
1813.728594	125.000000
1815.525579	155.333333
1817.322183	148.000000
1819.116648	123.333333
1820.912492	114.666667
1822.702681	136.000000
1824.497767	153.666667
1826.287201	173.666667
1828.079771	164.666667
1829.870206	134.333333
1831.658507	144.000000
1833.449943	113.333333
1835.235733	129.333333
1837.022903	106.333333
1838.807941	135.000000
1840.596113	125.000000
1842.380399	112.666667
1844.162555	153.333333
1845.946091	138.666667
1847.727498	136.000000
1849.510284	127.333333
1851.289189	154.333333
1853.069474	175.333333
1854.847632	116.333333
1856.627169	159.666667
1858.404581	132.333333
1860.179869	92.000000
1861.956535	126.666667
1863.731079	127.666667
1865.507001	125.666667
1867.277302	135.333333
1869.050731	123.333333
1870.822040	147.666667
1872.592978	140.666667
1874.365294	158.333333
1876.131996	118.333333
1877.901824	150.333333
1879.667788	112.333333
1881.436875	163.000000
1883.202101	159.000000
1884.966959	101.666667
1886.733194	112.000000
1888.495570	128.666667
1890.257579	111.666667
1892.019220	126.666667
1893.780495	120.333333
1895.541402	122.666667
1897.301943	105.666667
1899.060374	141.000000
1900.818439	136.333333
1902.574397	146.000000
1904.331731	105.666667
1906.088700	140.666667
1907.843562	97.000000
1909.596320	165.333333
1911.348713	140.000000
1913.102483	111.666667
1914.854149	126.000000
1916.603713	102.333333
1918.354652	149.333333
1920.105229	114.000000
1921.851966	127.333333
1923.600080	124.666667
1925.346094	141.666667
1927.093483	132.333333
1928.838775	99.333333
1930.581969	130.000000
1932.326538	127.000000
1934.069012	107.666667
1935.811125	110.333333
1937.552878	143.333333
1939.294271	139.000000
1941.033571	137.666667
1942.772512	125.333333
1944.511094	139.000000
1946.247585	138.333333
1947.983718	143.166667
1949.721225	148.000000
1951.454910	113.333333
1953.189970	119.333333
1954.922941	143.666667
1956.655556	126.333333
1958.387815	94.666667
1960.119717	137.666667
1961.849533	120.666667
1963.577264	141.666667
1965.306370	135.000000
1967.035121	143.333333
1968.761788	153.666667
1970.488101	124.000000
1972.215787	145.000000
1973.937937	113.666667
1975.663188	133.666667
1977.384632	114.666667
1979.109177	147.333333
1980.831641	108.666667
1982.550303	110.666667
1984.272063	126.666667
1985.990021	132.333333
1987.709352	116.333333
1989.424884	155.000000
1991.145236	145.000000
1992.861790	147.000000
1994.574547	122.333333
1996.290400	151.333333
1998.004181	173.333333
1999.717612	157.000000
2001.428972	109.000000
2003.141704	124.666667
2004.850646	120.000000
2006.562680	162.000000
2008.269206	135.000000
2009.978823	143.666667
2011.686374	108.666667
2013.393576	155.000000
2015.098713	100.333333
2016.803504	118.333333
2018.509666	148.333333
2020.212046	128.000000
2021.915797	126.000000
2023.617486	137.666667
2025.318830	124.333333
2027.019828	139.666667
2028.718765	117.333333
2030.419074	98.000000
2032.115608	120.000000
2033.813513	119.666667
2035.509359	136.333333
2037.208291	121.333333
2038.901737	133.666667
2040.596554	113.333333
2042.291029	127.000000
2043.981735	146.333333
2045.675525	141.000000
2047.365548	123.000000
2049.056942	103.333333
2050.746283	124.666667
2052.436994	102.666667
2054.123942	122.333333
2055.810551	126.666667
2057.498529	132.333333
2059.182748	134.333333
2060.868338	110.000000
2062.553588	117.666667
2064.236789	157.000000
2065.921361	107.666667
2067.600470	118.333333
2069.284364	119.666667
2070.962797	142.333333
2072.644308	113.666667
2074.322067	144.000000
2075.999490	114.000000
2077.678282	139.000000
2079.355032	115.000000
2081.029740	82.000000
2082.705817	128.333333
2084.379853	124.000000
2086.053555	137.666667
2087.726921	124.333333
2089.398248	117.000000
2091.069241	107.000000
2092.739900	112.000000
2094.410225	114.333333
2096.080216	124.666667
2097.748171	98.000000
2099.415793	98.666667
2101.081380	110.000000
2102.748336	122.333333
2104.413259	136.666667
2106.077850	106.666667
2107.740409	114.000000
2109.404336	128.666667
2111.066232	146.333333
2112.727798	139.000000
2114.389032	133.333333
2116.048238	105.666667
2117.707113	142.000000
2119.365659	86.000000
2121.023874	157.666667
2122.678367	133.000000
2124.335924	146.666667
2125.993152	101.666667
2127.646658	130.000000
2129.301532	105.666667
2130.952687	119.333333
2132.606905	105.666667
2134.257406	125.333333
2135.909273	120.333333
2137.555732	134.000000
2139.206946	143.000000
2140.854446	109.333333
2142.503313	89.333333
2144.150161	127.000000
2145.796684	102.000000
2147.442881	121.666667
2149.085370	117.666667
2150.730917	156.000000
2152.372757	106.000000
2154.017654	115.000000
2155.658845	120.666667
2157.299714	158.000000
2158.940258	133.666667
2160.578790	136.666667
2162.218688	133.333333
2163.854886	142.333333
2165.492450	71.666667
2167.129692	145.666667
2168.764924	123.666667
2170.399835	124.333333
2172.034423	159.666667
2173.668691	184.333333
2175.299265	105.000000
2176.932891	157.000000
2178.562825	115.333333
2180.194124	140.000000
2181.823418	122.666667
2183.452393	157.000000
2185.081048	128.666667
2186.709384	139.333333
2188.335718	121.666667
2189.961733	146.666667
2191.585746	137.333333
2193.211125	124.666667
2194.834503	106.666667
2196.459246	136.000000
2198.080308	110.666667
2199.701053	150.000000
2201.323163	111.666667
2202.943275	133.000000
2204.561390	95.333333
2206.179190	119.333333
2207.796675	140.666667
2209.413844	92.000000
2211.030698	118.666667
2212.647236	132.000000
2214.261782	111.666667
2215.874335	137.000000
2217.488252	107.666667
2219.100178	133.666667
2220.713467	105.333333
2222.324766	148.000000
2223.934075	118.000000
2225.544748	116.666667
2227.153432	87.333333
2228.761803	108.333333
2230.368188	116.000000
2231.975936	113.333333
2233.581697	108.666667
2235.187147	113.333333
2236.790612	107.666667
2238.395440	151.666667
2239.998284	92.000000
2241.599145	147.000000
2243.201369	121.000000
2244.801611	118.666667
2246.403215	124.000000
2248.001166	92.000000
2249.600480	123.666667
2251.197814	127.666667
2252.794840	93.000000
2254.393228	124.000000
2255.987967	118.333333
2257.580729	117.666667
2259.174854	85.000000
2260.770340	116.666667
2262.362181	116.000000
2263.953716	131.666667
2265.546613	112.666667
2267.134200	120.666667
2268.726483	101.666667
2270.313460	140.000000
2271.903464	112.333333
2273.488164	136.333333
2275.077558	138.000000
2276.661650	127.333333
2278.247102	118.000000
2279.830586	70.000000
2281.417095	83.666667
2282.999971	145.666667
2284.582544	125.666667
2286.164813	113.000000
2287.743452	127.666667
2289.325116	127.000000
2290.903151	166.000000
2292.484209	112.000000
2294.061640	115.833333
2295.637108	119.666667
2297.215598	83.666667
2298.790464	115.333333
2300.365029	108.666667
2301.939294	97.333333
2303.513258	80.666667
2305.086921	85.333333
2306.660285	94.333333
2308.230030	98.000000
2309.799476	127.333333
2311.371940	133.000000
2312.939130	111.666667
2314.509338	113.333333
2316.075931	91.666667
2317.643884	122.333333
2319.209881	109.666667
2320.775581	116.000000
2322.340983	108.666667
2323.904432	118.666667
2325.469240	99.000000
2327.030440	120.333333
2328.594654	162.666667
2330.153606	149.666667
2331.715573	167.666667
2333.275588	160.333333
2334.835309	102.333333
2336.393080	89.000000
2337.950556	125.333333
2339.507738	92.666667
2341.062972	92.333333
2342.617913	124.666667
2344.172559	116.666667
2345.726912	110.000000
2347.280972	114.333333
2348.834737	139.333333
2350.386558	94.666667
2351.936437	128.666667
2353.489323	75.000000
2355.036966	126.333333
2356.587618	153.666667
2358.134678	129.000000
2359.683096	131.666667
2361.231223	143.666667
2362.775761	118.666667
2364.321657	108.666667
2365.865615	122.666667
2367.410930	129.000000
2368.952660	109.333333
2370.495747	94.666667
2372.036898	107.666667
2373.577760	105.666667
2375.118333	124.000000
2376.658617	112.666667
2378.198612	138.000000
2379.735029	94.333333
2381.274447	122.333333
2382.810287	104.666667
2384.347485	109.333333
2385.881107	119.666667
2387.417729	103.666667
2388.952421	112.333333
2390.485183	133.000000
2392.017658	128.000000
2393.548205	124.666667
2395.081750	68.666667
2396.610084	109.000000
2398.139774	121.666667
2399.669179	121.666667
2401.198299	123.666667
2402.727134	132.666667
2404.250763	128.000000
2405.779028	105.333333
2407.302091	135.666667
2408.829787	136.000000
2410.350644	98.333333
2411.876134	97.666667
2413.398063	115.666667
2414.921348	113.000000
2416.442711	140.666667
2417.962155	88.333333
2419.482954	79.333333
2421.001835	102.333333
2422.520433	123.666667
2424.037114	132.666667
2425.555149	103.666667
2427.072903	89.666667
2428.587106	107.000000
2430.101028	103.000000
2431.614670	125.666667
2433.129667	115.666667
2434.641115	130.000000
2436.153918	96.333333
2437.664807	115.666667
2439.175418	62.333333
2440.684117	143.000000
2442.195802	80.666667
2443.703944	137.000000
2445.211808	91.333333
2446.719394	119.666667
2448.223439	96.666667
2449.730469	130.333333
2451.235591	111.333333
2452.740436	131.666667
2454.243374	132.333333
2455.746036	129.333333
2457.248421	113.333333
2458.748901	110.666667
2460.250734	89.333333
2461.750662	115.666667
2463.250315	106.666667
2464.749693	134.000000
2466.247168	108.666667
2467.742741	81.666667
2469.241294	113.333333
2470.736319	106.000000
2472.232696	143.666667
2473.725547	84.000000
2475.219751	91.666667
2476.713681	118.000000
2478.204087	103.000000
2479.697471	126.333333
2481.188957	69.000000
2482.678546	107.666667
2484.167863	118.333333
2485.655284	122.333333
2487.145681	130.000000
2488.632560	132.666667
2490.120790	124.333333
2491.605503	122.333333
2493.089947	102.666667
2494.575741	144.333333
2496.059644	99.333333
2497.544897	117.333333
2499.025017	97.000000
2500.508110	112.333333
2501.989312	108.000000
2503.470245	123.333333
2504.949289	67.333333
2506.428064	124.000000
2507.906571	85.000000
2509.384810	103.666667
2510.862780	103.000000
2512.337245	120.000000
2513.814680	123.666667
2515.288611	89.333333
2516.763892	104.666667
2518.238906	130.666667
2519.710419	108.333333
2521.183283	105.666667
2522.654264	105.333333
2524.126595	111.000000
2525.593812	98.000000
2527.063996	88.000000
2528.532299	119.666667
2530.000337	112.666667
2531.468110	99.333333
2532.935618	106.333333
2534.402861	109.333333
2535.866612	120.333333
2537.331713	89.666667
2538.794937	124.666667
2540.259510	95.666667
2541.720595	100.333333
2543.183029	118.333333
2544.645200	140.333333
2546.103885	112.000000
2547.567141	109.666667
2549.025302	82.666667
2550.484811	103.666667
2551.939226	82.333333
2553.398212	99.666667
2554.855326	69.333333
2556.310569	120.000000
2557.765550	120.333333
2559.218663	129.333333
2560.673124	110.666667
2562.125715	113.333333
2563.578047	68.666667
2565.028512	112.000000
2566.481932	110.000000
2567.930270	91.000000
2569.381563	111.333333
2570.830991	139.333333
2572.276946	118.000000
2573.725856	130.000000
2575.171296	122.333333
2576.618083	126.666667
2578.063008	139.666667
2579.507674	101.333333
2580.953688	103.000000
2582.396236	127.666667
2583.840131	124.666667
2585.280561	103.000000
2586.722338	124.333333
2588.162256	134.333333
2589.603521	80.000000
2591.041324	121.333333
2592.482077	82.666667
2593.917768	75.666667
2595.356408	122.000000
2596.793190	93.333333
2598.228117	111.333333
2599.665991	104.333333
2601.098808	97.333333
2602.532972	92.000000
2603.965282	94.333333
2605.398938	84.666667
2606.830741	79.666667
2608.262290	114.666667
2609.693587	73.000000
2611.123031	101.666667
2612.552223	95.666667
2613.979565	126.666667
2615.408252	101.333333
2616.836688	117.333333
2618.261676	94.666667
2619.688011	99.666667
2621.112497	83.000000
2622.538329	141.666667
2623.960717	119.000000
2625.384451	97.666667
2626.806338	98.000000
2628.227976	91.333333
2629.647768	96.333333
2631.068906	97.666667
2632.489794	122.000000
2633.907244	108.666667
2635.327633	118.666667
2636.744585	104.666667
2638.161288	119.000000
2639.577743	123.000000
2640.993950	103.000000
2642.409909	120.000000
2643.824027	98.333333
2645.237897	97.666667
2646.649929	117.000000
2648.063304	113.666667
2649.473250	69.333333
2650.886132	98.333333
2652.295585	123.666667
2653.704792	94.333333
2655.112163	133.333333
2656.522468	121.333333
2657.930938	120.333333
2659.337572	119.666667
2660.743961	76.666667
2662.148516	127.000000
2663.554415	88.000000
2664.958481	101.000000
2666.362302	143.000000
2667.765879	108.666667
2669.167625	127.666667
2670.570714	91.000000
2671.970385	96.333333
2673.371400	97.666667
2674.768999	98.666667
2676.169527	117.333333
2677.566641	100.333333
2678.965098	112.666667
2680.361728	115.000000
2681.758115	102.666667
2683.154260	55.333333
2684.548579	113.666667
2685.944241	132.333333
2687.336494	139.000000
2688.730089	90.000000
2690.121860	127.000000
2691.514974	136.000000
2692.906264	102.000000
2694.295731	125.000000
2695.684958	83.666667
2697.073946	104.000000
2698.464275	105.333333
2699.849621	98.000000
2701.237890	106.666667
2702.624339	89.000000
2704.010549	118.000000
2705.396520	119.666667
2706.779093	81.666667
2708.163008	108.000000
2709.546685	103.333333
2710.930123	95.666667
2712.310167	84.333333
2713.691551	81.333333
2715.071121	104.666667
2716.452031	102.333333
2717.831127	94.333333
2719.208409	99.000000
2720.587032	116.666667
2721.963842	72.333333
2723.340415	100.666667
2724.716753	88.000000
2726.091280	127.000000
2727.467147	82.666667
2728.839627	120.333333
2730.215023	97.666667
2731.585459	88.000000
2732.957236	108.333333
2734.328778	96.666667
2735.698512	55.666667
2737.069587	83.333333
2738.438853	109.333333
2739.807886	112.333333
2741.175113	108.666667
2742.542106	92.333333
2743.908867	102.000000
2745.275396	111.666667
2746.640119	90.000000
2748.004610	97.000000
2749.368870	109.666667
2750.732897	117.666667
2752.096693	106.000000
2753.457115	87.000000
2754.820447	98.000000
2756.178837	88.666667
2757.540137	82.666667
2758.898067	95.000000
2760.258905	50.000000
2761.617944	78.000000
2762.973614	117.333333
2764.332192	114.333333
2765.687403	95.000000
2767.042385	79.666667
2768.395571	78.000000
2769.751662	108.666667
2771.104390	104.000000
2772.456890	81.666667
2773.809161	108.333333
2775.162770	86.333333
2776.513019	73.000000
2777.861473	88.333333
2779.212833	69.333333
2780.560833	99.000000
2781.910171	117.666667
2783.257717	107.333333
2784.605037	96.333333
2785.952130	78.000000
2787.297432	85.666667
2788.642507	124.333333
2789.987357	68.666667
2791.331981	104.666667
2792.673253	139.000000
2794.015863	91.000000
2795.358247	84.333333
2796.700406	88.333333
2798.039216	107.666667
2799.380926	102.333333
2800.719288	89.000000
2802.058986	83.666667
2803.396900	113.000000
2804.733029	116.333333
2806.068934	72.666667
2807.406177	122.666667
2808.741636	90.333333
2810.076872	80.000000
2811.410325	73.333333
2812.745115	116.000000
2814.076565	92.000000
2815.410910	126.333333
2816.740357	96.333333
2818.071141	90.666667
2819.401703	116.000000
2820.730486	101.666667
2822.060605	85.333333
2823.388946	77.666667
2824.717066	75.000000
2826.043408	122.000000
2827.371087	98.000000
2828.695432	84.666667
2830.021114	73.333333
2831.345020	99.333333
2832.668707	90.000000
2833.993729	73.333333
2835.315421	58.333333
2836.636895	109.000000
2837.958150	96.666667
2839.279186	100.000000
2840.598449	104.000000
2841.919048	89.666667
2843.237876	64.000000
2844.556485	102.333333
2845.873323	83.666667
2847.189944	102.666667
2848.506348	94.333333
2849.820982	94.666667
2851.136952	78.000000
2852.449601	85.000000
2853.763585	64.666667
2855.077353	82.000000
2856.390904	95.000000
2857.702689	92.333333
2859.012707	100.666667
2860.324060	66.666667
2861.632098	82.666667
2862.941470	112.666667
2864.250628	85.000000
2865.559570	87.000000
2866.866748	82.000000
2868.172164	85.000000
2869.478913	63.666667
2870.783901	110.333333
2872.088675	83.333333
2873.391687	86.333333
2874.697580	86.666667
2875.998619	93.333333
2877.300992	97.333333
2878.601605	107.000000
2879.903552	80.666667
2881.205285	56.666667
2882.503715	79.333333
2883.803478	114.000000
2885.101484	104.666667
2886.399278	68.333333
2887.695316	98.666667
2888.992687	103.666667
2890.288302	83.000000
2891.583706	114.666667
2892.878899	101.666667
2894.170795	113.000000
2895.465567	97.333333
2896.757042	106.000000
2898.049850	104.000000
2899.342448	95.666667
2900.631752	61.666667
2901.922388	61.333333
2903.211273	89.666667
2904.501490	110.666667
2905.788416	94.333333
2907.076674	79.000000
2908.363183	92.666667
2909.649483	80.000000
2910.935576	67.000000
2912.219920	80.666667
2913.507135	35.333333
2914.789524	72.333333
2916.073245	70.000000
2917.355220	112.333333
2918.636987	83.333333
2919.917010	87.333333
2921.199902	78.000000
2922.481049	84.666667
2923.758914	85.333333
2925.039648	62.333333
2926.317101	67.000000
2927.594348	115.000000
2928.869853	84.333333
2930.148226	78.000000
2931.421785	76.666667
2932.698211	93.000000
2933.972896	67.666667
2935.245840	58.000000
2936.520116	88.000000
2937.792652	85.000000
2939.064983	68.666667
2940.334042	118.666667
2941.605966	59.333333
2942.876152	96.666667
2944.146134	79.333333
2945.415913	89.000000
2946.683956	84.333333
2947.950262	86.666667
2949.216367	99.000000
2950.483801	109.333333
2951.749501	62.000000
2953.014998	73.666667
2954.280293	69.666667
2955.542323	102.333333
2956.805683	56.000000
2958.068842	111.000000
2959.330269	77.000000
2960.593025	90.000000
2961.854049	79.666667
2963.113343	94.000000
2964.372437	101.000000
2965.631330	71.333333
2966.890023	94.000000
2968.148516	111.333333
2969.405280	117.666667
2970.661844	125.333333
2971.916681	78.000000
2973.172846	94.333333
2974.425757	77.666667
2975.679997	116.666667
2976.934037	112.000000
2978.186353	85.000000
2979.438469	104.000000
2980.688861	88.000000
2981.942108	54.333333
2983.190578	94.333333
2984.441903	66.333333
2985.689978	63.333333
2986.937857	89.333333
2988.185538	66.666667
2989.433022	124.666667
2990.678785	68.333333
2991.924352	111.666667
2993.171246	90.333333
2994.414896	46.666667
2995.659874	98.333333
2996.901608	91.666667
2998.146194	100.666667
2999.389061	62.666667
3000.628687	102.000000
3001.871163	77.666667
3003.110399	76.000000
3004.350963	78.333333
3005.589810	55.333333
3006.828463	94.666667
3008.065400	95.333333
3009.303665	98.000000
3010.540214	61.000000
3011.776570	67.666667
3013.012732	72.333333
3014.247180	91.000000
3015.481436	103.666667
3016.715498	56.000000
3017.947848	69.666667
3019.178486	55.666667
3020.411970	75.000000
3021.643742	69.666667
3022.873804	112.666667
3024.103673	86.666667
3025.331833	82.000000
3026.561320	98.333333
3027.789097	103.666667
3029.016683	67.000000
3030.245596	96.000000
3031.469766	69.000000
3032.696779	102.333333
3033.920568	54.666667
3035.145684	120.333333
3036.369093	60.000000
3037.592312	83.666667
3038.813826	104.333333
3040.038181	68.333333
3041.257801	47.333333
3042.478747	72.666667
3043.699504	70.333333
3044.918557	79.333333
3046.138935	78.000000
3047.356097	119.000000
3048.574585	76.000000
3049.791370	84.333333
3051.007968	69.000000
3052.224377	65.000000
3053.437574	84.333333
3054.653608	117.000000
3055.866430	60.333333
3057.082089	96.333333
3058.293025	58.666667
3059.505286	56.000000
3060.717361	90.666667
3061.929248	68.000000
3063.139439	63.000000
3064.349443	79.000000
3065.559261	73.333333
3066.767383	81.000000
3067.975320	63.000000
3069.181561	106.333333
3070.389127	86.000000
3071.594998	79.666667
3072.800685	73.333333
3074.006186	90.000000
3075.209994	65.333333
3076.415126	80.333333
3077.618565	42.000000
3078.820313	111.666667
3080.021876	94.000000
3081.223256	96.000000
3082.424452	58.666667
3083.623958	45.333333
3084.823281	63.666667
3086.023927	71.666667
3087.222883	47.666667
3088.418645	97.333333
3089.617236	57.000000
3090.812633	110.333333
3092.009353	82.000000
3093.202881	66.000000
3094.399237	112.666667
3095.593907	93.000000
3096.785385	59.000000
3097.981196	79.000000
3099.172312	37.666667
3100.364752	96.000000
3101.554004	50.666667
3102.746081	99.666667
3103.936475	77.333333
3105.123683	100.333333
3106.312213	89.666667
3107.502066	82.000000
3108.688735	77.000000
3109.875223	70.666667
3111.061533	79.000000
3112.249164	117.000000
3113.433613	71.666667
3114.616383	62.333333
3115.801975	72.666667
3116.985888	87.333333
3118.168122	70.000000
3119.350177	92.333333
3120.532054	65.666667
3121.713753	93.000000
3122.893775	74.333333
3124.072120	57.000000
3125.253285	89.333333
3126.431275	91.666667
3127.609089	79.666667
3128.786725	63.333333
3129.962686	73.333333
3131.138470	103.000000
3132.315576	84.666667
3133.491007	78.000000
3134.664765	66.000000
3135.836850	86.333333
3137.010257	71.000000
3138.183487	80.000000
3139.355046	98.333333
3140.527925	60.666667
3141.697637	116.333333
3142.868670	83.000000
3144.038033	69.000000
3145.205725	89.666667
3146.376233	74.333333
3147.542083	95.666667
3148.712241	64.000000
3149.877743	87.333333
3151.043070	63.666667
3152.208224	70.000000
3153.373205	80.666667
3154.539505	82.666667
3155.701153	88.333333
3156.864120	96.000000
3158.026915	96.666667
3159.189537	78.000000
3160.350494	54.333333
3161.511278	89.666667
3162.671890	63.000000
3163.830838	72.666667
3164.989615	55.333333
3166.148220	65.666667
3167.306652	64.333333
3168.464914	80.000000
3169.621513	87.666667
3170.776451	77.333333
3171.932708	72.000000
3173.087304	81.333333
3174.241730	63.666667
3175.394496	89.666667
3176.547091	54.000000
3177.699517	80.666667
3178.851773	52.000000
3180.003858	67.666667
3181.152798	80.333333
3182.304544	88.000000
3183.454632	88.000000
3184.603064	81.666667
3185.751326	100.333333
3186.899420	77.666667
3188.047345	92.333333
3189.193614	80.333333
3190.339715	62.333333
3191.484162	90.000000
3192.628441	53.666667
3193.772552	93.333333
3194.917980	83.333333
3196.060270	106.333333
3197.202393	91.333333
3198.344348	85.000000
3199.486136	49.000000
3200.627757	99.666667
3201.766243	64.666667
3202.906046	102.333333
3204.047167	50.333333
3205.185153	61.000000
3206.321490	85.000000
3207.457661	31.333333
3208.595149	83.000000
3209.730989	46.000000
3210.868146	87.000000
3212.000690	63.000000
3213.137516	48.000000
3214.269730	90.666667
3215.403261	50.666667
3216.536628	99.666667
3217.666867	72.000000
3218.799904	65.000000
3219.929815	48.666667
3221.061042	87.333333
3222.189145	76.000000
3223.320044	65.666667
3224.449299	52.666667
3225.576911	51.000000
3226.701400	51.666667
3227.830165	82.000000
3228.955808	55.333333
3230.081289	93.000000
3231.205128	36.000000
3232.331761	112.333333
3233.453797	55.333333
3234.577149	95.000000
3235.700339	62.333333
3236.823366	97.333333
3237.944755	71.333333
3239.065981	84.333333
3240.185570	62.333333
3241.304997	65.000000
3242.422786	94.000000
3243.543367	64.333333
3244.660835	72.333333
3245.778142	63.333333
3246.895289	75.000000
3248.010800	77.666667
3249.127625	66.000000
3250.241341	92.333333
3251.357846	67.333333
3252.472717	82.666667
3253.584479	87.000000
3254.696081	100.666667
3255.808999	57.333333
3256.921757	74.333333
3258.031409	80.333333
3259.142376	79.000000
3260.253184	71.333333
3261.362360	90.666667
3262.469906	71.666667
3263.578765	76.000000
3264.687467	55.666667
3265.793066	86.333333
3266.899979	45.000000
3268.005263	66.000000
3269.111861	35.333333
3270.215359	79.333333
3271.320172	26.666667
3272.424827	47.333333
3273.526383	52.000000
3274.627783	70.666667
3275.730497	49.666667
3276.833055	83.333333
3277.932516	55.333333
3279.034761	76.666667
3280.133910	84.666667
3281.231435	66.666667
3282.328804	27.000000
3283.428955	93.000000
3284.526014	77.000000
3285.622917	72.333333
3286.719665	42.666667
3287.811855	59.333333
3288.908293	74.333333
3290.003109	99.333333
3291.097771	56.333333
3292.190811	59.000000
3293.283696	83.666667
3294.374962	71.000000
3295.467539	78.666667
3296.558497	78.000000
3297.647835	34.000000
3298.737020	82.000000
3299.827518	58.333333
3300.914931	50.000000
3302.002191	48.666667
3303.090764	97.000000
3304.179185	58.666667
3305.263058	72.666667
3306.351173	51.000000
3307.436206	61.000000
3308.519624	57.666667
3309.604354	80.666667
3310.687468	76.333333
3311.771895	89.666667
3312.853243	40.666667
3313.935903	59.333333
3315.016949	59.000000
3316.097844	56.000000
3317.177125	72.333333
3318.256256	82.666667
3319.336699	89.666667
3320.414067	91.666667
3321.492747	11.666667
3322.569815	70.666667
3323.646734	67.666667
3324.722041	88.000000
3325.797199	86.000000
3326.873668	92.000000
3327.947067	55.333333
3329.020317	70.666667
3330.094877	48.666667
3331.167829	89.666667
3332.239172	55.666667
3333.311826	81.666667
3334.381414	58.000000
3335.452312	41.333333
3336.521603	46.666667
3337.592205	88.333333
3338.661200	48.666667
3339.728589	59.333333
3340.794373	31.000000
3341.864383	74.333333
3342.931330	64.333333
3343.995215	76.666667
3345.061868	82.333333
3346.126916	41.666667
3347.190361	88.000000
3348.253660	75.666667
3349.316812	64.666667
3350.379818	62.333333
3351.442678	38.000000
3352.503936	82.000000
3353.562137	53.333333
3354.624558	52.333333
3355.683924	56.333333
3356.743144	70.333333
3357.803673	52.333333
3358.859694	51.666667
3359.918478	61.666667
3360.972755	56.333333
3362.029796	58.666667
3363.085238	49.333333
3364.141990	54.666667
3365.197143	60.333333
3366.250699	69.666667
3367.302659	49.666667
3368.357380	60.000000
3369.409052	70.666667
3370.460581	74.000000
3371.513418	78.666667
3372.563208	36.333333
3373.614307	87.666667
3374.662360	44.333333
3375.713172	45.333333
3376.760940	39.666667
3377.808565	67.666667
3378.856047	43.000000
3379.901937	100.333333
3380.949135	55.333333
3381.993291	76.666667
3383.040205	64.666667
3384.085527	62.666667
3385.127808	74.333333
3386.169949	68.333333
3387.213397	71.666667
3388.256704	116.333333
3389.298422	78.333333
3390.339998	50.333333
3391.381433	55.666667
3392.421280	75.666667
3393.459538	64.333333
3394.499104	81.333333
3395.538530	79.666667
3396.576368	59.000000
3397.612619	81.000000
3398.648731	77.666667
3399.686150	30.666667
3400.720536	37.333333
3401.756229	51.666667
3402.791783	76.666667
3403.824306	48.333333
3404.859582	64.333333
3405.891827	63.666667
3406.923934	68.000000
3407.954457	51.666667
3408.986287	93.000000
3410.017979	76.333333
3411.046643	62.000000
3412.075170	48.000000
3413.105003	65.333333
3414.134699	53.333333
3415.161369	70.000000
3416.189346	65.333333
3417.214298	64.333333
3418.242000	82.666667
3419.266679	73.333333
3420.292664	66.333333
3421.317069	80.666667
3422.341338	61.666667
3423.364028	79.666667
3424.386582	56.000000
3425.410442	65.333333
3426.431282	65.000000
3427.451986	66.000000
3428.473997	51.000000
3429.492989	35.000000
3430.511845	54.000000
3431.532008	52.000000
3432.549154	82.333333
