-116.707459	13.666667
-114.037859	15.333333
-111.371194	-8.333333
-108.705281	4.333333
-106.042300	18.000000
-103.377890	28.000000
-100.716410	-2.666667
-98.053501	5.666667
-95.395698	3.666667
-92.736466	11.000000
-90.077982	22.000000
-87.422422	-13.000000
-84.765434	2.333333
-82.113544	-7.333333
-79.460224	-12.666667
-76.809823	2.333333
-74.157993	-11.000000
-71.511254	21.333333
-68.863086	13.000000
-66.215660	6.333333
-63.571148	52.666667
-60.925208	14.666667
-58.284349	4.333333
-55.642061	13.333333
-53.002682	7.333333
-50.361873	-22.666667
-47.721805	26.666667
-45.086809	31.666667
-42.450385	-11.666667
-39.816863	20.333333
-37.181913	-15.666667
-34.552028	19.000000
-31.918551	17.000000
-29.290136	33.333333
-26.662455	10.000000
-24.033345	28.000000
-21.409292	18.333333
-18.781650	82.000000
-16.159061	60.333333
-13.537204	62.000000
-10.916077	116.000000
-8.295680	264.666667
-5.678172	746.000000
-3.059235	2308.333333
-0.443183	6425.333333
2.172140	9158.666667
4.786736	5273.333333
7.398449	885.000000
10.011591	82.666667
12.619699	57.000000
15.231389	23.000000
17.838048	29.666667
20.446135	38.666667
23.053498	8.666667
25.655836	37.333333
28.261752	25.666667
30.862646	9.666667
33.464968	7.000000
36.062273	-43.000000
38.663153	20.000000
41.259018	-5.000000
43.856312	11.666667
46.452886	21.333333
49.044451	37.000000
51.637444	23.333333
54.227576	-14.333333
56.819136	-1.333333
59.407836	4.666667
61.997963	-1.000000
64.583091	-5.666667
67.169647	-25.333333
69.755489	26.333333
72.338477	12.666667
74.922891	9.000000
77.500177	-4.333333
80.081029	5.000000
82.659032	-5.000000
85.236325	11.000000
87.815044	22.333333
90.388781	22.333333
92.963946	4.000000
95.536267	-9.666667
98.107880	26.666667
100.676653	-3.333333
103.246853	8.000000
105.814215	-5.333333
108.383002	-1.000000
110.948953	52.333333
113.512069	-30.333333
116.078741	30.666667
118.636192	31.333333
121.199328	51.666667
123.757504	29.333333
126.319235	58.000000
128.876009	43.666667
131.434210	63.666667
133.987457	77.333333
136.540007	156.333333
139.096107	193.333333
141.647259	240.666667
144.197714	264.666667
146.747471	297.333333
149.294409	300.333333
151.840652	344.666667
154.388320	375.000000
156.935292	388.000000
159.477329	377.666667
162.018672	404.000000
164.559322	349.666667
167.101398	399.666667
169.640662	324.333333
172.177118	365.000000
174.712882	343.666667
177.250072	352.000000
179.786571	360.666667
182.320264	368.000000
184.851153	328.000000
187.381355	329.666667
189.912981	347.333333
192.441806	345.333333
194.967832	338.333333
197.493172	372.666667
200.019937	310.333333
202.543906	368.666667
205.067190	312.333333
207.589789	342.666667
210.109595	337.000000
212.628718	353.000000
215.147158	293.666667
217.667022	343.666667
220.179885	319.666667
222.696279	365.333333
225.211991	360.333333
227.722813	401.333333
230.235060	341.333333
232.744525	343.000000
235.253311	330.333333
237.761418	383.666667
240.270950	342.000000
242.775601	333.666667
245.279576	372.666667
247.784975	378.000000
250.285499	302.666667
252.789547	368.666667
255.286623	367.666667
257.787223	375.000000
260.285051	372.333333
262.782206	383.666667
265.278688	437.666667
267.770307	434.000000
270.265446	411.000000
272.757818	416.666667
275.249520	475.333333
277.738459	506.333333
280.228822	513.333333
282.716422	570.333333
285.201263	622.000000
287.689619	768.000000
290.171035	946.333333
292.655965	1322.333333
295.136050	1915.000000
297.619647	2853.333333
300.098401	3650.333333
302.578579	3616.000000
305.056004	2605.000000
307.532766	1547.333333
310.008865	928.333333
312.482215	758.333333
314.954903	563.666667
317.426930	510.666667
319.898296	550.000000
322.366917	504.333333
324.834880	460.000000
327.304264	446.333333
329.768826	397.333333
332.236892	403.333333
334.700138	386.666667
337.162726	431.666667
339.624658	383.000000
342.085933	379.333333
344.544474	386.000000
347.004437	387.000000
349.461667	383.666667
351.918243	417.000000
354.374165	412.000000
356.827357	401.000000
359.281972	379.000000
361.731785	381.666667
364.185094	371.000000
366.633605	372.666667
369.081464	326.333333
371.530746	407.000000
373.975234	339.000000
376.421144	377.333333
378.866404	314.666667
381.308946	373.000000
383.750840	340.333333
386.192087	325.333333
388.630618	325.666667
391.070571	393.000000
393.507810	334.333333
395.942337	325.333333
398.380352	351.000000
400.813590	388.666667
403.248249	319.666667
405.678136	359.000000
408.111508	342.333333
410.540110	329.333333
412.968070	331.333333
415.397452	351.000000
417.822068	322.666667
420.248106	335.666667
422.673503	315.333333
425.098260	361.333333
427.518259	328.333333
429.939679	315.000000
432.358402	337.000000
434.778546	346.666667
437.195995	333.666667
439.614864	349.333333
442.031040	286.000000
444.442468	360.666667
446.857374	362.333333
449.269589	370.333333
451.681170	362.666667
454.092117	343.666667
456.500378	358.333333
458.908006	368.666667
461.315002	370.333333
463.721367	319.666667
466.125049	324.333333
468.528101	331.333333
470.930523	337.333333
473.332315	389.666667
475.731430	324.333333
478.131964	309.333333
480.531869	354.666667
482.927051	317.666667
485.325700	358.333333
487.719629	321.000000
490.112932	362.666667
492.505609	311.000000
494.897661	284.666667
497.291131	309.666667
499.679889	278.333333
502.065981	306.333333
504.453493	241.333333
506.840382	258.666667
509.224607	262.666667
511.610250	237.333333
513.993232	258.000000
516.373553	238.666667
518.755293	213.666667
521.134374	260.333333
523.514874	248.333333
525.892716	234.000000
528.267903	242.333333
530.642472	244.000000
533.018459	235.666667
535.391794	242.666667
537.766546	248.333333
540.136613	225.666667
542.506064	205.666667
544.876933	232.000000
547.243122	229.000000
549.610729	230.333333
551.975690	252.000000
554.340038	236.333333
556.703773	246.333333
559.068926	277.000000
561.429407	223.000000
563.791306	240.000000
566.150564	238.666667
568.507185	244.666667
570.867250	253.000000
573.220624	297.666667
575.577443	282.333333
577.931627	266.333333
580.285202	266.666667
582.638170	245.000000
584.988505	233.666667
587.340258	256.333333
589.685334	204.333333
592.035874	267.333333
594.379740	236.333333
596.729068	248.333333
599.073747	202.000000
601.415802	202.666667
603.759274	196.000000
606.100123	210.000000
608.440370	186.666667
610.777996	189.666667
613.119057	202.000000
615.455480	191.666667
617.793320	192.333333
620.128543	188.333333
622.461150	172.333333
624.795173	179.000000
627.126582	188.333333
629.457393	190.000000
631.787607	145.666667
634.117222	183.333333
636.442214	216.000000
638.772648	203.666667
641.098461	183.333333
643.421666	164.333333
645.746288	167.333333
648.068304	168.666667
650.389726	173.333333
652.708546	182.333333
655.028781	168.333333
657.348423	159.333333
659.665464	173.333333
661.981913	194.333333
664.295764	148.666667
666.611031	188.333333
668.923701	178.000000
671.237786	170.333333
673.547271	154.000000
675.858172	178.666667
678.166480	170.666667
680.474200	157.000000
682.783334	168.000000
685.087876	151.000000
687.391832	167.333333
689.695202	161.333333
691.999986	195.333333
694.300184	149.666667
696.601796	172.333333
698.902823	188.666667
701.199269	117.666667
703.497130	203.000000
705.794407	167.000000
708.091101	160.000000
710.383219	166.333333
712.678748	172.666667
714.969703	165.333333
717.262073	163.000000
719.551868	175.000000
721.841082	190.333333
724.129717	175.000000
726.415779	174.000000
728.703256	157.000000
730.988161	173.666667
733.272489	166.666667
735.554248	179.000000
737.837421	133.666667
740.120017	166.000000
742.398057	191.000000
744.677512	176.333333
746.956390	163.000000
749.234694	174.000000
751.508448	180.000000
753.783615	180.666667
756.058209	187.000000
758.330244	215.000000
760.603692	182.666667
762.874582	166.333333
765.142916	210.666667
767.412663	182.000000
769.679856	156.333333
771.946478	208.333333
774.212530	182.000000
776.476031	185.000000
778.740945	158.666667
781.005289	210.000000
783.265104	185.333333
785.526331	162.666667
787.786991	169.333333
790.045105	168.666667
792.300674	186.000000
794.559634	188.666667
796.812095	181.666667
799.069922	161.666667
801.323231	179.000000
803.574000	223.666667
805.826181	169.666667
808.075823	183.666667
810.326878	168.000000
812.573421	211.333333
814.821376	165.000000
817.066797	194.000000
819.313629	168.000000
821.559900	205.000000
823.801666	190.666667
826.046816	146.666667
828.285493	220.333333
830.527552	171.333333
832.765113	177.000000
835.004086	168.666667
837.240532	170.000000
839.478389	158.000000
841.713721	157.333333
843.946530	167.333333
846.180750	163.666667
848.412447	192.333333
850.643590	179.000000
852.874178	156.000000
855.104212	187.333333
857.333692	210.000000
859.558690	159.000000
861.787063	179.666667
864.010956	186.666667
866.236261	213.333333
868.457090	160.666667
870.681291	210.666667
872.901019	202.000000
875.122157	188.000000
877.342745	152.000000
879.560824	176.666667
881.780312	181.666667
883.995334	171.666667
886.209808	194.000000
888.423735	171.666667
890.637115	160.000000
892.849947	193.333333
895.062233	175.666667
897.272016	165.000000
899.481254	165.000000
901.689947	175.666667
903.896141	147.666667
906.103744	169.666667
908.308849	153.000000
910.513411	158.333333
912.715478	179.333333
914.918954	152.333333
917.119936	167.000000
919.320376	182.000000
921.522225	129.333333
923.717683	176.666667
925.916500	174.000000
928.110878	173.333333
930.308614	139.666667
932.501914	178.333333
934.696623	130.000000
936.888846	177.333333
939.080530	171.666667
941.271677	151.333333
943.460341	157.333333
945.648469	175.666667
947.834116	194.333333
950.023115	171.333333
952.207691	163.333333
954.391732	185.333333
956.579123	172.666667
958.758210	168.666667
960.940648	199.666667
963.122552	212.666667
965.301981	178.666667
967.478938	185.333333
969.657303	217.000000
971.837075	169.000000
974.010498	208.000000
976.187267	206.000000
978.359629	191.666667
980.533399	157.000000
982.702765	219.333333
984.875475	190.333333
987.045720	203.333333
989.215436	177.333333
991.384623	184.000000
993.549413	218.666667
995.717544	173.666667
997.881281	164.000000
1000.046424	183.666667
1002.209108	170.333333
1004.371267	196.666667
1006.530969	218.666667
1008.690146	233.666667
1010.850730	214.666667
1013.008859	202.666667
1015.166465	255.666667
1017.323547	205.000000
1019.480105	208.333333
1021.632284	184.666667
1023.785870	203.666667
1025.938934	193.333333
1028.089549	213.000000
1030.241571	208.666667
1032.389219	254.666667
1034.540199	217.666667
1036.686808	212.666667
1038.832898	229.000000
1040.978470	262.000000
1043.125447	237.666667
1045.266135	244.666667
1047.410153	243.000000
1049.551730	239.333333
1051.692791	223.333333
1053.835256	245.666667
1055.971442	227.333333
1058.110953	248.000000
1060.246110	220.666667
1062.384591	235.333333
1064.518718	259.000000
1066.652332	239.000000
1068.787351	215.000000
1070.918020	244.000000
1073.050094	223.000000
1075.179739	259.666667
1077.308872	221.000000
1079.437493	221.333333
1081.565603	188.000000
1083.691287	184.000000
1085.816461	191.000000
1087.943039	230.333333
1090.065279	191.666667
1092.188924	216.333333
1094.308234	198.333333
1096.432774	193.666667
1098.551068	215.333333
1100.670767	202.666667
1102.788047	228.000000
1104.904821	217.333333
1107.021088	173.000000
1109.134939	207.333333
1111.250195	187.666667
1113.361127	198.333333
1115.475372	179.000000
1117.585296	185.666667
1119.696624	190.000000
1121.807447	214.000000
1123.913954	231.000000
1126.023771	179.000000
1128.129273	190.333333
1130.236178	193.666667
1132.336868	192.333333
1134.442770	207.000000
1136.544363	171.666667
1138.647359	180.666667
1140.749854	168.666667
1142.846142	188.000000
1144.947637	152.333333
1147.044830	161.000000
1149.141525	193.000000
1151.237721	212.666667
1153.333420	206.333333
1155.428620	200.000000
1157.521424	208.333333
1159.615631	191.333333
1161.703646	193.666667
1163.796859	193.333333
1165.883884	191.000000
1167.974208	218.333333
1170.060244	214.666667
1172.149579	182.333333
1174.232732	187.666667
1176.317287	187.333333
1178.403244	182.666667
1180.484919	180.000000
1182.567996	178.666667
1184.648687	205.000000
1186.728886	159.000000
1188.808594	185.000000
1190.887811	183.000000
1192.964646	179.000000
1195.039100	179.000000
1197.116845	197.000000
1199.190321	151.333333
1201.265197	208.333333
1203.335806	185.000000
1205.407816	179.000000
1207.477451	217.000000
1209.548486	198.333333
1211.619033	179.000000
1213.685319	203.333333
1215.753006	192.666667
1217.818321	178.666667
1219.885036	146.666667
1221.947495	172.000000
1224.013239	171.000000
1226.074729	169.000000
1228.137620	182.000000
1230.198143	177.666667
1232.258182	172.333333
1234.317739	167.000000
1236.374930	174.000000
1238.431640	198.000000
1240.485986	136.666667
1242.543614	194.000000
1244.598879	183.000000
1246.649903	192.000000
1248.702327	172.000000
1250.754271	147.666667
1252.803857	161.333333
1254.852964	216.666667
1256.901593	131.333333
1258.949743	162.333333
1260.997414	167.666667
1263.040855	218.333333
1265.087572	182.000000
1267.131935	178.666667
1269.175822	162.333333
1271.217357	193.666667
1273.256543	149.333333
1275.299002	149.333333
1277.337238	167.333333
1279.376873	178.333333
1281.416033	171.666667
1283.450974	147.666667
1285.487314	187.000000
1287.521310	226.000000
1289.556703	144.333333
1291.587884	186.666667
1293.620462	201.333333
1295.652569	166.666667
1297.682335	181.333333
1299.713498	142.666667
1301.740455	203.000000
1303.768809	214.333333
1305.792958	168.333333
1307.820373	197.666667
1309.843585	161.666667
1311.868195	178.333333
1313.890471	184.000000
1315.914144	207.000000
1317.935484	165.333333
1319.956356	226.333333
1321.976761	181.000000
1323.992973	144.333333
1326.010582	162.333333
1328.025863	180.333333
1330.044403	176.000000
1332.058754	199.666667
1334.070779	179.333333
1336.086061	163.666667
1338.097158	153.333333
1340.109652	206.333333
1342.117963	119.333333
1344.129529	167.333333
1346.135057	135.666667
1348.143840	195.000000
1350.148445	155.000000
1352.156304	179.333333
1354.163701	160.666667
1356.165067	156.000000
1358.167829	171.000000
1360.170132	168.000000
1362.171975	190.333333
1364.173358	183.000000
1366.172428	159.333333
1368.171039	199.000000
1370.169192	172.000000
1372.166886	214.000000
1374.160418	157.000000
1376.155345	221.333333
1378.149816	191.666667
1380.143830	177.666667
1382.135537	191.000000
1384.126789	184.333333
1386.115735	181.000000
1388.106076	180.000000
1390.095962	164.666667
1392.083544	173.666667
1394.070673	190.333333
1396.055500	156.333333
1398.041722	171.666667
1400.025644	156.333333
1402.009113	177.000000
1403.992129	184.000000
1405.972848	140.333333
1407.954961	165.333333
1409.934778	144.666667
1411.914143	186.666667
1413.889370	140.333333
1415.867835	169.333333
1417.844007	182.000000
1419.819730	171.333333
1421.795003	151.666667
1423.767985	153.333333
1425.740519	164.333333
1427.712605	226.666667
1429.684244	220.000000
1431.651754	163.000000
1433.624338	163.666667
1435.589116	200.666667
1437.558967	187.666667
1439.524694	151.666667
1441.491813	156.666667
1443.456649	167.333333
1445.417365	166.000000
1447.383149	169.000000
1449.342978	171.333333
1451.304201	187.666667
1453.266816	173.333333
1455.225316	175.000000
1457.183373	200.333333
1459.140989	190.666667
1461.098162	152.666667
1463.053060	211.000000
1465.009351	136.333333
1466.963367	186.000000
1468.916942	137.666667
1470.868245	187.666667
1472.820941	142.666667
1474.771364	156.666667
1476.721349	185.000000
1478.670895	212.000000
1480.618172	196.666667
1482.563181	158.666667
1484.509583	161.333333
1486.455547	183.000000
1488.401074	162.333333
1490.344335	185.000000
1492.287161	170.000000
1494.227723	157.666667
1496.169676	160.333333
1498.109367	201.666667
1500.048624	154.000000
1501.987445	164.000000
1503.924007	217.000000
1505.861960	200.000000
1507.797654	192.333333
1509.732915	170.666667
1511.665920	185.333333
1513.598492	184.666667
1515.530632	145.333333
1517.462340	225.666667
1519.391794	161.333333
1521.322639	182.000000
1523.253052	163.333333
1525.179393	180.333333
1527.107125	163.333333
1529.032606	169.000000
1530.957658	159.666667
1532.882281	209.666667
1534.806475	167.666667
1536.728421	163.333333
1538.651758	153.333333
1540.572848	166.333333
1542.491694	147.666667
1544.411930	219.000000
1546.329923	181.333333
1548.247489	185.333333
1550.162813	183.666667
1552.079527	176.333333
1553.992186	180.666667
1555.908049	235.666667
1557.821672	183.333333
1559.733057	183.000000
1561.645832	169.333333
1563.554557	169.333333
1565.464671	199.000000
1567.374362	179.666667
1569.283630	193.333333
1571.190664	187.000000
1573.095465	181.333333
1575.001655	189.000000
1576.905613	165.333333
1578.809150	189.000000
1580.712267	189.666667
1582.613154	156.666667
1584.515430	172.333333
1586.415478	194.333333
1588.316913	177.666667
1590.214315	181.666667
1592.111298	190.666667
1594.007863	173.000000
1595.905816	138.666667
1597.797934	198.666667
1599.693245	196.333333
1601.588139	213.666667
1603.480811	183.000000
1605.373066	182.000000
1607.263102	179.333333
1609.152722	175.666667
1611.041927	173.333333
1612.930717	152.666667
1614.817289	177.000000
1616.705249	161.000000
1618.589192	163.666667
1620.474522	158.333333
1622.359439	180.666667
1624.242142	178.000000
1626.126232	146.000000
1628.006310	208.666667
1629.887776	187.666667
1631.767031	191.333333
1633.647672	178.333333
1635.522509	182.666667
1637.402327	153.000000
1639.278141	142.666667
1641.153544	158.666667
1643.030333	167.666667
1644.901326	174.333333
1646.775500	201.666667
1648.645675	165.666667
1650.519032	185.333333
1652.390184	174.000000
1654.259136	176.666667
1656.129472	145.333333
1657.995816	196.333333
1659.863545	141.666667
1661.729075	161.333333
1663.595991	179.000000
1665.458918	213.666667
1667.323230	169.666667
1669.185346	212.666667
1671.047057	161.000000
1672.910154	154.000000
1674.771055	185.666667
1676.629764	156.333333
1678.488069	192.333333
1680.347759	221.666667
1682.201681	158.666667
1684.058777	174.000000
1685.915470	201.666667
1687.768186	179.666667
1689.624074	174.000000
1691.475988	189.000000
1693.327501	165.000000
1695.178613	192.333333
1697.029325	163.333333
1698.879635	141.666667
1700.727762	169.000000
1702.577273	188.666667
1704.421035	186.000000
1706.269746	168.000000
1708.112711	202.333333
1709.958843	149.666667
1711.801012	156.000000
1713.646347	157.666667
1715.485941	189.000000
1717.326919	196.000000
1719.169280	139.666667
1721.007685	185.333333
1722.847473	178.333333
1724.685086	169.000000
1726.522303	161.333333
1728.357347	196.333333
1730.193774	160.000000
1732.028029	146.000000
1733.861889	174.000000
1735.695355	167.666667
1737.524876	153.000000
1739.357555	201.333333
1741.186290	166.666667
1743.018182	176.000000
1744.846132	159.000000
1746.673691	191.000000
1748.500857	171.000000
1750.327632	200.333333
1752.154015	177.333333
1753.976462	173.333333
1755.802064	193.333333
1757.623731	175.333333
1759.446780	198.000000
1761.267667	189.666667
1763.088166	172.333333
1764.910045	186.000000
1766.726226	173.333333
1768.545558	225.333333
1770.360963	190.333333
1772.179518	215.333333
1773.994148	175.666667
1775.808391	179.666667
1777.622248	201.000000
1779.435718	204.000000
1781.247035	157.000000
1783.059732	200.333333
1784.872044	165.666667
1786.680438	191.666667
1788.490212	156.333333
1790.296072	175.333333
1792.105077	149.000000
1793.910169	181.000000
1795.716642	177.000000
1797.522731	158.666667
1799.324909	166.666667
1801.130232	159.666667
1802.931646	189.000000
1804.734440	134.666667
1806.533328	174.333333
1808.333597	151.000000
1810.133484	138.333333
1811.931229	183.333333
1813.728594	155.000000
1815.525579	182.666667
1817.322183	149.000000
1819.116648	180.333333
1820.912492	200.666667
1822.702681	182.666667
1824.497767	159.000000
1826.287201	175.333333
1828.079771	157.333333
1829.870206	167.000000
1831.658507	148.000000
1833.449943	142.666667
1835.235733	146.333333
1837.022903	164.333333
1838.807941	147.666667
1840.596113	190.000000
1842.380399	174.333333
1844.162555	182.000000
1845.946091	181.333333
1847.727498	203.333333
1849.510284	165.666667
1851.289189	177.666667
1853.069474	147.333333
1854.847632	183.666667
1856.627169	171.000000
1858.404581	190.000000
1860.179869	186.000000
1861.956535	177.666667
1863.731079	176.666667
1865.507001	176.666667
1867.277302	186.666667
1869.050731	166.666667
1870.822040	174.666667
1872.592978	138.000000
1874.365294	188.000000
1876.131996	151.666667
1877.901824	152.333333
1879.667788	158.333333
1881.436875	160.666667
1883.202101	193.000000
1884.966959	144.666667
1886.733194	170.333333
1888.495570	153.000000
1890.257579	195.000000
1892.019220	192.666667
1893.780495	176.666667
1895.541402	167.333333
1897.301943	194.000000
1899.060374	158.333333
1900.818439	153.333333
1902.574397	184.666667
1904.331731	175.333333
1906.088700	159.666667
1907.843562	176.666667
1909.596320	156.666667
1911.348713	154.000000
1913.102483	144.666667
1914.854149	171.000000
1916.603713	179.000000
1918.354652	185.000000
1920.105229	169.666667
1921.851966	181.333333
1923.600080	149.666667
1925.346094	189.666667
1927.093483	171.333333
1928.838775	153.666667
1930.581969	143.000000
1932.326538	159.000000
1934.069012	161.666667
1935.811125	171.333333
1937.552878	165.000000
1939.294271	182.666667
1941.033571	165.333333
1942.772512	148.333333
1944.511094	194.333333
1946.247585	138.666667
1947.983718	158.833333
1949.721225	179.000000
1951.454910	159.333333
1953.189970	167.666667
1954.922941	193.000000
1956.655556	196.333333
1958.387815	171.333333
1960.119717	181.000000
1961.849533	138.666667
1963.577264	200.000000
1965.306370	192.000000
1967.035121	176.666667
1968.761788	192.666667
1970.488101	186.333333
1972.215787	164.000000
1973.937937	156.333333
1975.663188	170.000000
1977.384632	185.666667
1979.109177	179.333333
1980.831641	158.000000
1982.550303	152.333333
1984.272063	219.333333
1985.990021	121.666667
1987.709352	172.666667
1989.424884	154.000000
1991.145236	177.000000
1992.861790	142.666667
1994.574547	165.000000
1996.290400	200.333333
1998.004181	154.666667
1999.717612	154.333333
2001.428972	165.333333
2003.141704	193.666667
2004.850646	204.000000
2006.562680	179.333333
2008.269206	167.666667
2009.978823	148.666667
2011.686374	132.333333
2013.393576	148.333333
2015.098713	150.333333
2016.803504	167.666667
2018.509666	178.666667
2020.212046	176.000000
2021.915797	195.333333
2023.617486	196.333333
2025.318830	169.000000
2027.019828	140.666667
2028.718765	181.333333
2030.419074	142.000000
2032.115608	195.666667
2033.813513	170.000000
2035.509359	159.333333
2037.208291	170.666667
2038.901737	184.333333
2040.596554	189.000000
2042.291029	160.333333
2043.981735	182.666667
2045.675525	192.666667
2047.365548	152.666667
2049.056942	162.333333
2050.746283	168.000000
2052.436994	167.666667
2054.123942	162.666667
2055.810551	144.333333
2057.498529	171.666667
2059.182748	157.666667
2060.868338	142.333333
2062.553588	165.000000
2064.236789	122.000000
2065.921361	208.333333
2067.600470	171.000000
2069.284364	190.333333
2070.962797	158.000000
2072.644308	138.000000
2074.322067	184.333333
2075.999490	178.333333
2077.678282	188.333333
2079.355032	162.333333
2081.029740	149.000000
2082.705817	177.000000
2084.379853	157.000000
2086.053555	157.000000
2087.726921	144.000000
2089.398248	179.000000
2091.069241	188.333333
2092.739900	161.000000
2094.410225	150.000000
2096.080216	157.666667
2097.748171	156.000000
2099.415793	171.333333
2101.081380	161.666667
2102.748336	194.000000
2104.413259	141.333333
2106.077850	173.000000
2107.740409	134.333333
2109.404336	169.666667
2111.066232	120.666667
2112.727798	172.333333
2114.389032	166.333333
2116.048238	175.333333
2117.707113	192.666667
2119.365659	190.000000
2121.023874	137.333333
2122.678367	180.666667
2124.335924	170.333333
2125.993152	175.333333
2127.646658	156.666667
2129.301532	185.666667
2130.952687	182.333333
2132.606905	166.666667
2134.257406	141.666667
2135.909273	182.666667
2137.555732	148.000000
2139.206946	182.666667
2140.854446	171.333333
2142.503313	146.000000
2144.150161	171.000000
2145.796684	154.333333
2147.442881	175.000000
2149.085370	178.000000
2150.730917	174.666667
2152.372757	188.000000
2154.017654	145.000000
2155.658845	176.333333
2157.299714	169.333333
2158.940258	173.333333
2160.578790	169.666667
2162.218688	153.333333
2163.854886	152.666667
2165.492450	158.666667
2167.129692	155.666667
2168.764924	154.666667
2170.399835	159.333333
2172.034423	181.000000
2173.668691	146.666667
2175.299265	132.333333
2176.932891	188.666667
2178.562825	205.333333
2180.194124	136.333333
2181.823418	149.666667
2183.452393	134.333333
2185.081048	201.000000
2186.709384	193.000000
2188.335718	165.000000
2189.961733	163.000000
2191.585746	163.000000
2193.211125	153.333333
2194.834503	193.000000
2196.459246	174.000000
2198.080308	169.333333
2199.701053	179.333333
2201.323163	183.666667
2202.943275	183.666667
2204.561390	144.000000
2206.179190	119.333333
2207.796675	182.666667
2209.413844	158.666667
2211.030698	192.333333
2212.647236	173.666667
2214.261782	190.000000
2215.874335	147.333333
2217.488252	137.666667
2219.100178	157.666667
2220.713467	176.666667
2222.324766	173.333333
2223.934075	159.333333
2225.544748	175.333333
2227.153432	176.666667
2228.761803	141.000000
2230.368188	121.333333
2231.975936	164.333333
2233.581697	166.666667
2235.187147	176.333333
2236.790612	179.000000
2238.395440	146.333333
2239.998284	153.333333
2241.599145	155.666667
2243.201369	163.666667
2244.801611	138.000000
2246.403215	171.000000
2248.001166	143.666667
2249.600480	163.333333
2251.197814	141.000000
2252.794840	159.333333
2254.393228	150.333333
2255.987967	187.333333
2257.580729	131.000000
2259.174854	152.333333
2260.770340	182.666667
2262.362181	165.333333
2263.953716	172.333333
2265.546613	188.666667
2267.134200	150.333333
2268.726483	162.333333
2270.313460	176.333333
2271.903464	176.666667
2273.488164	153.666667
2275.077558	164.333333
2276.661650	131.333333
2278.247102	135.333333
2279.830586	154.000000
2281.417095	174.666667
2282.999971	184.000000
2284.582544	129.333333
2286.164813	140.666667
2287.743452	177.000000
2289.325116	153.000000
2290.903151	155.666667
2292.484209	158.333333
2294.061640	165.833333
2295.637108	173.333333
2297.215598	139.666667
2298.790464	153.333333
2300.365029	174.666667
2301.939294	193.666667
2303.513258	112.666667
2305.086921	163.000000
2306.660285	157.666667
2308.230030	158.000000
2309.799476	152.666667
2311.371940	158.000000
2312.939130	170.333333
2314.509338	153.000000
2316.075931	164.000000
2317.643884	138.666667
2319.209881	167.333333
2320.775581	145.333333
2322.340983	168.333333
2323.904432	137.000000
2325.469240	200.333333
2327.030440	176.666667
2328.594654	141.000000
2330.153606	195.666667
2331.715573	170.000000
2333.275588	150.000000
2334.835309	166.000000
2336.393080	139.333333
2337.950556	167.333333
2339.507738	176.333333
2341.062972	162.666667
2342.617913	123.333333
2344.172559	152.333333
2345.726912	133.666667
2347.280972	163.666667
2348.834737	155.000000
2350.386558	184.000000
2351.936437	135.000000
2353.489323	169.000000
2355.036966	162.000000
2356.587618	195.000000
2358.134678	133.666667
2359.683096	171.000000
2361.231223	139.000000
2362.775761	147.333333
2364.321657	144.000000
2365.865615	161.333333
2367.410930	181.000000
2368.952660	149.000000
2370.495747	134.000000
2372.036898	163.333333
2373.577760	156.333333
2375.118333	139.333333
2376.658617	172.666667
2378.198612	158.000000
2379.735029	161.666667
2381.274447	179.000000
2382.810287	133.333333
2384.347485	145.666667
2385.881107	116.000000
2387.417729	128.000000
2388.952421	164.000000
2390.485183	156.666667
2392.017658	168.000000
2393.548205	165.666667
2395.081750	150.666667
2396.610084	141.666667
2398.139774	130.333333
2399.669179	168.333333
2401.198299	122.333333
2402.727134	156.333333
2404.250763	143.333333
2405.779028	170.333333
2407.302091	161.333333
2408.829787	160.666667
2410.350644	180.666667
2411.876134	135.666667
2413.398063	161.000000
2414.921348	165.666667
2416.442711	137.333333
2417.962155	167.333333
2419.482954	130.333333
2421.001835	160.666667
2422.520433	140.333333
2424.037114	153.333333
2425.555149	176.000000
2427.072903	157.666667
2428.587106	144.000000
2430.101028	151.666667
2431.614670	158.666667
2433.129667	145.000000
2434.641115	164.000000
2436.153918	123.333333
2437.664807	144.333333
2439.175418	150.666667
2440.684117	139.666667
2442.195802	170.000000
2443.703944	144.333333
2445.211808	142.333333
2446.719394	153.666667
2448.223439	151.666667
2449.730469	163.666667
2451.235591	145.000000
2452.740436	137.333333
2454.243374	171.333333
2455.746036	156.333333
2457.248421	151.000000
2458.748901	133.333333
2460.250734	124.000000
2461.750662	150.666667
2463.250315	153.666667
2464.749693	141.666667
2466.247168	167.666667
2467.742741	169.000000
2469.241294	138.666667
2470.736319	123.333333
2472.232696	148.000000
2473.725547	151.000000
2475.219751	124.333333
2476.713681	145.666667
2478.204087	138.666667
2479.697471	109.000000
2481.188957	180.666667
2482.678546	143.333333
2484.167863	165.333333
2485.655284	161.666667
2487.145681	176.333333
2488.632560	140.666667
2490.120790	135.666667
2491.605503	146.666667
2493.089947	151.000000
2494.575741	165.666667
2496.059644	166.333333
2497.544897	116.333333
2499.025017	142.333333
2500.508110	125.333333
2501.989312	141.666667
2503.470245	153.000000
2504.949289	159.666667
2506.428064	140.333333
2507.906571	161.666667
2509.384810	131.000000
2510.862780	142.333333
2512.337245	126.666667
2513.814680	151.666667
2515.288611	131.333333
2516.763892	151.666667
2518.238906	132.333333
2519.710419	175.666667
2521.183283	114.000000
2522.654264	155.333333
2524.126595	153.000000
2525.593812	154.333333
2527.063996	150.000000
2528.532299	156.333333
2530.000337	150.666667
2531.468110	140.000000
2532.935618	159.666667
2534.402861	148.666667
2535.866612	121.333333
2537.331713	124.333333
2538.794937	160.666667
2540.259510	124.000000
2541.720595	129.333333
2543.183029	136.000000
2544.645200	161.666667
2546.103885	152.666667
2547.567141	163.666667
2549.025302	104.333333
2550.484811	138.000000
2551.939226	122.333333
2553.398212	121.666667
2554.855326	170.333333
2556.310569	122.000000
2557.765550	152.333333
2559.218663	146.666667
2560.673124	142.000000
2562.125715	169.000000
2563.578047	166.000000
2565.028512	162.666667
2566.481932	188.666667
2567.930270	152.000000
2569.381563	137.333333
2570.830991	156.666667
2572.276946	106.666667
2573.725856	129.000000
2575.171296	100.666667
2576.618083	123.000000
2578.063008	135.333333
2579.507674	163.000000
2580.953688	178.666667
2582.396236	147.333333
2583.840131	162.666667
2585.280561	127.333333
2586.722338	137.666667
2588.162256	153.666667
2589.603521	149.333333
2591.041324	117.666667
2592.482077	114.666667
2593.917768	112.666667
2595.356408	183.333333
2596.793190	142.000000
2598.228117	116.333333
2599.665991	165.333333
2601.098808	158.000000
2602.532972	154.666667
2603.965282	171.333333
2605.398938	149.000000
2606.830741	136.666667
2608.262290	122.333333
2609.693587	138.333333
2611.123031	135.000000
2612.552223	104.333333
2613.979565	123.333333
2615.408252	101.000000
2616.836688	142.666667
2618.261676	134.333333
2619.688011	93.666667
2621.112497	130.000000
2622.538329	154.666667
2623.960717	149.000000
2625.384451	116.666667
2626.806338	143.666667
2628.227976	152.666667
2629.647768	127.000000
2631.068906	154.000000
2632.489794	144.000000
2633.907244	96.333333
2635.327633	152.666667
2636.744585	111.666667
2638.161288	175.333333
2639.577743	136.333333
2640.993950	136.000000
2642.409909	131.666667
2643.824027	151.333333
2645.237897	165.000000
2646.649929	170.000000
2648.063304	131.000000
2649.473250	122.333333
2650.886132	132.000000
2652.295585	156.000000
2653.704792	149.666667
2655.112163	132.666667
2656.522468	120.666667
2657.930938	142.333333
2659.337572	135.666667
2660.743961	167.666667
2662.148516	144.333333
2663.554415	144.000000
2664.958481	132.666667
2666.362302	163.333333
2667.765879	130.333333
2669.167625	161.666667
2670.570714	138.333333
2671.970385	135.666667
2673.371400	153.000000
2674.768999	144.333333
2676.169527	134.333333
2677.566641	131.666667
2678.965098	139.000000
2680.361728	154.666667
2681.758115	155.333333
2683.154260	110.333333
2684.548579	116.666667
2685.944241	150.666667
2687.336494	110.000000
2688.730089	118.000000
2690.121860	130.333333
2691.514974	147.000000
2692.906264	152.666667
2694.295731	149.666667
2695.684958	167.000000
2697.073946	143.666667
2698.464275	134.333333
2699.849621	123.000000
2701.237890	127.666667
2702.624339	172.666667
2704.010549	150.666667
2705.396520	160.000000
2706.779093	136.666667
2708.163008	150.666667
2709.546685	126.000000
2710.930123	119.666667
2712.310167	123.666667
2713.691551	122.000000
2715.071121	132.000000
2716.452031	177.333333
2717.831127	137.000000
2719.208409	158.000000
2720.587032	127.666667
2721.963842	162.333333
2723.340415	102.666667
2724.716753	126.666667
2726.091280	164.000000
2727.467147	118.333333
2728.839627	128.000000
2730.215023	134.666667
2731.585459	122.000000
2732.957236	167.666667
2734.328778	141.000000
2735.698512	111.666667
2737.069587	127.333333
2738.438853	158.666667
2739.807886	134.000000
2741.175113	171.666667
2742.542106	147.000000
2743.908867	136.666667
2745.275396	157.666667
2746.640119	147.666667
2748.004610	136.333333
2749.368870	145.333333
2750.732897	151.000000
2752.096693	195.333333
2753.457115	121.333333
2754.820447	125.000000
2756.178837	111.000000
2757.540137	155.666667
2758.898067	149.333333
2760.258905	125.333333
2761.617944	149.000000
2762.973614	131.666667
2764.332192	124.333333
2765.687403	145.666667
2767.042385	114.333333
2768.395571	141.000000
2769.751662	95.666667
2771.104390	133.666667
2772.456890	153.666667
2773.809161	90.666667
2775.162770	118.000000
2776.513019	72.000000
2777.861473	114.333333
2779.212833	175.666667
2780.560833	145.333333
2781.910171	133.666667
2783.257717	105.333333
2784.605037	122.000000
2785.952130	143.666667
2787.297432	167.666667
2788.642507	117.666667
2789.987357	128.333333
2791.331981	123.333333
2792.673253	128.333333
2794.015863	136.333333
2795.358247	156.666667
2796.700406	98.000000
2798.039216	149.333333
2799.380926	120.000000
2800.719288	157.333333
2802.058986	113.333333
2803.396900	137.000000
2804.733029	129.666667
2806.068934	118.333333
2807.406177	131.000000
2808.741636	105.000000
2810.076872	120.000000
2811.410325	142.666667
2812.745115	127.000000
2814.076565	157.333333
2815.410910	132.000000
2816.740357	149.000000
2818.071141	110.333333
2819.401703	149.333333
2820.730486	140.333333
2822.060605	126.000000
2823.388946	156.666667
2824.717066	143.333333
2826.043408	129.666667
2827.371087	126.333333
2828.695432	152.000000
2830.021114	110.000000
2831.345020	146.666667
2832.668707	125.000000
2833.993729	127.000000
2835.315421	105.000000
2836.636895	115.333333
2837.958150	143.333333
2839.279186	115.000000
2840.598449	113.000000
2841.919048	142.666667
2843.237876	114.000000
2844.556485	133.333333
2845.873323	161.333333
2847.189944	117.000000
2848.506348	162.000000
2849.820982	109.333333
2851.136952	99.666667
2852.449601	120.000000
2853.763585	115.666667
2855.077353	109.000000
2856.390904	150.333333
2857.702689	154.000000
2859.012707	125.000000
2860.324060	152.333333
2861.632098	91.000000
2862.941470	113.000000
2864.250628	142.333333
2865.559570	118.333333
2866.866748	120.333333
2868.172164	129.333333
2869.478913	154.333333
2870.783901	122.000000
2872.088675	129.666667
2873.391687	125.666667
2874.697580	95.333333
2875.998619	136.333333
2877.300992	118.000000
2878.601605	145.333333
2879.903552	137.333333
2881.205285	132.666667
2882.503715	147.000000
2883.803478	156.666667
2885.101484	131.000000
2886.399278	131.666667
2887.695316	137.333333
2888.992687	141.333333
2890.288302	126.333333
2891.583706	146.000000
2892.878899	106.666667
2894.170795	110.000000
2895.465567	126.000000
2896.757042	117.666667
2898.049850	148.666667
2899.342448	133.000000
2900.631752	118.333333
2901.922388	112.000000
2903.211273	111.333333
2904.501490	115.333333
2905.788416	146.333333
2907.076674	109.333333
2908.363183	103.666667
2909.649483	99.333333
2910.935576	129.666667
2912.219920	128.000000
2913.507135	127.666667
2914.789524	116.666667
2916.073245	106.666667
2917.355220	129.000000
2918.636987	137.333333
2919.917010	118.666667
2921.199902	135.333333
2922.481049	108.333333
2923.758914	131.333333
2925.039648	115.666667
2926.317101	92.666667
2927.594348	99.000000
2928.869853	147.333333
2930.148226	78.000000
2931.421785	117.000000
2932.698211	102.333333
2933.972896	103.000000
2935.245840	129.333333
2936.520116	115.000000
2937.792652	119.666667
2939.064983	113.666667
2940.334042	106.333333
2941.605966	103.000000
2942.876152	124.333333
2944.146134	113.333333
2945.415913	126.000000
2946.683956	123.333333
2947.950262	99.333333
2949.216367	172.333333
2950.483801	111.666667
2951.749501	137.333333
2953.014998	113.000000
2954.280293	141.000000
2955.542323	114.333333
2956.805683	143.000000
2958.068842	87.333333
2959.330269	120.000000
2960.593025	91.000000
2961.854049	107.666667
2963.113343	130.333333
2964.372437	162.000000
2965.631330	98.000000
2966.890023	119.000000
2968.148516	79.333333
2969.405280	121.333333
2970.661844	136.000000
2971.916681	119.666667
2973.172846	145.000000
2974.425757	123.666667
2975.679997	122.000000
2976.934037	135.666667
2978.186353	127.666667
2979.438469	114.666667
2980.688861	99.333333
2981.942108	118.000000
2983.190578	101.000000
2984.441903	118.000000
2985.689978	101.666667
2986.937857	135.000000
2988.185538	97.333333
2989.433022	123.000000
2990.678785	84.333333
2991.924352	134.333333
2993.171246	105.000000
2994.414896	91.333333
2995.659874	76.666667
2996.901608	96.666667
2998.146194	92.333333
2999.389061	130.333333
3000.628687	76.333333
3001.871163	93.666667
3003.110399	106.333333
3004.350963	125.333333
3005.589810	105.333333
3006.828463	96.666667
3008.065400	119.000000
3009.303665	136.333333
3010.540214	124.333333
3011.776570	114.666667
3013.012732	112.333333
3014.247180	93.333333
3015.481436	130.666667
3016.715498	110.666667
3017.947848	84.666667
3019.178486	105.666667
3020.411970	118.666667
3021.643742	149.000000
3022.873804	107.666667
3024.103673	123.000000
3025.331833	111.000000
3026.561320	125.666667
3027.789097	103.000000
3029.016683	134.666667
3030.245596	100.000000
3031.469766	109.666667
3032.696779	91.666667
3033.920568	115.000000
3035.145684	115.000000
3036.369093	105.666667
3037.592312	91.666667
3038.813826	84.333333
3040.038181	101.333333
3041.257801	119.000000
3042.478747	94.666667
3043.699504	148.333333
3044.918557	111.333333
3046.138935	137.000000
3047.356097	133.333333
3048.574585	143.666667
3049.791370	78.000000
3051.007968	112.333333
3052.224377	88.666667
3053.437574	124.000000
3054.653608	120.000000
3055.866430	90.333333
3057.082089	110.333333
3058.293025	78.666667
3059.505286	77.000000
3060.717361	73.666667
3061.929248	126.000000
3063.139439	112.000000
3064.349443	124.666667
3065.559261	127.333333
3066.767383	137.666667
3067.975320	118.666667
3069.181561	103.666667
3070.389127	122.333333
3071.594998	118.666667
3072.800685	115.000000
3074.006186	127.666667
3075.209994	94.333333
3076.415126	94.333333
3077.618565	121.666667
3078.820313	90.333333
3080.021876	128.000000
3081.223256	79.666667
3082.424452	112.333333
3083.623958	137.666667
3084.823281	121.333333
3086.023927	76.000000
3087.222883	110.000000
3088.418645	137.333333
3089.617236	148.333333
3090.812633	67.666667
3092.009353	95.333333
3093.202881	83.666667
3094.399237	129.333333
3095.593907	107.000000
3096.785385	96.666667
3097.981196	89.666667
3099.172312	108.666667
3100.364752	96.000000
3101.554004	150.666667
3102.746081	102.000000
3103.936475	126.666667
3105.123683	118.666667
3106.312213	82.333333
3107.502066	122.666667
3108.688735	127.333333
3109.875223	93.666667
3111.061533	100.333333
3112.249164	128.333333
3113.433613	80.333333
3114.616383	96.000000
3115.801975	109.000000
3116.985888	85.666667
3118.168122	94.666667
3119.350177	105.333333
3120.532054	115.000000
3121.713753	102.333333
3122.893775	91.666667
3124.072120	119.666667
3125.253285	107.000000
3126.431275	100.000000
3127.609089	72.333333
3128.786725	93.333333
3129.962686	80.000000
3131.138470	105.333333
3132.315576	115.666667
3133.491007	104.666667
3134.664765	96.000000
3135.836850	104.000000
3137.010257	131.666667
3138.183487	96.333333
3139.355046	144.000000
3140.527925	56.333333
3141.697637	113.333333
3142.868670	99.333333
3144.038033	103.333333
3145.205725	99.666667
3146.376233	94.000000
3147.542083	117.000000
3148.712241	90.333333
3149.877743	100.000000
3151.043070	109.333333
3152.208224	82.333333
3153.373205	112.000000
3154.539505	101.000000
3155.701153	92.666667
3156.864120	93.000000
3158.026915	91.000000
3159.189537	74.666667
3160.350494	87.333333
3161.511278	91.000000
3162.671890	87.666667
3163.830838	108.333333
3164.989615	118.666667
3166.148220	65.333333
3167.306652	108.333333
3168.464914	67.333333
3169.621513	97.666667
3170.776451	87.666667
3171.932708	101.333333
3173.087304	90.333333
3174.241730	88.000000
3175.394496	82.666667
3176.547091	72.333333
3177.699517	88.000000
3178.851773	83.333333
3180.003858	83.666667
3181.152798	92.333333
3182.304544	113.000000
3183.454632	86.000000
3184.603064	66.666667
3185.751326	75.000000
3186.899420	117.333333
3188.047345	107.666667
3189.193614	63.666667
3190.339715	75.000000
3191.484162	101.666667
3192.628441	92.666667
3193.772552	93.333333
3194.917980	84.333333
3196.060270	74.666667
3197.202393	106.000000
3198.344348	76.666667
3199.486136	119.666667
3200.627757	82.666667
3201.766243	86.000000
3202.906046	89.333333
3204.047167	111.333333
3205.185153	107.333333
3206.321490	97.000000
3207.457661	94.333333
3208.595149	97.000000
3209.730989	92.333333
3210.868146	101.333333
3212.000690	104.000000
3213.137516	130.333333
3214.269730	94.000000
3215.403261	122.333333
3216.536628	91.333333
3217.666867	90.333333
3218.799904	80.333333
3219.929815	115.333333
3221.061042	78.000000
3222.189145	116.000000
3223.320044	81.000000
3224.449299	70.333333
3225.576911	90.666667
3226.701400	87.333333
3227.830165	67.666667
3228.955808	104.000000
3230.081289	86.666667
3231.205128	78.333333
3232.331761	92.333333
3233.453797	69.000000
3234.577149	81.333333
3235.700339	90.333333
3236.823366	59.666667
3237.944755	86.000000
3239.065981	74.000000
3240.185570	100.333333
3241.304997	116.333333
3242.422786	111.000000
3243.543367	52.666667
3244.660835	131.333333
3245.778142	103.666667
3246.895289	130.333333
3248.010800	90.333333
3249.127625	83.000000
3250.241341	72.666667
3251.357846	62.333333
3252.472717	76.666667
3253.584479	104.666667
3254.696081	79.333333
3255.808999	79.333333
3256.921757	78.333333
3258.031409	101.000000
3259.142376	78.333333
3260.253184	97.333333
3261.362360	60.000000
3262.469906	112.000000
3263.578765	70.333333
3264.687467	113.333333
3265.793066	67.666667
3266.899979	55.000000
3268.005263	91.666667
3269.111861	99.666667
3270.215359	45.333333
3271.320172	95.666667
3272.424827	79.000000
3273.526383	82.666667
3274.627783	83.666667
3275.730497	94.666667
3276.833055	96.333333
3277.932516	83.333333
3279.034761	88.333333
3280.133910	104.000000
3281.231435	114.333333
3282.328804	57.666667
3283.428955	101.000000
3284.526014	91.666667
3285.622917	115.666667
3286.719665	50.333333
3287.811855	78.333333
3288.908293	80.000000
3290.003109	97.000000
3291.097771	88.666667
3292.190811	74.333333
3293.283696	66.666667
3294.374962	116.333333
3295.467539	104.000000
3296.558497	90.000000
3297.647835	74.666667
3298.737020	88.000000
3299.827518	126.333333
3300.914931	83.000000
3302.002191	105.000000
3303.090764	59.000000
3304.179185	87.000000
3305.263058	101.000000
3306.351173	77.333333
3307.436206	78.333333
3308.519624	114.000000
3309.604354	81.333333
3310.687468	82.000000
3311.771895	98.000000
3312.853243	107.000000
3313.935903	100.000000
3315.016949	50.333333
3316.097844	74.333333
3317.177125	113.666667
3318.256256	94.333333
3319.336699	79.666667
3320.414067	89.333333
3321.492747	90.333333
3322.569815	82.000000
3323.646734	63.666667
3324.722041	108.333333
3325.797199	111.000000
3326.873668	61.333333
3327.947067	59.333333
3329.020317	68.000000
3330.094877	109.666667
3331.167829	61.333333
3332.239172	89.000000
3333.311826	93.333333
3334.381414	93.666667
3335.452312	80.000000
3336.521603	99.666667
3337.592205	81.333333
3338.661200	95.666667
3339.728589	78.666667
3340.794373	118.333333
3341.864383	92.000000
3342.931330	50.666667
3343.995215	111.666667
3345.061868	72.666667
3346.126916	101.666667
3347.190361	87.000000
3348.253660	51.333333
3349.316812	111.666667
3350.379818	76.333333
3351.442678	80.333333
3352.503936	92.333333
3353.562137	69.000000
3354.624558	101.333333
3355.683924	77.000000
3356.743144	60.333333
3357.803673	84.333333
3358.859694	81.666667
3359.918478	82.333333
3360.972755	82.333333
3362.029796	93.666667
3363.085238	84.333333
3364.141990	99.000000
3365.197143	79.666667
3366.250699	79.333333
3367.302659	91.333333
3368.357380	128.666667
3369.409052	82.333333
3370.460581	99.333333
3371.513418	63.333333
3372.563208	98.666667
3373.614307	70.666667
3374.662360	67.666667
3375.713172	94.666667
3376.760940	99.333333
3377.808565	89.666667
3378.856047	67.333333
3379.901937	92.000000
3380.949135	99.000000
3381.993291	59.333333
3383.040205	100.000000
3384.085527	76.000000
3385.127808	109.333333
3386.169949	62.000000
3387.213397	74.000000
3388.256704	74.000000
3389.298422	77.666667
3390.339998	58.333333
3391.381433	55.666667
3392.421280	21.666667
3393.459538	86.000000
3394.499104	66.000000
3395.538530	63.000000
3396.576368	93.333333
3397.612619	93.666667
3398.648731	76.666667
3399.686150	58.666667
3400.720536	66.000000
3401.756229	96.666667
3402.791783	113.333333
3403.824306	103.333333
3404.859582	87.333333
3405.891827	91.333333
3406.923934	77.666667
3407.954457	68.000000
3408.986287	92.000000
3410.017979	111.333333
3411.046643	78.666667
3412.075170	79.666667
3413.105003	89.000000
3414.134699	54.333333
3415.161369	68.000000
3416.189346	83.666667
3417.214298	85.666667
3418.242000	70.666667
3419.266679	71.333333
3420.292664	86.333333
3421.317069	106.333333
3422.341338	91.333333
3423.364028	65.000000
3424.386582	84.000000
3425.410442	79.333333
3426.431282	111.333333
3427.451986	84.000000
3428.473997	90.666667
3429.492989	97.000000
3430.511845	105.333333
3431.532008	96.666667
3432.549154	115.666667
