-116.707459	-3.666667
-114.037859	-1.333333
-111.371194	11.000000
-108.705281	-4.000000
-106.042300	-9.000000
-103.377890	12.666667
-100.716410	13.333333
-98.053501	10.666667
-95.395698	13.333333
-92.736466	17.666667
-90.077982	4.000000
-87.422422	19.666667
-84.765434	11.666667
-82.113544	-7.000000
-79.460224	11.666667
-76.809823	16.666667
-74.157993	2.000000
-71.511254	18.333333
-68.863086	-0.666667
-66.215660	15.333333
-63.571148	10.333333
-60.925208	5.333333
-58.284349	7.000000
-55.642061	8.666667
-53.002682	-5.333333
-50.361873	2.666667
-47.721805	-3.000000
-45.086809	4.000000
-42.450385	21.333333
-39.816863	21.333333
-37.181913	18.000000
-34.552028	32.000000
-31.918551	13.333333
-29.290136	-18.000000
-26.662455	30.000000
-24.033345	21.333333
-21.409292	22.666667
-18.781650	6.000000
-16.159061	31.666667
-13.537204	57.666667
-10.916077	70.666667
-8.295680	199.000000
-5.678172	660.666667
-3.059235	1789.666667
-0.443183	4313.666667
2.172140	4849.333333
4.786736	2893.333333
7.398449	379.333333
10.011591	39.666667
12.619699	43.000000
15.231389	28.000000
17.838048	7.333333
20.446135	26.666667
23.053498	21.666667
25.655836	21.333333
28.261752	58.333333
30.862646	10.000000
33.464968	37.666667
36.062273	12.666667
38.663153	13.666667
41.259018	37.000000
43.856312	31.333333
46.452886	1.333333
49.044451	25.000000
51.637444	25.666667
54.227576	-3.333333
56.819136	-35.333333
59.407836	7.000000
61.997963	-13.666667
64.583091	-11.333333
67.169647	19.000000
69.755489	32.666667
72.338477	16.000000
74.922891	26.666667
77.500177	15.000000
80.081029	-3.333333
82.659032	9.333333
85.236325	-2.000000
87.815044	19.666667
90.388781	27.333333
92.963946	13.666667
95.536267	30.000000
98.107880	-1.333333
100.676653	5.000000
103.246853	44.333333
105.814215	-19.000000
108.383002	9.000000
110.948953	18.333333
113.512069	-11.000000
116.078741	25.000000
118.636192	3.000000
121.199328	49.666667
123.757504	6.666667
126.319235	78.666667
128.876009	38.000000
131.434210	81.333333
133.987457	68.333333
136.540007	137.666667
139.096107	156.666667
141.647259	259.333333
144.197714	306.333333
146.747471	361.000000
149.294409	379.000000
151.840652	424.000000
154.388320	400.666667
156.935292	421.666667
159.477329	415.666667
162.018672	482.666667
164.559322	429.333333
167.101398	441.666667
169.640662	422.000000
172.177118	417.000000
174.712882	377.333333
177.250072	389.000000
179.786571	366.333333
182.320264	392.000000
184.851153	399.000000
187.381355	413.000000
189.912981	397.666667
192.441806	428.666667
194.967832	373.333333
197.493172	394.000000
200.019937	350.000000
202.543906	403.333333
205.067190	386.333333
207.589789	372.666667
210.109595	370.333333
212.628718	351.000000
215.147158	406.333333
217.667022	374.333333
220.179885	367.000000
222.696279	376.333333
225.211991	359.333333
227.722813	388.000000
230.235060	351.666667
232.744525	340.666667
235.253311	363.333333
237.761418	367.000000
240.270950	353.333333
242.775601	372.333333
245.279576	382.333333
247.784975	368.666667
250.285499	383.666667
252.789547	390.666667
255.286623	350.666667
257.787223	358.333333
260.285051	355.000000
262.782206	419.000000
265.278688	355.000000
267.770307	395.666667
270.265446	433.666667
272.757818	419.000000
275.249520	432.000000
277.738459	491.666667
280.228822	533.000000
282.716422	593.333333
285.201263	606.666667
287.689619	708.333333
290.171035	886.000000
292.655965	1301.000000
295.136050	2014.666667
297.619647	3581.333333
300.098401	5699.333333
302.578579	6695.666667
305.056004	5147.333333
307.532766	2551.333333
310.008865	1269.333333
312.482215	947.000000
314.954903	719.666667
317.426930	662.000000
319.898296	604.000000
322.366917	564.333333
324.834880	553.333333
327.304264	532.333333
329.768826	459.666667
332.236892	453.000000
334.700138	437.333333
337.162726	427.666667
339.624658	367.666667
342.085933	466.333333
344.544474	425.333333
347.004437	462.666667
349.461667	456.333333
351.918243	450.333333
354.374165	439.666667
356.827357	444.666667
359.281972	417.333333
361.731785	444.333333
364.185094	401.666667
366.633605	402.666667
369.081464	401.000000
371.530746	428.333333
373.975234	421.000000
376.421144	415.000000
378.866404	366.666667
381.308946	410.000000
383.750840	384.666667
386.192087	367.333333
388.630618	379.000000
391.070571	377.666667
393.507810	406.000000
395.942337	411.333333
398.380352	392.333333
400.813590	398.000000
403.248249	377.333333
405.678136	370.000000
408.111508	404.333333
410.540110	401.333333
412.968070	351.000000
415.397452	365.666667
417.822068	395.000000
420.248106	403.000000
422.673503	394.000000
425.098260	370.333333
427.518259	376.333333
429.939679	420.333333
432.358402	387.666667
434.778546	420.666667
437.195995	389.000000
439.614864	414.333333
442.031040	408.333333
444.442468	374.000000
446.857374	396.000000
449.269589	366.000000
451.681170	426.666667
454.092117	419.666667
456.500378	372.666667
458.908006	416.666667
461.315002	385.666667
463.721367	435.000000
466.125049	357.000000
468.528101	390.333333
470.930523	399.000000
473.332315	407.000000
475.731430	386.333333
478.131964	398.333333
480.531869	380.000000
482.927051	378.000000
485.325700	403.333333
487.719629	384.666667
490.112932	389.333333
492.505609	355.000000
494.897661	393.666667
497.291131	352.666667
499.679889	342.333333
502.065981	336.000000
504.453493	293.333333
506.840382	314.000000
509.224607	311.333333
511.610250	335.666667
513.993232	299.333333
516.373553	298.000000
518.755293	305.000000
521.134374	320.333333
523.514874	294.000000
525.892716	283.666667
528.267903	320.000000
530.642472	288.333333
533.018459	303.000000
535.391794	264.666667
537.766546	303.666667
540.136613	309.000000
542.506064	294.666667
544.876933	310.666667
547.243122	313.000000
549.610729	333.000000
551.975690	326.000000
554.340038	341.333333
556.703773	298.000000
559.068926	337.333333
561.429407	332.000000
563.791306	326.000000
566.150564	335.333333
568.507185	364.333333
570.867250	332.000000
573.220624	344.666667
575.577443	336.666667
577.931627	350.333333
580.285202	313.000000
582.638170	274.000000
584.988505	304.666667
587.340258	291.000000
589.685334	316.666667
592.035874	287.000000
594.379740	284.000000
596.729068	324.666667
599.073747	282.666667
601.415802	252.000000
603.759274	258.666667
606.100123	270.000000
608.440370	247.666667
610.777996	291.000000
613.119057	224.666667
615.455480	280.333333
617.793320	236.666667
620.128543	244.666667
622.461150	256.000000
624.795173	241.666667
627.126582	239.666667
629.457393	252.000000
631.787607	273.666667
634.117222	213.666667
636.442214	239.666667
638.772648	251.000000
641.098461	240.000000
643.421666	248.000000
645.746288	189.000000
648.068304	258.333333
650.389726	227.000000
652.708546	253.666667
655.028781	237.333333
657.348423	225.000000
659.665464	243.666667
661.981913	244.666667
664.295764	228.666667
666.611031	251.666667
668.923701	222.333333
671.237786	223.666667
673.547271	245.000000
675.858172	226.000000
678.166480	234.333333
680.474200	235.000000
682.783334	202.000000
685.087876	241.666667
687.391832	193.000000
689.695202	227.000000
691.999986	237.000000
694.300184	228.000000
696.601796	212.000000
698.902823	226.666667
701.199269	242.333333
703.497130	218.333333
705.794407	218.333333
708.091101	222.333333
710.383219	194.666667
712.678748	242.333333
714.969703	204.333333
717.262073	242.333333
719.551868	183.000000
721.841082	266.666667
724.129717	194.666667
726.415779	222.666667
728.703256	236.666667
730.988161	212.333333
733.272489	242.000000
735.554248	214.333333
737.837421	168.000000
740.120017	228.000000
742.398057	212.000000
744.677512	231.333333
746.956390	219.000000
749.234694	251.333333
751.508448	217.666667
753.783615	245.333333
756.058209	275.000000
758.330244	253.666667
760.603692	223.666667
762.874582	217.666667
765.142916	191.333333
767.412663	230.666667
769.679856	253.333333
771.946478	250.666667
774.212530	215.000000
776.476031	232.000000
778.740945	221.333333
781.005289	211.333333
783.265104	253.333333
785.526331	238.000000
787.786991	247.666667
790.045105	224.333333
792.300674	233.666667
794.559634	242.333333
796.812095	245.000000
799.069922	245.666667
801.323231	208.333333
803.574000	241.333333
805.826181	241.666667
808.075823	247.666667
810.326878	233.666667
812.573421	211.666667
814.821376	203.666667
817.066797	246.666667
819.313629	215.666667
821.559900	217.666667
823.801666	227.666667
826.046816	245.000000
828.285493	205.333333
830.527552	258.000000
832.765113	231.333333
835.004086	232.333333
837.240532	229.000000
839.478389	245.333333
841.713721	223.666667
843.946530	221.000000
846.180750	216.000000
848.412447	253.000000
850.643590	232.000000
852.874178	209.333333
855.104212	216.666667
857.333692	235.000000
859.558690	218.333333
861.787063	240.333333
864.010956	212.000000
866.236261	227.333333
868.457090	213.333333
870.681291	249.000000
872.901019	228.333333
875.122157	245.000000
877.342745	219.666667
879.560824	249.333333
881.780312	214.333333
883.995334	230.666667
886.209808	239.000000
888.423735	241.666667
890.637115	220.666667
892.849947	232.333333
895.062233	222.000000
897.272016	220.333333
899.481254	196.333333
901.689947	247.000000
903.896141	205.666667
906.103744	216.666667
908.308849	215.000000
910.513411	200.000000
912.715478	249.666667
914.918954	277.333333
917.119936	226.333333
919.320376	212.000000
921.522225	259.666667
923.717683	242.666667
925.916500	233.333333
928.110878	227.333333
930.308614	210.666667
932.501914	223.333333
934.696623	219.000000
936.888846	280.333333
939.080530	222.666667
941.271677	225.000000
943.460341	217.666667
945.648469	213.333333
947.834116	235.333333
950.023115	259.333333
952.207691	251.333333
954.391732	220.666667
956.579123	238.000000
958.758210	250.000000
960.940648	232.333333
963.122552	248.000000
965.301981	231.666667
967.478938	287.333333
969.657303	251.666667
971.837075	256.000000
974.010498	232.666667
976.187267	270.666667
978.359629	263.333333
980.533399	281.000000
982.702765	245.000000
984.875475	279.333333
987.045720	249.333333
989.215436	262.333333
991.384623	275.333333
993.549413	286.333333
995.717544	307.666667
997.881281	327.333333
1000.046424	256.666667
1002.209108	309.666667
1004.371267	265.333333
1006.530969	281.666667
1008.690146	293.000000
1010.850730	287.000000
1013.008859	268.333333
1015.166465	305.333333
1017.323547	267.000000
1019.480105	269.333333
1021.632284	294.666667
1023.785870	247.333333
1025.938934	278.666667
1028.089549	292.666667
1030.241571	256.333333
1032.389219	317.000000
1034.540199	270.333333
1036.686808	294.333333
1038.832898	352.666667
1040.978470	304.000000
1043.125447	289.333333
1045.266135	303.666667
1047.410153	288.333333
1049.551730	291.000000
1051.692791	286.666667
1053.835256	312.000000
1055.971442	270.000000
1058.110953	320.000000
1060.246110	312.000000
1062.384591	314.666667
1064.518718	269.333333
1066.652332	292.666667
1068.787351	303.333333
1070.918020	264.666667
1073.050094	320.000000
1075.179739	289.666667
1077.308872	294.333333
1079.437493	272.666667
1081.565603	271.000000
1083.691287	285.666667
1085.816461	278.333333
1087.943039	295.333333
1090.065279	317.666667
1092.188924	287.333333
1094.308234	302.333333
1096.432774	282.000000
1098.551068	266.333333
1100.670767	306.666667
1102.788047	275.000000
1104.904821	291.000000
1107.021088	316.000000
1109.134939	307.000000
1111.250195	290.666667
1113.361127	302.333333
1115.475372	262.666667
1117.585296	292.333333
1119.696624	266.000000
1121.807447	303.333333
1123.913954	241.000000
1126.023771	310.333333
1128.129273	301.333333
1130.236178	259.666667
1132.336868	249.000000
1134.442770	276.000000
1136.544363	259.333333
1138.647359	266.666667
1140.749854	309.000000
1142.846142	267.333333
1144.947637	259.000000
1147.044830	312.666667
1149.141525	253.666667
1151.237721	303.666667
1153.333420	278.666667
1155.428620	304.333333
1157.521424	262.333333
1159.615631	276.000000
1161.703646	265.000000
1163.796859	297.333333
1165.883884	249.666667
1167.974208	286.333333
1170.060244	229.333333
1172.149579	244.666667
1174.232732	256.000000
1176.317287	289.000000
1178.403244	266.666667
1180.484919	263.000000
1182.567996	286.333333
1184.648687	294.666667
1186.728886	245.666667
1188.808594	283.666667
1190.887811	256.333333
1192.964646	270.666667
1195.039100	278.333333
1197.116845	307.000000
1199.190321	230.000000
1201.265197	251.666667
1203.335806	253.333333
1205.407816	262.333333
1207.477451	283.333333
1209.548486	278.000000
1211.619033	227.000000
1213.685319	260.333333
1215.753006	240.000000
1217.818321	284.000000
1219.885036	244.333333
1221.947495	264.666667
1224.013239	288.666667
1226.074729	262.000000
1228.137620	235.333333
1230.198143	268.333333
1232.258182	276.000000
1234.317739	222.333333
1236.374930	265.000000
1238.431640	249.333333
1240.485986	246.666667
1242.543614	285.000000
1244.598879	289.333333
1246.649903	279.666667
1248.702327	236.333333
1250.754271	268.000000
1252.803857	293.666667
1254.852964	258.333333
1256.901593	230.000000
1258.949743	288.000000
1260.997414	227.333333
1263.040855	284.000000
1265.087572	276.666667
1267.131935	254.333333
1269.175822	283.333333
1271.217357	271.333333
1273.256543	260.000000
1275.299002	249.333333
1277.337238	209.333333
1279.376873	280.666667
1281.416033	242.666667
1283.450974	295.666667
1285.487314	249.000000
1287.521310	278.333333
1289.556703	247.333333
1291.587884	262.000000
1293.620462	253.333333
1295.652569	259.000000
1297.682335	256.666667
1299.713498	217.666667
1301.740455	299.333333
1303.768809	236.666667
1305.792958	275.666667
1307.820373	226.333333
1309.843585	261.333333
1311.868195	260.666667
1313.890471	301.333333
1315.914144	273.666667
1317.935484	277.666667
1319.956356	265.000000
1321.976761	240.666667
1323.992973	272.333333
1326.010582	276.666667
1328.025863	265.333333
1330.044403	256.333333
1332.058754	285.333333
1334.070779	225.666667
1336.086061	266.000000
1338.097158	239.666667
1340.109652	246.666667
1342.117963	288.666667
1344.129529	238.000000
1346.135057	257.666667
1348.143840	259.000000
1350.148445	240.000000
1352.156304	256.666667
1354.163701	255.333333
1356.165067	275.333333
1358.167829	278.333333
1360.170132	256.000000
1362.171975	265.000000
1364.173358	258.666667
1366.172428	245.000000
1368.171039	253.000000
1370.169192	264.333333
1372.166886	240.333333
1374.160418	248.666667
1376.155345	280.333333
1378.149816	252.333333
1380.143830	259.333333
1382.135537	323.000000
1384.126789	296.000000
1386.115735	262.666667
1388.106076	309.333333
1390.095962	291.000000
1392.083544	286.666667
1394.070673	263.333333
1396.055500	307.333333
1398.041722	240.333333
1400.025644	264.333333
1402.009113	235.666667
1403.992129	309.666667
1405.972848	261.000000
1407.954961	259.333333
1409.934778	256.333333
1411.914143	275.000000
1413.889370	241.000000
1415.867835	283.666667
1417.844007	215.000000
1419.819730	261.666667
1421.795003	262.666667
1423.767985	285.000000
1425.740519	252.666667
1427.712605	252.666667
1429.684244	244.000000
1431.651754	303.333333
1433.624338	246.333333
1435.589116	273.000000
1437.558967	259.333333
1439.524694	261.333333
1441.491813	232.333333
1443.456649	274.000000
1445.417365	263.666667
1447.383149	271.000000
1449.342978	257.333333
1451.304201	246.666667
1453.266816	231.333333
1455.225316	287.666667
1457.183373	285.666667
1459.140989	249.666667
1461.098162	255.333333
1463.053060	258.333333
1465.009351	229.666667
1466.963367	263.666667
1468.916942	251.666667
1470.868245	272.333333
1472.820941	275.000000
1474.771364	247.000000
1476.721349	255.000000
1478.670895	256.000000
1480.618172	245.333333
1482.563181	268.000000
1484.509583	268.666667
1486.455547	250.333333
1488.401074	242.333333
1490.344335	251.666667
1492.287161	273.333333
1494.227723	268.000000
1496.169676	295.000000
1498.109367	278.000000
1500.048624	279.666667
1501.987445	276.666667
1503.924007	269.000000
1505.861960	297.000000
1507.797654	264.666667
1509.732915	288.666667
1511.665920	289.333333
1513.598492	299.666667
1515.530632	280.000000
1517.462340	257.000000
1519.391794	240.000000
1521.322639	270.000000
1523.253052	263.666667
1525.179393	286.666667
1527.107125	276.666667
1529.032606	294.666667
1530.957658	239.666667
1532.882281	272.666667
1534.806475	250.333333
1536.728421	254.000000
1538.651758	272.666667
1540.572848	249.000000
1542.491694	261.000000
1544.411930	238.666667
1546.329923	264.333333
1548.247489	285.666667
1550.162813	269.333333
1552.079527	288.666667
1553.992186	287.666667
1555.908049	280.000000
1557.821672	272.666667
1559.733057	277.333333
1561.645832	271.000000
1563.554557	251.000000
1565.464671	240.666667
1567.374362	265.666667
1569.283630	213.333333
1571.190664	269.333333
1573.095465	253.666667
1575.001655	291.000000
1576.905613	287.000000
1578.809150	281.333333
1580.712267	259.333333
1582.613154	295.000000
1584.515430	273.000000
1586.415478	289.666667
1588.316913	221.333333
1590.214315	297.666667
1592.111298	238.666667
1594.007863	282.666667
1595.905816	286.666667
1597.797934	312.333333
1599.693245	238.000000
1601.588139	278.000000
1603.480811	285.666667
1605.373066	281.333333
1607.263102	273.333333
1609.152722	292.333333
1611.041927	264.333333
1612.930717	257.666667
1614.817289	260.666667
1616.705249	262.666667
1618.589192	284.333333
1620.474522	276.000000
1622.359439	271.666667
1624.242142	298.333333
1626.126232	274.333333
1628.006310	290.000000
1629.887776	269.666667
1631.767031	283.666667
1633.647672	231.666667
1635.522509	269.000000
1637.402327	263.000000
1639.278141	288.000000
1641.153544	267.333333
1643.030333	316.333333
1644.901326	252.000000
1646.775500	275.666667
1648.645675	286.666667
1650.519032	257.666667
1652.390184	242.333333
1654.259136	259.333333
1656.129472	262.333333
1657.995816	268.666667
1659.863545	262.666667
1661.729075	267.000000
1663.595991	227.666667
1665.458918	266.333333
1667.323230	272.333333
1669.185346	264.000000
1671.047057	252.000000
1672.910154	251.000000
1674.771055	237.666667
1676.629764	271.000000
1678.488069	248.666667
1680.347759	280.000000
1682.201681	210.333333
1684.058777	245.666667
1685.915470	256.666667
1687.768186	229.333333
1689.624074	278.333333
1691.475988	264.666667
1693.327501	224.666667
1695.178613	245.666667
1697.029325	244.000000
1698.879635	244.666667
1700.727762	244.000000
1702.577273	212.333333
1704.421035	237.666667
1706.269746	256.000000
1708.112711	274.666667
1709.958843	256.666667
1711.801012	279.666667
1713.646347	281.666667
1715.485941	275.666667
1717.326919	281.333333
1719.169280	245.000000
1721.007685	245.333333
1722.847473	249.333333
1724.685086	292.000000
1726.522303	269.333333
1728.357347	276.666667
1730.193774	272.000000
1732.028029	249.000000
1733.861889	245.333333
1735.695355	245.666667
1737.524876	238.000000
1739.357555	262.333333
1741.186290	248.333333
1743.018182	275.333333
1744.846132	237.666667
1746.673691	287.000000
1748.500857	269.000000
1750.327632	289.333333
1752.154015	232.333333
1753.976462	257.333333
1755.802064	236.333333
1757.623731	241.333333
1759.446780	256.666667
1761.267667	255.333333
1763.088166	273.333333
1764.910045	238.666667
1766.726226	265.333333
1768.545558	264.333333
1770.360963	266.666667
1772.179518	257.333333
1773.994148	271.333333
1775.808391	290.000000
1777.622248	255.000000
1779.435718	280.000000
1781.247035	232.666667
1783.059732	259.666667
1784.872044	250.666667
1786.680438	279.666667
1788.490212	224.333333
1790.296072	265.333333
1792.105077	294.666667
1793.910169	267.333333
1795.716642	247.666667
1797.522731	279.333333
1799.324909	238.000000
1801.130232	298.666667
1802.931646	262.666667
1804.734440	249.000000
1806.533328	266.000000
1808.333597	269.333333
1810.133484	257.333333
1811.931229	283.000000
1813.728594	255.000000
1815.525579	273.000000
1817.322183	247.000000
1819.116648	252.333333
1820.912492	268.000000
1822.702681	237.666667
1824.497767	246.666667
1826.287201	261.333333
1828.079771	228.666667
1829.870206	263.666667
1831.658507	282.333333
1833.449943	300.000000
1835.235733	238.333333
1837.022903	243.666667
1838.807941	255.333333
1840.596113	282.000000
1842.380399	273.333333
1844.162555	268.666667
1845.946091	241.333333
1847.727498	272.333333
1849.510284	254.333333
1851.289189	285.333333
1853.069474	222.333333
1854.847632	298.000000
1856.627169	268.000000
1858.404581	279.666667
1860.179869	267.000000
1861.956535	273.666667
1863.731079	272.333333
1865.507001	259.666667
1867.277302	227.666667
1869.050731	249.333333
1870.822040	208.333333
1872.592978	284.333333
1874.365294	266.666667
1876.131996	303.000000
1877.901824	233.333333
1879.667788	271.333333
1881.436875	210.333333
1883.202101	267.000000
1884.966959	241.333333
1886.733194	252.000000
1888.495570	231.666667
1890.257579	235.666667
1892.019220	203.333333
1893.780495	225.333333
1895.541402	222.666667
1897.301943	305.666667
1899.060374	257.666667
1900.818439	266.666667
1902.574397	230.000000
1904.331731	247.666667
1906.088700	235.333333
1907.843562	222.000000
1909.596320	200.666667
1911.348713	242.333333
1913.102483	200.000000
1914.854149	251.000000
1916.603713	245.666667
1918.354652	255.666667
1920.105229	257.333333
1921.851966	257.333333
1923.600080	249.333333
1925.346094	275.333333
1927.093483	249.333333
1928.838775	235.333333
1930.581969	234.666667
1932.326538	285.333333
1934.069012	266.333333
1935.811125	255.333333
1937.552878	249.000000
1939.294271	243.666667
1941.033571	260.333333
1942.772512	279.666667
1944.511094	231.333333
1946.247585	257.666667
1947.983718	267.833333
1949.721225	278.000000
1951.454910	241.333333
1953.189970	249.333333
1954.922941	256.666667
1956.655556	244.666667
1958.387815	244.333333
1960.119717	239.333333
1961.849533	252.333333
1963.577264	249.000000
1965.306370	256.000000
1967.035121	253.000000
1968.761788	253.333333
1970.488101	258.333333
1972.215787	222.333333
1973.937937	240.333333
1975.663188	273.666667
1977.384632	279.666667
1979.109177	211.000000
1980.831641	224.333333
1982.550303	231.000000
1984.272063	229.000000
1985.990021	262.666667
1987.709352	293.000000
1989.424884	222.333333
1991.145236	250.666667
1992.861790	233.333333
1994.574547	299.000000
1996.290400	251.666667
1998.004181	283.000000
1999.717612	241.666667
2001.428972	232.333333
2003.141704	230.666667
2004.850646	247.666667
2006.562680	251.666667
2008.269206	280.666667
2009.978823	207.333333
2011.686374	246.000000
2013.393576	238.666667
2015.098713	278.333333
2016.803504	232.666667
2018.509666	237.666667
2020.212046	250.000000
2021.915797	284.333333
2023.617486	262.333333
2025.318830	256.333333
2027.019828	258.666667
2028.718765	223.666667
2030.419074	203.666667
2032.115608	251.666667
2033.813513	259.666667
2035.509359	266.666667
2037.208291	283.333333
2038.901737	274.333333
2040.596554	237.666667
2042.291029	253.000000
2043.981735	229.333333
2045.675525	240.333333
2047.365548	258.333333
2049.056942	231.333333
2050.746283	231.333333
2052.436994	247.333333
2054.123942	252.000000
2055.810551	249.333333
2057.498529	269.000000
2059.182748	290.000000
2060.868338	220.000000
2062.553588	245.333333
2064.236789	255.000000
2065.921361	229.666667
2067.600470	238.000000
2069.284364	267.333333
2070.962797	244.666667
2072.644308	266.000000
2074.322067	261.666667
2075.999490	255.666667
2077.678282	241.666667
2079.355032	237.333333
2081.029740	205.666667
2082.705817	279.000000
2084.379853	234.000000
2086.053555	232.333333
2087.726921	253.666667
2089.398248	220.000000
2091.069241	243.333333
2092.739900	221.666667
2094.410225	245.666667
2096.080216	226.333333
2097.748171	279.333333
2099.415793	252.000000
2101.081380	235.000000
2102.748336	268.000000
2104.413259	264.666667
2106.077850	253.333333
2107.740409	220.333333
2109.404336	216.333333
2111.066232	251.666667
2112.727798	257.333333
2114.389032	240.333333
2116.048238	242.666667
2117.707113	243.333333
2119.365659	246.333333
2121.023874	225.333333
2122.678367	230.333333
2124.335924	254.666667
2125.993152	257.000000
2127.646658	265.000000
2129.301532	257.666667
2130.952687	270.333333
2132.606905	235.333333
2134.257406	264.333333
2135.909273	254.000000
2137.555732	229.333333
2139.206946	261.000000
2140.854446	238.666667
2142.503313	246.666667
2144.150161	216.333333
2145.796684	206.666667
2147.442881	243.666667
2149.085370	258.666667
2150.730917	254.666667
2152.372757	248.666667
2154.017654	253.333333
2155.658845	230.333333
2157.299714	264.666667
2158.940258	249.333333
2160.578790	253.666667
2162.218688	240.666667
2163.854886	246.666667
2165.492450	250.000000
2167.129692	243.333333
2168.764924	240.666667
2170.399835	209.333333
2172.034423	240.666667
2173.668691	248.666667
2175.299265	241.000000
2176.932891	286.666667
2178.562825	273.666667
2180.194124	235.333333
2181.823418	260.333333
2183.452393	238.333333
2185.081048	217.333333
2186.709384	224.000000
2188.335718	262.000000
2189.961733	257.333333
2191.585746	224.666667
2193.211125	258.666667
2194.834503	253.000000
2196.459246	257.333333
2198.080308	237.666667
2199.701053	189.333333
2201.323163	245.333333
2202.943275	212.666667
2204.561390	227.666667
2206.179190	236.666667
2207.796675	250.333333
2209.413844	245.333333
2211.030698	220.000000
2212.647236	236.000000
2214.261782	242.000000
2215.874335	196.333333
2217.488252	252.666667
2219.100178	242.000000
2220.713467	245.000000
2222.324766	211.000000
2223.934075	249.333333
2225.544748	219.333333
2227.153432	225.666667
2228.761803	207.333333
2230.368188	276.666667
2231.975936	206.666667
2233.581697	245.333333
2235.187147	219.000000
2236.790612	273.000000
2238.395440	222.333333
2239.998284	259.333333
2241.599145	232.000000
2243.201369	256.000000
2244.801611	219.000000
2246.403215	255.000000
2248.001166	245.666667
2249.600480	223.666667
2251.197814	221.000000
2252.794840	257.666667
2254.393228	238.000000
2255.987967	261.000000
2257.580729	226.333333
2259.174854	240.333333
2260.770340	235.000000
2262.362181	243.000000
2263.953716	236.000000
2265.546613	240.333333
2267.134200	205.000000
2268.726483	260.333333
2270.313460	235.000000
2271.903464	243.333333
2273.488164	241.666667
2275.077558	235.333333
2276.661650	230.333333
2278.247102	247.333333
2279.830586	211.666667
2281.417095	248.666667
2282.999971	213.666667
2284.582544	210.333333
2286.164813	250.000000
2287.743452	222.333333
2289.325116	236.333333
2290.903151	236.333333
2292.484209	220.000000
2294.061640	221.666667
2295.637108	223.333333
2297.215598	217.666667
2298.790464	219.000000
2300.365029	227.666667
2301.939294	204.000000
2303.513258	195.333333
2305.086921	211.333333
2306.660285	240.000000
2308.230030	223.333333
2309.799476	270.000000
2311.371940	246.333333
2312.939130	227.333333
2314.509338	239.000000
2316.075931	224.666667
2317.643884	201.666667
2319.209881	223.666667
2320.775581	214.000000
2322.340983	207.000000
2323.904432	234.000000
2325.469240	253.333333
2327.030440	260.333333
2328.594654	264.666667
2330.153606	220.333333
2331.715573	265.333333
2333.275588	251.666667
2334.835309	246.666667
2336.393080	217.666667
2337.950556	254.666667
2339.507738	210.333333
2341.062972	239.000000
2342.617913	248.666667
2344.172559	223.000000
2345.726912	227.666667
2347.280972	227.666667
2348.834737	221.666667
2350.386558	196.666667
2351.936437	244.333333
2353.489323	249.000000
2355.036966	181.333333
2356.587618	263.000000
2358.134678	195.000000
2359.683096	263.666667
2361.231223	222.000000
2362.775761	240.333333
2364.321657	238.333333
2365.865615	232.666667
2367.410930	230.333333
2368.952660	213.333333
2370.495747	239.666667
2372.036898	260.000000
2373.577760	207.000000
2375.118333	259.000000
2376.658617	222.666667
2378.198612	253.666667
2379.735029	206.666667
2381.274447	241.333333
2382.810287	214.000000
2384.347485	250.666667
2385.881107	225.333333
2387.417729	254.333333
2388.952421	251.333333
2390.485183	233.666667
2392.017658	212.000000
2393.548205	230.666667
2395.081750	197.000000
2396.610084	257.666667
2398.139774	222.666667
2399.669179	245.666667
2401.198299	232.666667
2402.727134	201.333333
2404.250763	229.000000
2405.779028	245.333333
2407.302091	215.000000
2408.829787	192.333333
2410.350644	186.666667
2411.876134	229.666667
2413.398063	223.000000
2414.921348	222.333333
2416.442711	249.666667
2417.962155	238.333333
2419.482954	222.000000
2421.001835	228.000000
2422.520433	230.666667
2424.037114	236.000000
2425.555149	223.666667
2427.072903	261.666667
2428.587106	231.333333
2430.101028	212.000000
2431.614670	224.666667
2433.129667	225.666667
2434.641115	211.000000
2436.153918	230.333333
2437.664807	216.666667
2439.175418	206.333333
2440.684117	207.000000
2442.195802	220.333333
2443.703944	236.666667
2445.211808	256.333333
2446.719394	198.666667
2448.223439	222.000000
2449.730469	218.000000
2451.235591	239.666667
2452.740436	213.666667
2454.243374	243.333333
2455.746036	212.333333
2457.248421	225.000000
2458.748901	191.000000
2460.250734	254.000000
2461.750662	198.666667
2463.250315	200.666667
2464.749693	182.333333
2466.247168	226.666667
2467.742741	234.333333
2469.241294	211.333333
2470.736319	218.333333
2472.232696	187.000000
2473.725547	203.333333
2475.219751	191.333333
2476.713681	213.666667
2478.204087	223.666667
2479.697471	217.666667
2481.188957	216.333333
2482.678546	202.333333
2484.167863	203.333333
2485.655284	215.000000
2487.145681	232.333333
2488.632560	225.333333
2490.120790	203.666667
2491.605503	203.000000
2493.089947	199.333333
2494.575741	197.666667
2496.059644	252.000000
2497.544897	193.000000
2499.025017	225.000000
2500.508110	201.666667
2501.989312	231.333333
2503.470245	174.333333
2504.949289	219.666667
2506.428064	162.000000
2507.906571	216.000000
2509.384810	200.666667
2510.862780	215.333333
2512.337245	210.333333
2513.814680	217.666667
2515.288611	224.000000
2516.763892	222.000000
2518.238906	193.333333
2519.710419	211.000000
2521.183283	215.333333
2522.654264	195.000000
2524.126595	202.000000
2525.593812	247.666667
2527.063996	212.000000
2528.532299	220.000000
2530.000337	193.000000
2531.468110	229.000000
2532.935618	207.000000
2534.402861	218.000000
2535.866612	219.333333
2537.331713	248.333333
2538.794937	209.333333
2540.259510	243.333333
2541.720595	237.666667
2543.183029	259.666667
2544.645200	201.666667
2546.103885	237.333333
2547.567141	188.666667
2549.025302	236.666667
2550.484811	212.333333
2551.939226	210.666667
2553.398212	189.333333
2554.855326	230.666667
2556.310569	235.000000
2557.765550	242.000000
2559.218663	228.333333
2560.673124	223.000000
2562.125715	207.333333
2563.578047	247.333333
2565.028512	202.333333
2566.481932	199.333333
2567.930270	198.333333
2569.381563	217.666667
2570.830991	191.333333
2572.276946	211.666667
2573.725856	252.666667
2575.171296	218.666667
2576.618083	215.666667
2578.063008	276.000000
2579.507674	208.333333
2580.953688	249.333333
2582.396236	213.000000
2583.840131	223.666667
2585.280561	188.000000
2586.722338	220.666667
2588.162256	208.333333
2589.603521	208.333333
2591.041324	193.000000
2592.482077	178.333333
2593.917768	203.333333
2595.356408	178.666667
2596.793190	258.666667
2598.228117	217.000000
2599.665991	203.000000
2601.098808	212.333333
2602.532972	201.333333
2603.965282	188.333333
2605.398938	211.000000
2606.830741	237.000000
2608.262290	189.333333
2609.693587	204.333333
2611.123031	222.333333
2612.552223	213.333333
2613.979565	214.333333
2615.408252	236.333333
2616.836688	186.666667
2618.261676	210.666667
2619.688011	230.666667
2621.112497	228.666667
2622.538329	221.666667
2623.960717	227.000000
2625.384451	194.333333
2626.806338	240.666667
2628.227976	240.333333
2629.647768	218.666667
2631.068906	232.333333
2632.489794	256.000000
2633.907244	217.666667
2635.327633	219.666667
2636.744585	206.666667
2638.161288	222.000000
2639.577743	247.000000
2640.993950	232.333333
2642.409909	222.000000
2643.824027	242.333333
2645.237897	223.333333
2646.649929	239.000000
2648.063304	248.000000
2649.473250	195.333333
2650.886132	230.333333
2652.295585	199.666667
2653.704792	221.000000
2655.112163	233.333333
2656.522468	216.333333
2657.930938	210.666667
2659.337572	232.000000
2660.743961	223.333333
2662.148516	244.333333
2663.554415	262.666667
2664.958481	227.666667
2666.362302	212.333333
2667.765879	239.333333
2669.167625	200.666667
2670.570714	214.000000
2671.970385	258.666667
2673.371400	224.000000
2674.768999	233.000000
2676.169527	235.666667
2677.566641	194.666667
2678.965098	245.666667
2680.361728	253.000000
2681.758115	206.666667
2683.154260	248.666667
2684.548579	223.666667
2685.944241	232.666667
2687.336494	241.333333
2688.730089	231.333333
2690.121860	240.000000
2691.514974	228.000000
2692.906264	231.666667
2694.295731	243.666667
2695.684958	210.333333
2697.073946	241.000000
2698.464275	212.000000
2699.849621	286.666667
2701.237890	210.333333
2702.624339	262.333333
2704.010549	241.333333
2705.396520	241.333333
2706.779093	236.333333
2708.163008	237.000000
2709.546685	214.666667
2710.930123	240.333333
2712.310167	212.666667
2713.691551	242.666667
2715.071121	240.000000
2716.452031	288.333333
2717.831127	234.666667
2719.208409	234.000000
2720.587032	236.000000
2721.963842	239.666667
2723.340415	252.333333
2724.716753	241.333333
2726.091280	188.333333
2727.467147	239.000000
2728.839627	229.000000
2730.215023	200.666667
2731.585459	200.666667
2732.957236	217.333333
2734.328778	214.666667
2735.698512	243.333333
2737.069587	210.666667
2738.438853	234.666667
2739.807886	246.666667
2741.175113	217.000000
2742.542106	205.666667
2743.908867	203.000000
2745.275396	217.666667
2746.640119	262.666667
2748.004610	186.000000
2749.368870	249.000000
2750.732897	246.333333
2752.096693	216.666667
2753.457115	232.333333
2754.820447	228.333333
2756.178837	262.000000
2757.540137	229.666667
2758.898067	244.333333
2760.258905	252.000000
2761.617944	205.666667
2762.973614	224.000000
2764.332192	216.666667
2765.687403	221.000000
2767.042385	266.000000
2768.395571	258.333333
2769.751662	214.000000
2771.104390	255.333333
2772.456890	222.333333
2773.809161	244.666667
2775.162770	239.333333
2776.513019	214.666667
2777.861473	236.333333
2779.212833	290.333333
2780.560833	257.666667
2781.910171	269.000000
2783.257717	242.666667
2784.605037	257.000000
2785.952130	240.666667
2787.297432	225.000000
2788.642507	222.000000
2789.987357	221.000000
2791.331981	244.000000
2792.673253	251.333333
2794.015863	212.000000
2795.358247	240.333333
2796.700406	256.000000
2798.039216	240.000000
2799.380926	277.000000
2800.719288	247.000000
2802.058986	246.666667
2803.396900	262.333333
2804.733029	254.666667
2806.068934	239.333333
2807.406177	211.666667
2808.741636	223.333333
2810.076872	233.000000
2811.410325	245.000000
2812.745115	225.666667
2814.076565	253.666667
2815.410910	240.333333
2816.740357	223.333333
2818.071141	237.666667
2819.401703	270.666667
2820.730486	203.000000
2822.060605	227.000000
2823.388946	237.000000
2824.717066	234.666667
2826.043408	235.333333
2827.371087	261.666667
2828.695432	220.000000
2830.021114	228.666667
2831.345020	278.666667
2832.668707	233.000000
2833.993729	253.000000
2835.315421	242.333333
2836.636895	256.000000
2837.958150	251.000000
2839.279186	230.333333
2840.598449	245.000000
2841.919048	195.000000
2843.237876	254.333333
2844.556485	239.333333
2845.873323	282.000000
2847.189944	260.000000
2848.506348	253.333333
2849.820982	250.333333
2851.136952	252.333333
2852.449601	236.333333
2853.763585	267.333333
2855.077353	229.000000
2856.390904	226.333333
2857.702689	246.000000
2859.012707	233.000000
2860.324060	241.000000
2861.632098	263.333333
2862.941470	231.666667
2864.250628	220.000000
2865.559570	267.000000
2866.866748	235.666667
2868.172164	243.333333
2869.478913	262.666667
2870.783901	218.000000
2872.088675	254.333333
2873.391687	263.666667
2874.697580	248.666667
2875.998619	231.000000
2877.300992	239.666667
2878.601605	236.333333
2879.903552	230.666667
2881.205285	255.666667
2882.503715	248.666667
2883.803478	284.000000
2885.101484	245.666667
2886.399278	208.666667
2887.695316	237.666667
2888.992687	238.666667
2890.288302	245.000000
2891.583706	253.333333
2892.878899	279.333333
2894.170795	225.000000
2895.465567	256.333333
2896.757042	254.666667
2898.049850	254.666667
2899.342448	232.333333
2900.631752	273.333333
2901.922388	249.666667
2903.211273	247.000000
2904.501490	233.333333
2905.788416	275.666667
2907.076674	241.666667
2908.363183	258.000000
2909.649483	244.666667
2910.935576	268.666667
2912.219920	256.000000
2913.507135	249.000000
2914.789524	276.666667
2916.073245	281.333333
2917.355220	249.666667
2918.636987	286.666667
2919.917010	269.000000
2921.199902	236.333333
2922.481049	257.333333
2923.758914	266.666667
2925.039648	252.000000
2926.317101	258.666667
2927.594348	234.666667
2928.869853	267.000000
2930.148226	247.666667
2931.421785	252.333333
2932.698211	195.333333
2933.972896	237.000000
2935.245840	258.000000
2936.520116	249.000000
2937.792652	243.666667
2939.064983	259.333333
2940.334042	239.333333
2941.605966	262.000000
2942.876152	228.000000
2944.146134	269.000000
2945.415913	229.333333
2946.683956	253.000000
2947.950262	289.666667
2949.216367	249.000000
2950.483801	258.000000
2951.749501	246.666667
2953.014998	255.000000
2954.280293	248.333333
2955.542323	261.333333
2956.805683	259.333333
2958.068842	253.666667
2959.330269	270.666667
2960.593025	273.666667
2961.854049	283.000000
2963.113343	236.333333
2964.372437	242.666667
2965.631330	271.333333
2966.890023	239.666667
2968.148516	226.333333
2969.405280	263.333333
2970.661844	222.000000
2971.916681	266.666667
2973.172846	243.333333
2974.425757	249.333333
2975.679997	207.333333
2976.934037	240.000000
2978.186353	253.666667
2979.438469	221.333333
2980.688861	228.666667
2981.942108	250.000000
2983.190578	224.666667
2984.441903	272.666667
2985.689978	248.666667
2986.937857	271.000000
2988.185538	299.666667
2989.433022	257.666667
2990.678785	264.333333
2991.924352	236.666667
2993.171246	245.666667
2994.414896	289.666667
2995.659874	259.000000
2996.901608	242.333333
2998.146194	247.000000
2999.389061	278.000000
3000.628687	230.000000
3001.871163	272.333333
3003.110399	222.000000
3004.350963	267.000000
3005.589810	287.000000
3006.828463	274.333333
3008.065400	238.666667
3009.303665	244.000000
3010.540214	248.000000
3011.776570	259.666667
3013.012732	241.333333
3014.247180	258.666667
3015.481436	249.666667
3016.715498	312.666667
3017.947848	267.333333
3019.178486	300.666667
3020.411970	233.333333
3021.643742	237.000000
3022.873804	258.333333
3024.103673	259.666667
3025.331833	255.333333
3026.561320	280.000000
3027.789097	251.000000
3029.016683	258.333333
3030.245596	286.000000
3031.469766	281.333333
3032.696779	250.000000
3033.920568	256.666667
3035.145684	254.333333
3036.369093	245.333333
3037.592312	231.666667
3038.813826	257.333333
3040.038181	234.666667
3041.257801	228.333333
3042.478747	236.666667
3043.699504	229.000000
3044.918557	209.333333
3046.138935	274.000000
3047.356097	218.000000
3048.574585	252.666667
3049.791370	265.000000
3051.007968	254.666667
3052.224377	268.333333
3053.437574	230.666667
3054.653608	196.666667
3055.866430	206.000000
3057.082089	220.000000
3058.293025	200.000000
3059.505286	232.333333
3060.717361	236.333333
3061.929248	231.666667
3063.139439	247.666667
3064.349443	221.666667
3065.559261	242.666667
3066.767383	228.666667
3067.975320	229.000000
3069.181561	192.666667
3070.389127	240.666667
3071.594998	231.833333
3072.800685	223.000000
3074.006186	228.333333
3075.209994	228.333333
3076.415126	234.333333
3077.618565	273.666667
3078.820313	197.666667
3080.021876	223.333333
3081.223256	254.666667
3082.424452	203.333333
3083.623958	219.333333
3084.823281	242.333333
3086.023927	221.666667
3087.222883	226.000000
3088.418645	194.333333
3089.617236	243.666667
3090.812633	230.000000
3092.009353	192.000000
3093.202881	177.666667
3094.399237	224.333333
3095.593907	196.666667
3096.785385	214.333333
3097.981196	221.333333
3099.172312	276.000000
3100.364752	183.666667
3101.554004	250.333333
3102.746081	217.333333
3103.936475	243.000000
3105.123683	205.333333
3106.312213	208.000000
3107.502066	214.333333
3108.688735	224.666667
3109.875223	232.666667
3111.061533	222.000000
3112.249164	208.333333
3113.433613	223.000000
3114.616383	198.666667
3115.801975	213.000000
3116.985888	237.333333
3118.168122	206.000000
3119.350177	215.333333
3120.532054	230.666667
3121.713753	220.666667
3122.893775	208.333333
3124.072120	198.333333
3125.253285	226.333333
3126.431275	204.000000
3127.609089	246.666667
3128.786725	196.000000
3129.962686	234.333333
3131.138470	197.000000
3132.315576	221.666667
3133.491007	213.333333
3134.664765	167.666667
3135.836850	184.666667
3137.010257	199.333333
3138.183487	183.000000
3139.355046	228.666667
3140.527925	169.333333
3141.697637	233.000000
3142.868670	188.333333
3144.038033	215.000000
3145.205725	258.333333
3146.376233	207.666667
3147.542083	210.000000
3148.712241	213.333333
3149.877743	196.333333
3151.043070	232.000000
3152.208224	216.333333
3153.373205	188.000000
3154.539505	193.666667
3155.701153	194.000000
3156.864120	211.666667
3158.026915	219.333333
3159.189537	213.000000
3160.350494	173.666667
3161.511278	198.333333
3162.671890	232.333333
3163.830838	186.666667
3164.989615	210.333333
3166.148220	229.333333
3167.306652	210.333333
3168.464914	204.333333
3169.621513	215.333333
3170.776451	179.333333
3171.932708	235.666667
3173.087304	233.000000
3174.241730	216.000000
3175.394496	216.000000
3176.547091	203.666667
3177.699517	231.000000
3178.851773	184.666667
3180.003858	159.000000
3181.152798	209.333333
3182.304544	182.333333
3183.454632	179.333333
3184.603064	236.333333
3185.751326	205.666667
3186.899420	193.666667
3188.047345	185.000000
3189.193614	167.666667
3190.339715	205.666667
3191.484162	163.666667
3192.628441	204.666667
3193.772552	166.000000
3194.917980	217.000000
3196.060270	200.333333
3197.202393	173.666667
3198.344348	206.333333
3199.486136	197.000000
3200.627757	215.000000
3201.766243	217.666667
3202.906046	140.333333
3204.047167	215.000000
3205.185153	175.333333
3206.321490	200.666667
3207.457661	153.000000
3208.595149	206.666667
3209.730989	198.333333
3210.868146	175.666667
3212.000690	170.333333
3213.137516	215.000000
3214.269730	198.666667
3215.403261	195.000000
3216.536628	175.333333
3217.666867	233.333333
3218.799904	179.666667
3219.929815	205.666667
3221.061042	181.000000
3222.189145	158.000000
3223.320044	166.666667
3224.449299	185.000000
3225.576911	186.666667
3226.701400	171.666667
3227.830165	168.000000
3228.955808	237.666667
3230.081289	195.000000
3231.205128	176.666667
3232.331761	183.333333
3233.453797	195.000000
3234.577149	178.333333
3235.700339	180.333333
3236.823366	126.333333
3237.944755	185.666667
3239.065981	172.333333
3240.185570	176.333333
3241.304997	189.000000
3242.422786	189.000000
3243.543367	170.666667
3244.660835	210.000000
3245.778142	205.666667
3246.895289	171.333333
3248.010800	164.333333
3249.127625	196.333333
3250.241341	170.666667
3251.357846	164.666667
3252.472717	141.000000
3253.584479	164.666667
3254.696081	178.666667
3255.808999	187.666667
3256.921757	162.333333
3258.031409	156.333333
3259.142376	135.666667
3260.253184	194.000000
3261.362360	192.000000
3262.469906	187.000000
3263.578765	164.666667
3264.687467	195.666667
3265.793066	144.666667
3266.899979	193.000000
3268.005263	162.333333
3269.111861	153.333333
3270.215359	178.666667
3271.320172	169.666667
3272.424827	147.666667
3273.526383	189.666667
3274.627783	166.666667
3275.730497	192.000000
3276.833055	155.333333
3277.932516	166.333333
3279.034761	158.666667
3280.133910	177.666667
3281.231435	166.333333
3282.328804	160.000000
3283.428955	168.000000
3284.526014	189.333333
3285.622917	197.666667
3286.719665	149.000000
3287.811855	186.000000
3288.908293	165.333333
3290.003109	194.333333
3291.097771	132.000000
3292.190811	166.000000
3293.283696	147.666667
3294.374962	169.666667
3295.467539	176.333333
3296.558497	219.666667
3297.647835	196.000000
3298.737020	133.666667
3299.827518	190.666667
3300.914931	162.333333
3302.002191	162.666667
3303.090764	162.000000
3304.179185	168.000000
3305.263058	177.333333
3306.351173	174.333333
3307.436206	151.666667
3308.519624	175.333333
3309.604354	164.333333
3310.687468	165.333333
3311.771895	144.666667
3312.853243	178.666667
3313.935903	128.000000
3315.016949	198.333333
3316.097844	188.000000
3317.177125	182.333333
3318.256256	153.666667
3319.336699	163.333333
3320.414067	206.666667
3321.492747	212.666667
3322.569815	145.333333
3323.646734	137.333333
3324.722041	153.666667
3325.797199	160.000000
3326.873668	136.666667
3327.947067	176.666667
3329.020317	175.333333
3330.094877	157.333333
3331.167829	145.666667
3332.239172	165.000000
3333.311826	177.333333
3334.381414	180.666667
3335.452312	136.000000
3336.521603	156.666667
3337.592205	154.666667
3338.661200	173.333333
3339.728589	188.000000
3340.794373	142.666667
3341.864383	149.333333
3342.931330	163.666667
3343.995215	126.333333
3345.061868	171.333333
3346.126916	154.000000
3347.190361	137.666667
3348.253660	139.666667
3349.316812	167.666667
3350.379818	144.000000
3351.442678	142.000000
3352.503936	160.000000
3353.562137	146.333333
3354.624558	108.333333
3355.683924	156.666667
3356.743144	132.666667
3357.803673	148.000000
3358.859694	155.000000
3359.918478	150.333333
3360.972755	158.666667
3362.029796	146.333333
3363.085238	138.000000
3364.141990	183.000000
3365.197143	130.000000
3366.250699	147.333333
3367.302659	160.333333
3368.357380	148.333333
3369.409052	146.333333
3370.460581	168.333333
3371.513418	147.666667
3372.563208	152.000000
3373.614307	155.000000
3374.662360	130.666667
3375.713172	171.000000
3376.760940	152.000000
3377.808565	167.666667
3378.856047	175.000000
3379.901937	137.666667
3380.949135	162.666667
3381.993291	185.000000
3383.040205	142.666667
3384.085527	128.000000
3385.127808	153.000000
3386.169949	139.000000
3387.213397	156.666667
3388.256704	153.000000
3389.298422	114.333333
3390.339998	133.333333
3391.381433	148.000000
3392.421280	146.333333
3393.459538	165.666667
3394.499104	138.666667
3395.538530	122.000000
3396.576368	126.666667
3397.612619	170.000000
3398.648731	118.333333
3399.686150	145.333333
3400.720536	135.000000
3401.756229	140.333333
3402.791783	150.333333
3403.824306	130.000000
3404.859582	114.666667
3405.891827	160.666667
3406.923934	148.666667
3407.954457	174.333333
3408.986287	129.666667
3410.017979	163.000000
3411.046643	114.666667
3412.075170	133.666667
3413.105003	104.000000
3414.134699	144.666667
3415.161369	152.666667
3416.189346	148.000000
3417.214298	126.000000
3418.242000	134.000000
3419.266679	135.000000
3420.292664	179.000000
3421.317069	178.333333
3422.341338	167.000000
3423.364028	157.666667
3424.386582	182.333333
3425.410442	144.333333
3426.431282	146.000000
3427.451986	130.333333
3428.473997	134.666667
3429.492989	140.000000
3430.511845	142.000000
3431.532008	67.666667
3432.549154	164.000000
