-118.389184	10.457692
-115.719584	1.107692
-113.052919	-5.672028
-110.387006	-10.160839
-107.724025	-12.638112
-105.059615	-13.383217
-102.398135	-12.675524
-99.735225	-10.895105
-97.077423	-6.937063
-94.418190	-3.177622
-91.759706	-0.780420
-89.104147	2.683916
-86.447159	3.040559
-83.795268	4.759441
-81.141948	3.351049
-78.491548	3.597203
-75.839718	0.247552
-73.192979	2.013986
-70.544810	-4.911888
-67.897385	-6.809790
-65.252873	-8.102098
-62.606933	-5.479720
-59.966074	-2.737063
-57.323786	-3.885315
-54.684406	-7.211189
-52.043598	-6.037762
-49.403530	-8.297902
-46.768534	-8.253147
-44.132109	-8.041958
-41.498588	-5.437762
-38.863638	-9.079720
-36.233753	-5.492308
-33.600276	-4.095105
-30.971861	-0.667133
-28.344179	-3.194406
-25.715070	-8.138462
-23.091017	-22.026573
-20.463375	-64.030769
-17.840786	-133.090909
-15.218928	-112.721678
-12.597802	158.567832
-9.977405	577.779021
-7.359896	922.667133
-4.740959	1159.977622
-2.124908	1287.230769
0.490415	1305.002797
3.105011	1212.702098
5.716724	1010.176224
8.329866	705.475524
10.937974	332.018182
13.549664	-19.223776
16.156323	-187.674126
18.764410	-119.184615
21.371773	-13.302098
23.974111	-2.953846
26.580027	-1.979021
29.180921	0.569231
31.783243	1.704895
34.380548	2.360839
36.981428	-0.226573
39.577294	-0.370629
42.174587	-0.314685
44.771161	-2.861538
47.362726	-6.008392
49.955719	-5.934266
52.545851	-5.946853
55.137411	-7.605594
57.726111	-4.170629
60.316238	-5.723077
62.901367	-2.064336
65.487922	-6.089510
68.073764	-5.483916
70.656752	-6.647552
73.241167	-7.289510
75.818452	-8.794406
78.399304	-10.995804
80.977307	-10.448951
83.554600	-9.253147
86.133319	-6.302098
88.707057	-9.514685
91.282221	-10.765035
93.854542	-8.295105
96.426155	-14.839161
98.994928	-10.434965
101.565128	-7.504895
104.132490	-4.079720
106.701277	-4.067133
109.267228	-0.841958
111.830344	3.885315
114.397016	10.851748
116.954467	12.125874
119.517603	14.970629
122.075780	17.345455
124.637510	22.124476
127.194285	25.109091
129.752485	35.876923
132.305733	51.702098
134.858282	66.317483
137.414382	81.285315
139.965535	102.609790
142.515989	121.882517
145.065747	139.381818
147.612685	156.728671
150.158927	172.650350
152.706595	176.678322
155.253568	180.606993
157.795604	179.388811
160.336947	176.930070
162.877597	177.486713
165.419673	173.667133
167.958938	172.804196
170.495393	171.744056
173.031158	169.415385
175.568348	167.393007
178.104846	172.513287
180.638539	173.727273
183.169429	173.153846
185.699630	173.546853
188.231256	169.597203
190.760081	167.241958
193.286107	168.034965
195.811448	170.546853
198.338213	175.584615
200.862181	174.944056
203.385465	172.820979
205.908064	172.728671
208.427870	172.404196
210.946993	170.496503
213.465433	171.269930
215.985297	174.995804
218.498160	169.615385
221.014554	173.453147
223.530266	176.299301
226.041089	179.183217
228.553336	180.713287
231.062800	181.836364
233.571586	181.703497
236.079694	182.955245
238.589225	178.868531
241.093877	177.402797
243.597852	179.030769
246.103251	184.088112
248.603775	181.173427
251.107822	188.460140
253.604899	187.746853
256.105498	187.370629
258.603326	185.762238
261.100481	187.826573
263.596963	185.711888
266.088582	184.869930
268.583721	184.476923
271.076094	182.904895
273.567796	184.027972
276.056735	187.833566
278.547097	190.257343
281.034698	191.352448
283.519539	186.756643
286.007894	186.359441
288.489310	183.440559
290.974240	184.876923
293.454325	188.181818
295.937922	193.363636
298.416676	198.897902
300.896854	199.896503
303.374279	200.316084
305.851041	203.110490
308.327140	203.647552
310.800490	209.391608
313.273178	217.861538
315.745205	225.467133
318.216571	229.054545
320.685193	237.474126
323.153155	240.144056
325.622540	236.616783
328.087102	229.001399
330.555167	220.760839
333.018413	209.338462
335.481002	208.029371
337.942933	206.000000
340.404208	209.741259
342.862749	213.335664
345.322712	216.366434
347.779942	215.909091
350.236518	216.798601
352.692440	209.598601
355.145633	201.781818
357.600247	195.772028
360.050060	200.710490
362.503370	195.941259
364.951880	200.012587
367.399740	201.581818
369.849021	201.797203
372.293509	204.820979
374.739419	208.331469
377.184680	207.644755
379.627222	207.534266
382.069116	206.573427
384.510362	203.805594
386.948893	202.704895
389.388846	202.141259
391.826085	195.309091
394.260612	200.313287
396.698627	203.255944
399.131865	205.149650
401.566525	206.623776
403.996411	208.839161
406.429783	207.402797
408.858385	205.892308
411.286346	205.787413
413.715727	200.725874
416.140343	194.956643
418.566381	191.921678
420.991778	192.160839
423.416535	195.184615
425.836534	197.048951
428.257954	198.730070
430.676677	202.146853
433.096821	207.216783
435.514270	205.464336
437.933139	208.924476
440.349315	210.879720
442.760744	210.938462
445.175649	212.241958
447.587864	211.647552
449.999445	210.172028
452.410392	211.390210
454.818653	212.215385
457.226281	207.742657
459.633278	204.393007
462.039642	200.560839
464.443324	194.117483
466.846376	195.507692
469.248798	195.041958
471.650591	195.563636
474.049705	199.169231
476.450239	198.787413
478.850144	200.402797
481.245326	204.728671
483.643975	206.732867
486.037904	202.632168
488.431207	199.878322
490.823884	199.574825
493.215936	194.404196
495.609407	193.051748
497.998165	190.120280
500.384257	184.588811
502.771769	182.011189
505.158657	172.071329
507.542882	165.183217
509.928526	155.193007
512.311507	148.804196
514.691828	142.538462
517.073568	140.159441
519.452649	137.928671
521.833149	131.773427
524.210991	131.812587
526.586178	129.253147
528.960747	130.296503
531.336735	133.460140
533.710069	134.862937
536.084821	135.523077
538.454888	136.511888
540.824339	138.744056
543.195208	137.317483
545.561397	136.706294
547.929004	134.753846
550.293965	130.330070
552.658313	123.155245
555.022049	117.317483
557.387202	119.193007
559.747682	120.328671
562.109581	120.683916
564.468840	122.257343
566.825460	125.069930
569.185525	121.525874
571.538900	120.461538
573.895719	119.744056
576.249902	118.556643
578.603478	114.916084
580.956445	113.647552
583.306781	114.055944
585.658533	120.233566
588.003609	121.802797
590.354149	122.137063
592.698016	126.793007
595.047343	126.577622
597.392023	128.292308
599.734077	129.503497
602.077549	126.481119
604.418398	126.759441
606.758645	124.846154
609.096271	128.440559
611.437332	123.567832
613.773756	125.534266
616.111596	122.734266
618.446818	119.085315
620.779425	116.179021
623.113448	112.248951
625.444858	106.917483
627.775669	106.759441
630.105882	102.471329
632.435497	104.474126
634.760490	105.683916
637.090924	110.330070
639.416736	109.137063
641.739942	112.123077
644.064563	114.738462
646.386580	115.809790
648.708002	113.850350
651.026821	109.888112
653.347056	109.500699
655.666698	113.723077
657.983739	110.422378
660.300188	115.296503
662.614040	116.959441
664.929306	116.551049
667.241976	115.636364
669.556061	114.916084
671.865546	112.295105
674.176447	110.222378
676.484755	103.941259
678.792475	98.563636
681.101610	100.387413
683.406152	102.462937
685.710107	100.510490
688.013477	105.895105
690.318261	108.783217
692.618459	109.910490
694.920071	113.709091
697.221099	112.409790
699.517544	108.412587
701.815405	109.124476
704.112682	104.468531
706.409376	103.495105
708.701494	103.737063
710.997023	105.351049
713.287979	101.074126
715.580349	104.634965
717.870143	106.569231
720.159358	108.941259
722.447992	107.095105
724.734055	107.296503
727.021531	104.703497
729.306437	104.117483
731.590764	103.493706
733.872523	106.862937
736.155696	106.374825
738.438292	108.506294
740.716333	107.321678
742.995787	106.879720
745.274666	105.732867
747.552969	108.717483
749.826723	106.527273
752.101891	109.885315
754.376485	105.633566
756.648520	107.216783
758.921967	109.572028
761.192857	107.660140
763.461191	103.861538
765.730938	104.634965
767.998131	104.325874
770.264753	106.974825
772.530806	107.920280
774.794306	111.683916
777.059220	111.272727
779.323564	114.580420
781.583379	116.644755
783.844607	119.697902
786.105267	118.019580
788.363380	113.748252
790.618949	111.023776
792.877909	111.027972
795.130370	113.744056
797.388198	116.690909
799.641506	110.427972
801.892275	109.606993
804.144456	101.802797
806.394099	100.854545
808.645153	100.436364
810.891696	103.900699
813.139651	104.871329
815.385072	105.236364
817.631904	108.151049
819.878175	111.779021
822.119942	115.883916
824.365091	117.923077
826.603768	113.246154
828.845828	111.924476
831.083389	106.552448
833.322361	106.044755
835.558807	104.488112
837.796664	106.790210
840.031997	105.169231
842.264805	107.109091
844.499025	107.660140
846.730723	110.671329
848.961866	111.097902
851.192454	110.744056
853.422488	105.276923
855.651967	106.124476
857.876965	105.562238
860.105338	102.041958
862.329232	100.948252
864.554536	102.993007
866.775365	103.699301
868.999566	105.525874
871.219294	106.879720
873.440433	111.321678
875.661021	111.565035
877.879099	113.123077
880.098588	114.559441
882.313610	113.304895
884.528084	109.131469
886.742011	108.220979
888.955390	103.619580
891.168222	106.948252
893.380508	108.892308
895.590291	109.440559
897.799529	113.152448
900.008222	115.906294
902.214416	114.281119
904.422019	115.037762
906.627125	111.139860
908.831687	106.868531
911.033753	102.960839
913.237229	103.833566
915.438211	102.946853
917.638652	111.254545
919.840501	114.255944
922.035958	115.412587
924.234775	117.541259
926.429153	117.130070
928.626889	110.476923
930.820189	108.349650
933.014898	103.233566
935.207121	106.318881
937.398806	104.983217
939.589953	109.374825
941.778617	112.416783
943.966744	113.440559
946.152391	110.811189
948.341390	110.037762
950.525966	110.574825
952.710007	111.065734
954.897398	112.721678
957.076485	112.609790
959.258923	111.962238
961.440827	114.332867
963.620257	117.331469
965.797214	119.404196
967.975578	122.559441
970.155350	123.889510
972.328773	121.229371
974.505542	118.504895
976.677905	117.296503
978.851674	119.711888
981.021040	122.128671
983.193751	122.090909
985.363995	125.156643
987.533711	130.983217
989.702898	135.216783
991.867688	136.820979
994.035819	141.268531
996.199556	144.958042
998.364699	137.444755
1000.527384	134.920280
1002.689542	133.117483
1004.849244	132.846154
1007.008422	132.882517
1009.169006	140.551049
1011.327135	143.916084
1013.484740	148.432168
1015.641822	148.668531
1017.798381	154.597203
1019.950560	156.320280
1022.104145	156.163636
1024.257209	153.468531
1026.407825	154.488112
1028.559846	149.998601
1030.707494	148.036364
1032.858474	148.759441
1035.005083	152.862937
1037.151174	151.190210
1039.296745	152.388811
1041.443722	155.082517
1043.584411	157.979021
1045.728428	156.366434
1047.870005	157.833566
1050.011066	160.637762
1052.153531	158.187413
1054.289717	157.827972
1056.429229	161.067133
1058.564385	161.377622
1060.702866	163.034965
1062.836993	166.372028
1064.970607	164.988811
1067.105626	161.946853
1069.236295	161.993007
1071.368369	161.867133
1073.498014	164.271329
1075.627147	161.731469
1077.755768	158.083916
1079.883878	158.162238
1082.009562	155.314685
1084.134736	153.900699
1086.261314	154.972028
1088.383555	155.909091
1090.507199	152.097902
1092.626510	148.128671
1094.751049	149.055944
1096.869343	145.637762
1098.989042	145.320280
1101.106322	141.309091
1103.223096	144.566434
1105.339363	144.972028
1107.453215	144.057343
1109.568470	146.935664
1111.679403	150.366434
1113.793647	151.102098
1115.903571	150.854545
1118.014899	148.246154
1120.125722	148.419580
1122.232230	143.030769
1124.342046	141.358042
1126.447548	136.620979
1128.554453	139.040559
1130.655143	136.339860
1132.761045	137.993007
1134.862638	135.492308
1136.965634	138.440559
1139.068129	135.741259
1141.164417	133.703497
1143.265913	134.057343
1145.363106	136.441958
1147.459800	133.581818
1149.555996	130.632168
1151.651695	126.029371
1153.746896	124.104895
1155.839700	123.418182
1157.933906	124.188811
1160.021921	119.704895
1162.115134	123.910490
1164.202159	125.706294
1166.292483	129.776224
1168.378520	133.365035
1170.467854	134.292308
1172.551007	133.756643
1174.635563	133.092308
1176.721519	132.679720
1178.803194	132.619580
1180.886271	132.006993
1182.966962	132.201399
1185.047161	131.574825
1187.126869	133.069930
1189.206086	134.716084
1191.282921	134.267133
1193.357375	128.806993
1195.435121	125.349650
1197.508596	123.033566
1199.583472	123.988811
1201.654081	124.061538
1203.726092	129.241958
1205.795726	127.709091
1207.866761	131.460140
1209.937308	133.654545
1212.003594	134.692308
1214.071281	139.602797
1216.136596	143.777622
1218.203311	139.208392
1220.265770	138.574825
1222.331514	134.088112
1224.393005	132.784615
1226.455895	128.551049
1228.516418	126.106294
1230.576457	121.209790
1232.636014	123.046154
1234.693205	118.730070
1236.749915	120.146853
1238.804262	125.194406
1240.861889	127.800000
1242.917154	125.379021
1244.968178	126.339860
1247.020602	127.718881
1249.072546	129.889510
1251.122132	129.303497
1253.171239	129.944056
1255.219868	134.144056
1257.268018	140.412587
1259.315690	139.379021
1261.359131	140.332867
1263.405847	139.948252
1265.450210	137.671329
1267.494097	133.686713
1269.535633	131.008392
1271.574819	130.731469
1273.617277	130.015385
1275.655513	129.255944
1277.695148	131.074126
1279.734308	137.532867
1281.769249	143.362238
1283.805590	146.895105
1285.839585	149.827972
1287.874979	149.545455
1289.906159	154.692308
1291.938738	156.735664
1293.970844	160.770629
1296.000610	163.226573
1298.031774	166.655944
1300.058730	169.888112
1302.087084	170.496503
1304.111234	172.609790
1306.138648	167.593007
1308.161860	168.511888
1310.186470	166.692308
1312.208746	166.103497
1314.232419	176.450350
1316.253759	181.317483
1318.274631	193.702098
1320.295037	205.517483
1322.311248	219.377622
1324.328858	230.426573
1326.344139	235.840559
1328.362678	239.731469
1330.377029	239.562238
1332.389054	241.268531
1334.404336	238.513287
1336.415433	234.236364
1338.427927	235.725874
1340.436238	230.923077
1342.447805	231.738462
1344.453332	228.102098
1346.462115	222.590210
1348.466720	217.548252
1350.474579	213.358042
1352.481976	208.090909
1354.483342	206.655944
1356.486105	205.290909
1358.488407	201.608392
1360.490250	195.288112
1362.491633	188.560839
1364.490703	181.727273
1366.489314	179.478322
1368.487467	172.123077
1370.485162	165.517483
1372.478693	161.260140
1374.473621	155.583217
1376.468092	149.551049
1378.462106	146.401399
1380.453813	145.695105
1382.445064	140.541259
1384.434010	136.840559
1386.424351	132.400000
1388.414237	136.432168
1390.401820	139.874126
1392.388948	138.598601
1394.373776	138.072727
1396.359997	133.861538
1398.343919	127.876923
1400.327388	124.475524
1402.310405	125.316084
1404.291123	125.932867
1406.273237	127.577622
1408.253053	132.437762
1410.232419	137.393007
1412.207645	141.472727
1414.186111	143.879720
1416.162282	144.839161
1418.138005	146.841958
1420.113278	140.316084
1422.086260	136.967832
1424.058794	134.598601
1426.030881	134.467133
1428.002519	132.660140
1429.970029	130.215385
1431.942614	131.325874
1433.907392	130.538462
1435.877243	130.906294
1437.842969	135.050350
1439.810088	139.335664
1441.774924	138.464336
1443.735641	130.696503
1445.701425	128.693706
1447.661254	127.893706
1449.622476	126.405594
1451.585091	125.918881
1453.543591	124.416783
1455.501649	128.527273
1457.459264	130.739860
1459.416438	134.134266
1461.371336	139.758042
1463.327626	145.412587
1465.281642	145.854545
1467.235218	142.973427
1469.186521	145.504895
1471.139216	146.008392
1473.089640	145.241958
1475.039625	144.920280
1476.989170	143.332867
1478.936447	140.685315
1480.881457	140.281119
1482.827858	138.962238
1484.773823	141.952448
1486.719349	145.293706
1488.662611	146.983217
1490.605436	147.255944
1492.545998	153.029371
1494.487951	149.753846
1496.427643	151.432168
1498.366899	148.247552
1500.305720	142.745455
1502.242282	142.078322
1504.180235	143.465734
1506.115930	144.152448
1508.051191	146.707692
1509.984195	147.593007
1511.916767	153.983217
1513.848907	157.320280
1515.780615	163.345455
1517.710069	162.609790
1519.640914	163.833566
1521.571328	166.209790
1523.497668	167.408392
1525.425400	176.116084
1527.350881	183.874126
1529.275933	190.120280
1531.200556	197.942657
1533.124750	203.233566
1535.046697	214.717483
1536.970033	219.786014
1538.891124	233.183217
1540.809970	244.376224
1542.730206	266.513287
1544.648198	300.036364
1546.565764	339.506294
1548.481088	390.346853
1550.397802	448.095105
1552.310461	517.612587
1554.226324	592.169231
1556.139947	669.166434
1558.051333	749.811189
1559.964107	806.953846
1561.872832	855.262937
1563.782947	877.527273
1565.692638	879.478322
1567.601905	857.594406
1569.508939	815.328671
1571.413740	753.565035
1573.319930	685.862937
1575.223888	618.587413
1577.127426	551.075524
1579.030542	489.490909
1580.931430	441.751049
1582.833705	391.236364
1584.733753	358.027972
1586.635188	327.107692
1588.532590	304.497902
1590.429573	285.047552
1592.326138	272.517483
1594.224091	261.507692
1596.116209	251.816783
1598.011520	244.137063
1599.906414	233.440559
1601.799086	220.653147
1603.691342	214.879720
1605.581377	204.051748
1607.470998	200.969231
1609.360202	193.839161
1611.248992	189.163636
1613.135565	181.390210
1615.023524	181.320280
1616.907467	177.082517
1618.792798	172.553846
1620.677714	167.278322
1622.560417	161.737063
1624.444507	154.986014
1626.324586	149.051748
1628.206051	143.026573
1630.085306	142.657343
1631.965947	134.107692
1633.840784	138.148252
1635.720603	136.623776
1637.596416	138.041958
1639.471819	140.316084
1641.348609	144.036364
1643.219601	140.265734
1645.093775	143.346853
1646.963951	138.060140
1648.837307	135.261538
1650.708460	131.127273
1652.577411	130.029371
1654.447748	125.503497
1656.314091	131.274126
1658.181820	125.669930
1660.047351	126.634965
1661.914266	129.689510
1663.777193	135.040559
1665.641505	128.882517
1667.503621	126.869930
1669.365333	122.318881
1671.228429	119.816783
1673.089331	114.664336
1674.948039	115.572028
1676.806344	116.467133
1678.666034	115.718881
1680.519957	115.163636
1682.377052	120.408392
1684.233745	122.008392
1686.086462	127.388811
1687.942349	122.720280
1689.794263	117.801399
1691.645776	113.232168
1693.496888	109.172028
1695.347600	102.669930
1697.197911	101.604196
1699.046038	101.086713
1700.895548	99.948252
1702.739310	104.146853
1704.588021	106.204196
1706.430987	106.874126
1708.277118	115.227972
1710.119288	120.923077
1711.964622	124.299301
1713.804216	126.048951
1715.645194	127.328671
1717.487555	124.339860
1719.325960	126.344056
1721.165748	124.408392
1723.003361	122.962238
1724.840578	120.762238
1726.675622	119.248951
1728.512049	115.165035
1730.346304	118.637762
1732.180164	117.194406
1734.013631	115.509091
1735.843151	113.137063
1737.675830	110.220979
1739.504565	106.222378
1741.336458	106.114685
1743.164408	104.302098
1744.991966	105.651748
1746.819132	106.559441
1748.645907	108.300699
1750.472291	104.634965
1752.294738	106.398601
1754.120339	104.432168
1755.942006	102.640559
1757.765055	103.928671
1759.585943	104.186014
1761.406441	102.939860
1763.228321	104.974825
1765.044501	105.609790
1766.863833	104.546853
1768.679238	104.846154
1770.497793	105.520280
1772.312423	104.437762
1774.126667	108.193007
1775.940523	103.455944
1777.753993	107.264336
1779.565310	106.226573
1781.378008	108.233566
1783.190319	109.709091
1784.998713	111.032168
1786.808488	107.829371
1788.614347	103.413986
1790.423352	102.689510
1792.228444	102.124476
1794.034917	98.903497
1795.841006	99.065734
1797.643185	96.808392
1799.448507	105.742657
1801.249921	100.545455
1803.052715	103.337063
1804.851603	109.734266
1806.651872	112.627972
1808.451759	110.788811
1810.249505	110.917483
1812.046869	111.152448
1813.843854	109.441958
1815.640458	109.160839
1817.434923	110.169231
1819.230767	114.005594
1821.020957	116.103497
1822.816043	112.262937
1824.605476	112.959441
1826.398046	114.177622
1828.188481	112.681119
1829.976782	111.148252
1831.768218	113.039161
1833.554008	110.983217
1835.341178	109.903497
1837.126216	107.965035
1838.914388	108.324476
1840.698674	110.067133
1842.480831	109.306294
1844.264366	107.986014
1846.045773	108.804196
1847.828559	103.088112
1849.607465	104.232168
1851.387749	107.061538
1853.165907	108.443357
1854.945444	104.906294
1856.722856	104.160839
1858.498144	104.499301
1860.274811	111.823776
1862.049354	116.566434
1863.825276	116.797203
1865.595578	119.072727
1867.369006	121.002797
1869.140315	116.904895
1870.911254	120.083916
1872.683569	116.981818
1874.450272	110.441958
1876.220099	100.858741
1877.986063	99.330070
1879.755151	100.613986
1881.520377	101.346853
1883.285234	100.114685
1885.051469	96.829371
1886.813845	97.594406
1888.575854	97.879720
1890.337495	99.605594
1892.098770	102.622378
1893.859677	100.646154
1895.620218	100.310490
1897.378649	98.710490
1899.136715	103.669930
1900.892672	104.422378
1902.650007	105.746853
1904.406975	103.841958
1906.161838	105.700699
1907.914595	102.132867
1909.666989	102.538462
1911.420758	104.356643
1913.172424	106.269930
1914.921988	105.751049
1916.672928	104.770629
1918.423504	100.311888
1920.170241	102.085315
1921.918355	98.829371
1923.664369	97.205594
1925.411759	94.197203
1927.157050	94.981818
1928.900244	90.577622
1930.644814	92.102098
1932.387287	93.158042
1934.129400	95.695105
1935.871153	98.737762
1937.612547	101.255944
1939.351847	103.362937
1941.090787	105.841958
1942.829370	102.220280
1944.565860	101.773427
1946.301993	102.235664
1948.039500	101.102098
1949.773185	98.888811
1951.508245	98.081119
1953.241217	97.165734
1954.973832	102.506294
1956.706090	108.244056
1958.437992	114.057343
1960.167808	114.433566
1961.895540	110.924476
1963.624645	106.467133
1965.353396	105.704895
1967.080063	103.744056
1968.806376	101.093706
1970.534062	100.184615
1972.256212	101.632168
1973.981463	101.090909
1975.702908	105.960839
1977.427452	104.036364
1979.149917	104.360839
1980.868578	99.444755
1982.590338	97.977622
1984.308296	96.132867
1986.027627	99.402797
1987.743159	100.714685
1989.463512	105.823776
1991.180065	106.104895
1992.892823	108.560839
1994.608676	112.030769
1996.322456	112.710490
1998.035887	109.247552
1999.747247	109.053147
2001.459980	106.804196
2003.168921	105.335664
2004.880956	102.475524
2006.587481	103.395804
2008.297099	98.457343
2010.004649	98.981818
2011.711852	95.006993
2013.416989	96.134266
2015.121779	100.247552
2016.827941	101.258741
2018.530321	103.945455
2020.234073	107.194406
2021.935761	108.264336
2023.637105	106.033566
2025.338103	108.518881
2027.037041	108.591608
2028.737349	107.289510
2030.433883	112.609790
2032.131788	106.788811
2033.827634	105.914685
2035.526566	104.099301
2037.220012	101.981818
2038.914830	99.794406
2040.609304	99.556643
2042.300010	95.732867
2043.993800	94.121678
2045.683823	98.690909
2047.375217	99.661538
2049.064558	102.486713
2050.755269	107.744056
2052.442218	103.142657
2054.128826	103.829371
2055.816805	101.598601
2057.501024	99.587413
2059.186613	96.320280
2060.871863	96.227972
2062.555065	93.142657
2064.239636	92.998601
2065.918745	92.976224
2067.602639	92.734266
2069.281073	94.465734
2070.962583	97.008392
2072.640343	100.577622
2074.317765	103.755245
2075.996558	103.910490
2077.673307	102.587413
2079.348015	100.760839
2081.024092	100.302098
2082.698129	101.159441
2084.371830	99.374825
2086.045196	96.977622
2087.716524	97.374825
2089.387517	96.932867
2091.058176	97.904895
2092.728500	100.276923
2094.398491	99.365035
2096.066446	95.212587
2097.734068	94.198601
2099.399655	90.234965
2101.066612	89.668531
2102.731534	90.770629
2104.396125	89.966434
2106.058684	87.517483
2107.722611	92.065734
2109.384508	95.913287
2111.046073	100.377622
2112.707307	99.475524
2114.366513	101.195804
2116.025388	102.913287
2117.683934	103.320280
2119.342150	101.338462
2120.996642	104.709091
2122.654199	105.704895
2124.311427	105.787413
2125.964933	103.751049
2127.619807	107.836364
2129.270963	110.893706
2130.925180	111.125874
2132.575681	103.808392
2134.227548	102.095105
2135.874007	100.579021
2137.525221	98.864336
2139.172721	96.116084
2140.821588	97.871329
2142.468437	96.855944
2144.114959	96.506294
2145.761156	96.987413
2147.403645	100.018182
2149.049192	104.128671
2150.691032	103.665734
2152.335929	98.720280
2153.977121	98.787413
2155.617989	99.555245
2157.258533	99.090909
2158.897065	95.341259
2160.536964	92.790210
2162.173162	89.237762
2163.810726	91.152448
2165.447967	92.118881
2167.083199	96.555245
2168.718110	96.794406
2170.352699	96.739860
2171.986966	96.233566
2173.617541	101.606993
2175.251166	104.141259
2176.881100	106.374825
2178.512399	105.351049
2180.141694	104.493706
2181.770668	105.952448
2183.399324	107.892308
2185.027660	105.952448
2186.653993	107.886713
2188.280008	103.020979
2189.904022	103.548252
2191.529400	105.495105
2193.152779	114.423776
2194.777521	111.739860
2196.398583	110.848951
2198.019328	108.006993
2199.641438	106.762238
2201.261550	107.874126
2202.879665	106.503497
2204.497465	101.798601
2206.114950	100.444755
2207.732119	96.528671
2209.348973	96.339860
2210.965512	98.120280
2212.580057	100.868531
2214.192610	99.872727
2215.806527	96.131469
2217.418453	95.826573
2219.031742	98.552448
2220.643041	99.800000
2222.252350	97.808392
2223.863023	93.268531
2225.471707	93.033566
2227.080079	93.132867
2228.686463	95.036364
2230.294211	96.541259
2231.899972	99.667133
2233.505422	102.962238
2235.108887	101.651748
2236.713716	103.923077
2238.316560	109.475524
2239.917421	107.075524
2241.519645	108.019580
2243.119886	104.427972
2244.721490	109.481119
2246.319442	109.591608
2247.918756	108.997203
2249.516090	107.116084
2251.113115	105.667133
2252.711503	106.658741
2254.306242	109.639161
2255.899004	104.655944
2257.493129	104.980420
2259.088615	100.520280
2260.680457	99.904895
2262.271992	100.127273
2263.864888	106.041958
2265.452475	103.753846
2267.044759	106.341259
2268.631735	104.689510
2270.221740	106.668531
2271.806440	110.225175
2273.395834	109.618182
2274.979925	102.156643
2276.565378	100.563636
2278.148861	100.916084
2279.735371	101.443357
2281.318247	106.360839
2282.900819	109.590210
2284.483088	111.408392
2286.061728	108.615385
2287.643391	102.528671
2289.221426	104.962238
2290.802484	100.032168
2292.379916	96.864336
2293.955383	92.637762
2295.533873	91.307692
2297.108739	90.704895
2298.683304	91.874126
2300.257569	93.977622
2301.831533	98.667133
2303.405197	98.552448
2304.978560	96.083916
2306.548305	97.184615
2308.117751	99.457343
2309.690216	97.846154
2311.257405	97.857343
2312.827613	95.904895
2314.394206	92.763636
2315.962159	89.911888
2317.528156	91.065734
2319.093856	89.883916
2320.659259	95.706294
2322.222707	96.518881
2323.787515	100.278322
2325.348715	99.648951
2326.912929	98.690909
2328.471882	98.352448
2330.033848	98.979021
2331.593864	95.018182
2333.153584	94.013986
2334.711355	94.205594
2336.268831	93.646154
2337.826013	96.090909
2339.381248	102.358042
2340.936188	100.797203
2342.490835	105.234965
2344.045188	103.155245
2345.599247	102.969231
2347.153012	102.867133
2348.704834	102.872727
2350.254712	103.064336
2351.807598	104.889510
2353.355242	105.646154
2354.905893	102.977622
2356.452954	104.862937
2358.001372	103.759441
2359.549498	99.581818
2361.094036	100.440559
2362.639933	98.079720
2364.183890	96.949650
2365.729205	97.630769
2367.270935	100.878322
2368.814022	102.180420
2370.355174	100.639161
2371.896036	102.434965
2373.436609	103.372028
2374.976893	103.553846
2376.516887	105.860140
2378.053304	106.008392
2379.592722	103.948252
2381.128563	98.809790
2382.665760	100.310490
2384.199382	101.054545
2385.736005	103.174825
2387.270696	98.429371
2388.803458	99.001399
2390.335933	103.109091
2391.866481	106.418182
2393.400026	108.794406
2394.928360	115.051748
2396.458050	116.468531
2397.987455	114.570629
2399.516574	111.453147
2401.045409	117.293706
2402.569038	113.180420
2404.097304	113.956643
2405.620366	108.904895
2407.148062	108.665734
2408.668919	108.534266
2410.194409	104.342657
2411.716338	104.269930
2413.239623	106.500699
2414.760987	104.490909
2416.280431	104.279720
2417.801230	104.043357
2419.320110	109.195804
2420.838708	107.620979
2422.355389	111.261538
2423.873424	111.993007
2425.391178	115.320280
2426.905381	114.657343
2428.419303	113.427972
2429.932945	117.348252
2431.447942	117.107692
2432.959390	115.998601
2434.472193	117.311888
2435.983083	115.709091
2437.493693	118.165035
2439.002392	116.030769
2440.514078	115.854545
2442.022219	117.148252
2443.530083	116.604196
2445.037669	116.208392
2446.541714	116.755245
2448.048745	114.455944
2449.553867	110.569231
2451.058712	111.584615
2452.561650	110.690909
2454.064311	107.822378
2455.566696	107.005594
2457.067176	106.349650
2458.569009	106.362238
2460.068938	108.738462
2461.568591	107.751049
2463.067968	111.504895
2464.565443	114.139860
2466.061017	113.921678
2467.559570	113.695105
2469.054594	111.132867
2470.550972	110.658741
2472.043823	109.172028
2473.538026	105.432168
2475.031956	103.304895
2476.522363	103.146853
2478.015746	102.104895
2479.507232	101.011189
2480.996821	105.507692
2482.486138	107.720280
2483.973560	107.548252
2485.463957	107.202797
2486.950835	105.896503
2488.439065	106.027972
2489.923779	107.018182
2491.408222	105.530070
2492.894017	103.134266
2494.377919	101.804196
2495.863173	101.746853
2497.343293	103.292308
2498.826385	106.707692
2500.307587	109.365035
2501.788520	108.274126
2503.267564	107.053147
2504.746339	100.797203
2506.224846	99.767832
2507.703085	100.839161
2509.181055	100.872727
2510.655521	97.103497
2512.132955	99.275524
2513.606886	99.110490
2515.082168	104.300699
2516.557182	108.061538
2518.028695	110.956643
2519.501558	110.637762
2520.972539	110.669930
2522.444870	106.050350
2523.912088	109.700699
2525.382271	109.413986
2526.850574	111.641958
2528.318612	113.114685
2529.786385	112.504895
2531.253893	104.223776
2532.721136	106.566434
2534.184887	106.248951
2535.649988	105.800000
2537.113212	107.723077
2538.577786	113.006993
2540.038870	111.332867
2541.501304	114.427972
2542.963475	113.959441
2544.422160	118.397203
2545.885417	118.788811
2547.343577	118.668531
2548.803086	116.198601
2550.257502	118.234965
2551.716487	115.444755
2553.173601	117.967832
2554.628844	116.606993
2556.083826	116.833566
2557.536938	113.619580
2558.991399	114.159441
2560.443991	113.290909
2561.896323	112.581818
2563.346787	111.538462
2564.800207	112.293706
2566.248545	109.069930
2567.699839	106.359441
2569.149266	100.060140
2570.595221	104.699301
2572.044132	104.142657
2573.489571	110.601399
2574.936359	116.420979
2576.381283	122.334266
2577.825950	124.839161
2579.271964	126.496503
2580.714511	129.502098
2582.158406	127.180420
2583.598836	126.144056
2585.040613	126.230769
2586.480531	122.332867
2587.921796	124.118881
2589.359600	123.844755
2590.800353	124.783217
2592.236043	124.107692
2593.674683	125.667133
2595.111466	126.000000
2596.546392	127.050350
2597.984267	126.065734
2599.417083	126.113287
2600.851247	131.606993
2602.283557	136.177622
2603.717213	133.335664
2605.149016	128.197203
2606.580566	120.502098
2608.011862	121.137063
2609.441306	123.613986
2610.870499	126.223776
2612.297840	127.867133
2613.726528	126.872727
2615.154963	127.745455
2616.579951	134.241958
2618.006286	140.615385
2619.430772	144.341259
2620.856604	143.303497
2622.278992	144.296503
2623.702726	145.339860
2625.124613	152.955245
2626.546251	156.595804
2627.966043	162.184615
2629.387181	164.060140
2630.808069	166.633566
2632.225519	173.384615
2633.645908	179.146853
2635.062860	184.341259
2636.479564	187.177622
2637.896019	191.043357
2639.312226	198.153846
2640.728184	199.346853
2642.142302	206.462937
2643.556173	208.769231
2644.968204	213.507692
2646.381580	215.406993
2647.791526	220.850350
2649.204407	226.405594
2650.613861	232.483916
2652.023068	235.869930
2653.430439	239.854545
2654.840744	239.311888
2656.249213	241.914685
2657.655847	250.791608
2659.062236	255.818182
2660.466791	256.850350
2661.872690	257.349650
2663.276756	256.752448
2664.680578	260.723077
2666.084155	263.478322
2667.485900	269.639161
2668.888989	267.918881
2670.288661	266.637762
2671.689675	264.230769
2673.087274	273.176224
2674.487803	278.671329
2675.884917	277.769231
2677.283374	278.767832
2678.680003	280.537063
2680.076390	281.381818
2681.472536	286.036364
2682.866855	288.672727
2684.262517	289.793007
2685.654769	284.548252
2687.048365	279.337063
2688.440136	274.648951
2689.833249	269.697902
2691.224539	261.097902
2692.614006	254.890909
2694.003233	243.683916
2695.392221	238.269930
2696.782551	234.752448
2698.167896	235.924476
2699.556165	233.416783
2700.942614	230.801399
2702.328824	225.962238
2703.714796	220.692308
2705.097368	217.563636
2706.481283	215.611189
2707.864960	210.027972
2709.248399	205.703497
2710.628442	197.372028
2712.009827	194.205594
2713.389396	196.429371
2714.770307	194.148252
2716.149403	187.423776
2717.526684	184.627972
2718.905307	179.032168
2720.282117	177.544056
2721.658691	176.116084
2723.035029	170.762238
2724.409555	164.788811
2725.785422	159.930070
2727.157902	149.604196
2728.533298	147.065734
2729.903734	145.387413
2731.275511	140.806993
2732.647053	137.576224
2734.016787	137.748252
2735.387862	135.604196
2736.757129	137.897902
2738.126162	136.395804
2739.493388	135.104895
2740.860382	131.360839
2742.227143	129.713287
2743.593671	122.600000
2744.958394	120.602797
2746.322886	114.373427
2747.687145	113.563636
2749.051172	109.121678
2750.414968	109.823776
2751.775390	107.348252
2753.138723	109.590210
2754.497113	110.520280
2755.858413	114.376224
2757.216342	113.697902
2758.577181	117.334266
2759.936219	110.937063
2761.291889	107.437762
2762.650467	104.113287
2764.005679	108.153846
2765.360661	106.668531
2766.713846	108.167832
2768.069938	104.367832
2769.422666	106.602797
2770.775165	108.290909
2772.127436	108.408392
2773.481046	105.156643
2774.831294	106.408392
2776.179749	103.032168
2777.531108	101.352448
2778.879108	103.707692
2780.228447	107.612587
2781.575993	105.516084
2782.923312	102.843357
2784.270405	97.888112
2785.615707	97.142657
2786.960783	89.643357
2788.305633	88.604196
2789.650256	86.183217
2790.991528	91.102098
2792.334138	92.490909
2793.676522	94.095105
2795.018682	100.041958
2796.357492	102.398601
2797.699201	102.613986
2799.037563	102.932867
2800.377262	96.939860
2801.715175	92.762238
2803.051304	87.703497
2804.387209	88.774825
2805.724452	87.317483
2807.059911	92.106294
2808.395147	90.711888
2809.728600	91.114685
2811.063391	96.949650
2812.394840	97.258741
2813.729185	100.896503
2815.058632	103.304895
2816.389416	98.148252
2817.719978	94.573427
2819.048761	93.678322
2820.378880	96.286713
2821.707221	92.446154
2823.035341	92.731469
2824.361684	92.039161
2825.689362	93.423776
2827.013708	93.209790
2828.339389	89.187413
2829.663295	89.179021
2830.986982	87.462937
2832.312004	81.044755
2833.633696	79.393007
2834.955170	79.660140
2836.276425	84.461538
2837.597461	84.331469
2838.916725	91.951049
2840.237324	93.805594
2841.556151	95.629371
2842.874760	93.602797
2844.191598	89.969231
2845.508220	90.041958
2846.824623	89.573427
2848.139258	89.637762
2849.455227	89.058741
2850.767876	85.676923
2852.081861	87.531469
2853.395628	85.749650
2854.709180	84.253147
2856.020964	81.328671
2857.330982	80.972028
2858.642335	80.706294
2859.950373	82.837762
2861.259746	85.213986
2862.568903	86.871329
2863.877845	89.576224
2865.185024	90.751049
2866.490439	91.400000
2867.797189	92.469930
2869.102176	88.009790
2870.406950	89.630769
2871.709962	89.201399
2873.015856	90.090909
2874.316894	91.755245
2875.619267	88.197203
2876.919880	82.751049
2878.221827	79.408392
2879.523561	74.179021
2880.821990	75.949650
2882.121754	76.567832
2883.419759	76.648951
2884.717553	75.226573
2886.013591	79.093706
2887.310962	81.888112
2888.606577	86.700699
2889.901981	86.946853
2891.197175	84.444755
2892.489070	86.061538
2893.783842	85.506294
2895.075317	83.462937
2896.368125	87.179021
2897.660723	87.532867
2898.950027	90.362238
2900.240663	89.380420
2901.529548	91.958042
2902.819766	93.086713
2904.106692	92.763636
2905.394950	90.011189
2906.681458	85.135664
2907.967759	84.088112
2909.253851	82.275524
2910.538195	81.027972
2911.825411	81.695105
2913.107799	82.241958
2914.391520	87.152448
2915.673495	88.402797
2916.955263	92.643357
2918.235285	96.174825
2919.518177	96.341259
2920.799324	93.279720
2922.077189	89.966434
2923.357923	88.791608
2924.635376	87.475524
2925.912623	84.286713
2927.188129	82.468531
2928.466502	79.006993
2929.740060	79.840559
2931.016486	79.241958
2932.291171	80.398601
2933.564116	83.633566
2934.838391	84.194406
2936.110927	81.937063
2937.383259	82.904895
2938.652317	78.815385
2939.924241	78.868531
2941.194427	75.636364
2942.464410	77.489510
2943.734189	74.601399
2945.002231	75.911888
2946.268538	76.725874
2947.534642	83.202797
2948.802076	85.808392
2950.067776	87.716084
2951.333273	84.285315
2952.598568	82.002797
2953.860598	80.862937
2955.123959	81.131469
2956.387117	77.525874
2957.648544	76.348252
2958.911300	71.665734
2960.172325	71.430769
2961.431618	70.965035
2962.690712	74.186014
2963.949605	70.847552
2965.208298	70.955245
2966.466791	66.662937
2967.723555	66.248951
2968.980119	68.692308
2970.234956	72.662937
2971.491122	73.265734
2972.744032	74.020979
2973.998272	74.900699
2975.252313	74.976224
2976.504628	74.086713
2977.756745	74.537063
2979.007137	71.006993
2980.260384	68.664336
2981.508854	63.580420
2982.760178	66.062937
2984.008254	66.888112
2985.256132	75.152448
2986.503813	75.974825
2987.751298	78.506294
2988.997061	77.131469
2990.242627	74.791608
2991.489521	74.037762
2992.733171	69.674126
2993.978149	64.255944
2995.219884	59.496503
2996.464470	56.648951
2997.707336	62.282517
2998.946962	65.290909
3000.189438	71.062937
3001.428675	72.668531
3002.669239	76.317483
3003.908086	78.577622
3005.146739	80.422378
3006.383676	82.889510
3007.621940	79.676923
3008.858490	79.678322
3010.094845	74.868531
3011.331007	71.057343
3012.565456	71.113287
3013.799711	68.202797
3015.033773	69.676923
3016.266123	66.591608
3017.496761	70.469930
3018.730245	70.079720
3019.962017	71.079720
3021.192079	73.640559
3022.421949	76.980420
3023.650109	77.682517
3024.879595	73.937063
3026.107373	71.766434
3027.334959	68.534266
3028.563871	68.696503
3029.788041	68.788811
3031.015054	63.492308
3032.238843	64.928671
3033.463959	60.323077
3034.687368	63.121678
3035.910588	67.132867
3037.132102	70.328671
3038.356457	67.265734
3039.576077	68.061538
3040.797022	69.247552
3042.017779	67.598601
3043.236832	69.064336
3044.457211	68.076923
3045.674373	64.802797
3046.892860	61.657343
3048.109646	62.924476
3049.326243	63.837762
3050.542652	63.827972
3051.755849	64.833566
3052.971883	64.391608
3054.184705	67.341259
3055.400364	69.047552
3056.611300	72.365035
3057.823561	76.773427
3059.035636	79.006993
3060.247524	76.871329
3061.457714	75.050350
3062.667718	75.051748
3063.877537	70.699301
3065.085659	70.102098
3066.293595	71.969231
3067.499837	68.132867
3068.707402	65.997203
3069.913274	65.193007
3071.118960	70.180420
3072.324461	71.167832
3073.528269	74.240559
3074.733401	71.527273
3075.936841	70.422378
3077.138588	68.142657
3078.340152	69.117483
3079.541532	69.096503
3080.742728	66.053147
3081.942234	61.025175
3083.141556	60.594406
3084.342202	61.183217
3085.541158	64.946853
3086.736920	64.400000
3087.935511	64.662937
3089.130908	60.050350
3090.327628	59.444755
3091.521156	59.510490
3092.717513	60.735664
3093.912182	57.179021
3095.103661	53.864336
3096.299471	51.738462
3097.490588	48.861538
3098.683027	48.636364
3099.872279	52.731469
3101.064357	53.777622
3102.254750	54.471329
3103.441958	58.763636
3104.630489	59.411189
3105.820342	58.503497
3107.007010	62.553846
3108.193499	62.651748
3109.379808	62.339860
3110.567439	59.977622
3111.751889	62.106294
3112.934658	64.088112
3114.120251	68.948252
3115.304163	66.874126
3116.486397	70.132867
3117.668452	69.686713
3118.850330	65.188811
3120.032029	63.370629
3121.212050	66.840559
3122.390395	68.269930
3123.571561	71.609790
3124.749551	71.300699
3125.927364	73.809790
3127.105000	69.142657
3128.280961	69.834965
3129.456745	66.681119
3130.633851	67.739860
3131.809282	64.230769
3132.983040	60.405594
3134.155126	58.342657
3135.328532	59.123077
3136.501763	58.360839
3137.673321	60.682517
3138.846201	58.758042
3140.015913	61.446154
3141.186946	60.032168
3142.356308	61.426573
3143.524001	62.402797
3144.694509	63.682517
3145.860358	64.767832
3147.030517	62.258741
3148.196018	62.888112
3149.361346	65.100699
3150.526500	63.335664
3151.691480	66.966434
3152.857781	67.200000
3154.019428	69.264336
3155.182396	64.479720
3156.345190	60.502098
3157.507812	59.109091
3158.668769	58.076923
3159.829553	54.406993
3160.990165	50.819580
3162.149114	46.718881
3163.307890	49.366434
3164.466495	51.937063
3165.624928	57.753846
3166.783189	59.075524
3167.939788	61.695105
3169.094726	61.765035
3170.250983	65.393007
3171.405580	68.183217
3172.560005	66.088112
3173.712771	63.756643
3174.865367	59.885315
3176.017792	57.015385
3177.170048	60.008392
3178.322134	60.949650
3179.471073	67.545455
3180.622819	65.113287
3181.772907	67.271329
3182.921339	67.671329
3184.069602	73.029371
3185.217695	72.752448
3186.365620	72.026573
3187.511890	70.370629
3188.657991	68.041958
3189.802437	65.369231
3190.946716	62.243357
3192.090827	61.404196
3193.236256	67.246154
3194.378545	61.952448
3195.520668	60.899301
3196.662623	62.124476
3197.804412	68.465734
3198.946033	71.138462
3200.084518	75.858741
3201.224321	76.006993
3202.365442	78.786014
3203.503428	76.647552
3204.639765	76.250350
3205.775936	74.176224
3206.913425	77.474126
3208.049264	70.486713
3209.186421	68.965035
3210.318965	66.969231
3211.455791	66.797203
3212.588005	65.654545
3213.721537	67.040559
3214.854903	66.945455
3215.985142	68.353846
3217.118179	67.790210
3218.248090	68.805594
3219.379318	69.281119
3220.507420	76.745455
3221.638319	76.979021
3222.767575	77.170629
3223.895186	73.911888
3225.019676	73.583217
3226.148441	70.590210
3227.274084	68.100699
3228.399564	61.146853
3229.523403	60.953846
3230.650036	55.558042
3231.772072	54.602797
3232.895424	55.934266
3234.018614	60.713287
3235.141642	60.552448
3236.263030	62.676923
3237.384257	61.011189
3238.503845	61.738462
3239.623272	57.650350
3240.741061	56.179021
3241.861643	51.675524
3242.979110	53.997203
3244.096418	50.532867
3245.213564	52.071329
3246.329075	52.243357
3247.445901	54.829371
3248.559616	54.839161
3249.676122	54.875524
3250.790992	50.669930
3251.902754	50.538462
3253.014357	50.976224
3254.127274	53.916084
3255.240033	54.869930
3256.349685	57.676923
3257.460652	60.012587
3258.571459	61.334266
3259.680636	63.054545
3260.788181	62.918881
3261.897041	60.390210
3263.005742	54.979021
3264.111341	55.569231
3265.218254	54.759441
3266.323539	52.037762
3267.430137	49.393007
3268.533635	50.309091
3269.638447	49.237762
3270.743102	51.683916
3271.844658	50.668531
3272.946059	50.611189
3274.048773	48.234965
3275.151330	47.991608
3276.250792	49.914685
3277.353036	57.110490
3278.452185	56.798601
3279.549710	55.055944
3280.647079	57.159441
3281.747231	62.586014
3282.844289	57.927273
3283.941192	57.609790
3285.037941	58.167832
3286.130130	58.980420
3287.226568	58.388811
3288.321385	54.834965
3289.416046	57.325874
3290.509086	58.085315
3291.601972	58.688112
3292.693237	57.960839
3293.785815	59.306294
3294.876772	58.593007
3295.966110	51.089510
3297.055295	52.176224
3298.145793	55.538462
3299.233206	57.124476
3300.320467	56.970629
3301.409040	55.166434
3302.497460	58.851748
3303.581333	57.034965
3304.669448	56.804196
3305.754482	54.190210
3306.837899	54.516084
3307.922629	52.841958
3309.005744	50.082517
3310.090170	51.534266
3311.171518	51.993007
3312.254178	52.532867
3313.335224	50.255944
3314.416119	48.183217
3315.495401	49.346853
3316.574532	46.450350
3317.654974	45.551049
3318.732343	45.029371
3319.811022	49.948252
3320.888091	51.440559
3321.965009	50.732867
3323.040316	53.744056
3324.115474	57.213986
3325.191943	54.713287
3326.265342	56.141259
3327.338592	55.686713
3328.413153	55.570629
3329.486104	53.000000
3330.557448	48.597203
3331.630102	44.074126
3332.699689	44.048951
3333.770587	41.426573
3334.839878	41.651748
3335.910480	41.997203
3336.979475	44.981818
3338.046864	47.633566
3339.112648	59.474126
3340.182658	57.805594
3341.249605	61.636364
3342.313490	60.219580
3343.380143	57.265734
3344.445191	56.479720
3345.508636	55.731469
3346.571935	52.565035
3347.635088	47.770629
3348.698094	41.689510
3349.760953	41.448951
3350.822211	39.918881
3351.880412	46.275524
3352.942834	42.209790
3354.002199	48.409790
3355.061419	49.127273
3356.121949	51.390210
3357.177969	55.011189
3358.236754	59.163636
3359.291031	57.234965
3360.348071	54.741259
3361.403514	53.760839
3362.460265	54.581818
3363.515419	51.134266
3364.568975	54.615385
3365.620934	54.678322
3366.675655	57.611189
3367.727327	54.647552
3368.778856	54.437762
3369.831694	52.065734
3370.881484	52.538462
3371.932582	48.005594
3372.980635	48.520280
3374.031448	47.068531
3375.079215	47.889510
3376.126840	47.141259
3377.174322	48.093706
3378.220212	53.335664
3379.267410	56.316084
3380.311566	54.441958
3381.358480	57.241958
3382.403802	53.629371
3383.446084	55.234965
3384.488224	54.116084
3385.531672	53.092308
3386.574980	47.548252
3387.616697	47.307692
3388.658273	46.440559
3389.699709	43.732867
3390.739555	47.181818
3391.777814	49.353846
3392.817380	48.798601
3393.856805	51.239161
3394.894643	50.507692
3395.930895	54.379021
3396.967006	52.320280
3398.004425	49.360839
3399.038811	45.619580
3400.074504	45.861538
3401.110058	44.251748
3402.142581	43.644755
3403.177857	43.744056
3404.210102	45.475524
3405.242209	43.875524
3406.272732	44.538462
3407.304563	43.872727
3408.336254	47.569231
3409.364919	47.345455
3410.393445	47.118881
3411.423279	47.737063
3412.452974	50.366434
3413.479644	53.121678
3414.507621	57.671329
3415.532573	55.765035
3416.560275	56.644755
3417.584954	57.590210
3418.610939	63.762238
3419.635344	60.669930
3420.659613	59.314685
3421.682303	59.430769
3422.704857	59.697902
3423.728717	59.413986
3424.749557	55.876923
3425.770262	53.669331
3426.792272	51.897153
3427.811264	50.901299
3428.830121	51.022677
3429.850283	52.602198
3430.867429	55.980769
