-118.389184	-7.600000
-115.719584	-13.000000
-113.052919	-12.800000
-110.387006	-30.600000
-107.724025	9.800000
-105.059615	-5.200000
-102.398135	-6.200000
-99.735225	10.600000
-97.077423	9.600000
-94.418190	-17.200000
-91.759706	-15.400000
-89.104147	-8.400000
-86.447159	3.600000
-83.795268	-6.400000
-81.141948	14.800000
-78.491548	5.000000
-75.839718	2.400000
-73.192979	4.800000
-70.544810	-5.600000
-67.897385	18.600000
-65.252873	2.800000
-62.606933	6.600000
-59.966074	-11.000000
-57.323786	-19.200000
-54.684406	-17.800000
-52.043598	12.800000
-49.403530	13.000000
-46.768534	-20.600000
-44.132109	-46.200000
-41.498588	3.000000
-38.863638	3.000000
-36.233753	-30.800000
-33.600276	-13.400000
-30.971861	-11.800000
-28.344179	-5.000000
-25.715070	-1.600000
-23.091017	-17.400000
-20.463375	-1.600000
-17.840786	-13.400000
-15.218928	-5.800000
-12.597802	30.400000
-9.977405	51.200000
-7.359896	246.600000
-4.740959	796.000000
-2.124908	1969.800000
0.490415	2609.400000
3.105011	1597.800000
5.716724	182.000000
8.329866	18.000000
10.937974	27.400000
13.549664	6.800000
16.156323	-19.000000
18.764410	1.400000
21.371773	10.000000
23.974111	13.000000
26.580027	7.000000
29.180921	12.400000
31.783243	-7.600000
34.380548	-0.600000
36.981428	-27.200000
39.577294	0.400000
42.174587	-16.600000
44.771161	-15.400000
47.362726	-7.600000
49.955719	-4.600000
52.545851	-8.600000
55.137411	-15.600000
57.726111	-0.600000
60.316238	-20.800000
62.901367	26.400000
65.487922	-16.400000
68.073764	-2.600000
70.656752	-5.000000
73.241167	-1.600000
75.818452	1.400000
78.399304	-31.400000
80.977307	3.000000
83.554600	-1.400000
86.133319	-15.000000
88.707057	-12.400000
91.282221	1.000000
93.854542	-21.400000
96.426155	-6.200000
98.994928	-15.400000
101.565128	-21.600000
104.132490	-20.600000
106.701277	7.000000
109.267228	-2.600000
111.830344	1.000000
114.397016	14.600000
116.954467	-0.400000
119.517603	11.400000
122.075780	7.200000
124.637510	12.000000
127.194285	20.800000
129.752485	37.000000
132.305733	60.600000
134.858282	40.200000
137.414382	68.000000
139.965535	106.600000
142.515989	131.800000
145.065747	152.400000
147.612685	145.400000
150.158927	165.800000
152.706595	181.600000
155.253568	175.800000
157.795604	166.800000
160.336947	192.200000
162.877597	181.800000
165.419673	171.200000
167.958938	181.000000
170.495393	183.800000
173.031158	160.400000
175.568348	190.600000
178.104846	174.000000
180.638539	168.600000
183.169429	160.800000
185.699630	170.400000
188.231256	161.600000
190.760081	172.400000
193.286107	174.000000
195.811448	199.800000
198.338213	194.600000
200.862181	174.600000
203.385465	165.000000
205.908064	158.600000
208.427870	174.600000
210.946993	180.200000
213.465433	162.400000
215.985297	172.000000
218.498160	160.200000
221.014554	161.000000
223.530266	188.600000
226.041089	168.200000
228.553336	167.800000
231.062800	190.200000
233.571586	190.400000
236.079694	174.800000
238.589225	187.200000
241.093877	197.400000
243.597852	169.200000
246.103251	171.400000
248.603775	167.400000
251.107822	180.400000
253.604899	175.600000
256.105498	192.800000
258.603326	185.400000
261.100481	165.800000
263.596963	184.600000
266.088582	164.200000
268.583721	186.000000
271.076094	179.600000
273.567796	168.600000
276.056735	191.600000
278.547097	197.600000
281.034698	192.600000
283.519539	168.600000
286.007894	196.600000
288.489310	191.200000
290.974240	190.000000
293.454325	160.800000
295.937922	201.200000
298.416676	185.400000
300.896854	214.800000
303.374279	191.800000
305.851041	194.200000
308.327140	196.000000
310.800490	200.800000
313.273178	207.200000
315.745205	227.200000
318.216571	286.400000
320.685193	250.600000
323.153155	269.600000
325.622540	233.200000
328.087102	239.000000
330.555167	214.600000
333.018413	212.200000
335.481002	191.800000
337.942933	227.200000
340.404208	202.800000
342.862749	229.200000
345.322712	198.800000
347.779942	216.400000
350.236518	205.400000
352.692440	190.000000
355.145633	197.000000
357.600247	203.200000
360.050060	215.800000
362.503370	188.600000
364.951880	208.800000
367.399740	207.200000
369.849021	207.000000
372.293509	193.400000
374.739419	201.200000
377.184680	204.600000
379.627222	203.800000
382.069116	213.800000
384.510362	203.600000
386.948893	182.000000
389.388846	197.800000
391.826085	184.400000
394.260612	216.800000
396.698627	198.000000
399.131865	201.000000
401.566525	212.600000
403.996411	218.000000
406.429783	210.600000
408.858385	200.400000
411.286346	209.600000
413.715727	228.400000
416.140343	203.800000
418.566381	204.600000
420.991778	200.400000
423.416535	225.000000
425.836534	194.800000
428.257954	189.000000
430.676677	215.000000
433.096821	215.400000
435.514270	204.000000
437.933139	214.800000
440.349315	196.400000
442.760744	227.400000
445.175649	201.400000
447.587864	188.200000
449.999445	226.000000
452.410392	220.400000
454.818653	211.600000
457.226281	218.600000
459.633278	202.600000
462.039642	208.800000
464.443324	187.000000
466.846376	202.800000
469.248798	199.200000
471.650591	224.800000
474.049705	225.400000
476.450239	192.600000
478.850144	210.800000
481.245326	185.200000
483.643975	212.200000
486.037904	193.600000
488.431207	189.600000
490.823884	206.800000
493.215936	193.200000
495.609407	200.000000
497.998165	169.200000
500.384257	192.800000
502.771769	163.600000
505.158657	160.800000
507.542882	182.800000
509.928526	159.200000
512.311507	160.000000
514.691828	144.200000
517.073568	146.600000
519.452649	145.200000
521.833149	136.600000
524.210991	156.800000
526.586178	146.000000
528.960747	123.600000
531.336735	122.200000
533.710069	133.600000
536.084821	140.200000
538.454888	132.600000
540.824339	153.000000
543.195208	138.000000
545.561397	126.200000
547.929004	130.200000
550.293965	157.000000
552.658313	111.400000
555.022049	126.600000
557.387202	116.600000
559.747682	96.600000
562.109581	105.400000
564.468840	101.400000
566.825460	130.400000
569.185525	138.800000
571.538900	115.000000
573.895719	108.600000
576.249902	150.000000
578.603478	127.000000
580.956445	135.600000
583.306781	126.000000
585.658533	107.400000
588.003609	126.000000
590.354149	107.400000
592.698016	126.800000
595.047343	108.800000
597.392023	108.200000
599.734077	96.600000
602.077549	132.000000
604.418398	135.800000
606.758645	114.200000
609.096271	146.600000
611.437332	97.400000
613.773756	108.200000
616.111596	129.400000
618.446818	118.000000
620.779425	132.400000
623.113448	115.400000
625.444858	134.000000
627.775669	123.000000
630.105882	103.400000
632.435497	101.600000
634.760490	116.600000
637.090924	101.800000
639.416736	121.800000
641.739942	108.400000
644.064563	145.600000
646.386580	97.000000
648.708002	99.000000
651.026821	110.800000
653.347056	98.600000
655.666698	104.600000
657.983739	98.600000
660.300188	100.000000
662.614040	99.800000
664.929306	127.000000
667.241976	116.200000
669.556061	135.200000
671.865546	104.000000
674.176447	108.200000
676.484755	82.200000
678.792475	117.600000
681.101610	97.400000
683.406152	93.800000
685.710107	119.800000
688.013477	103.000000
690.318261	107.200000
692.618459	116.400000
694.920071	98.400000
697.221099	68.600000
699.517544	118.800000
701.815405	100.200000
704.112682	88.600000
706.409376	97.800000
708.701494	107.200000
710.997023	116.000000
713.287979	108.600000
715.580349	94.600000
717.870143	108.800000
720.159358	109.600000
722.447992	111.200000
724.734055	95.400000
727.021531	97.600000
729.306437	87.000000
731.590764	86.600000
733.872523	111.000000
736.155696	116.400000
738.438292	93.800000
740.716333	101.600000
742.995787	126.400000
745.274666	104.800000
747.552969	102.000000
749.826723	89.400000
752.101891	101.200000
754.376485	103.400000
756.648520	91.200000
758.921967	98.800000
761.192857	92.000000
763.461191	121.000000
765.730938	102.400000
767.998131	124.200000
770.264753	107.200000
772.530806	110.400000
774.794306	128.800000
777.059220	117.000000
779.323564	134.400000
781.583379	133.400000
783.844607	114.000000
786.105267	134.800000
788.363380	101.800000
790.618949	100.000000
792.877909	116.200000
795.130370	119.200000
797.388198	83.000000
799.641506	111.200000
801.892275	124.600000
804.144456	100.000000
806.394099	114.000000
808.645153	113.400000
810.891696	103.200000
813.139651	114.400000
815.385072	97.800000
817.631904	106.800000
819.878175	92.400000
822.119942	112.200000
824.365091	103.600000
826.603768	83.200000
828.845828	119.800000
831.083389	94.000000
833.322361	97.600000
835.558807	106.200000
837.796664	117.800000
840.031997	111.000000
842.264805	114.400000
844.499025	100.000000
846.730723	100.000000
848.961866	86.800000
851.192454	104.400000
853.422488	109.600000
855.651967	79.400000
857.876965	113.400000
860.105338	113.000000
862.329232	98.600000
864.554536	89.400000
866.775365	119.000000
868.999566	99.800000
871.219294	84.200000
873.440433	113.400000
875.661021	94.200000
877.879099	108.200000
880.098588	116.600000
882.313610	118.200000
884.528084	119.000000
886.742011	113.200000
888.955390	112.400000
891.168222	110.800000
893.380508	100.400000
895.590291	100.800000
897.799529	114.600000
900.008222	93.000000
902.214416	121.800000
904.422019	124.000000
906.627125	86.400000
908.831687	107.200000
911.033753	99.000000
913.237229	89.800000
915.438211	138.600000
917.638652	121.800000
919.840501	101.400000
922.035958	99.800000
924.234775	113.400000
926.429153	109.000000
928.626889	102.600000
930.820189	100.600000
933.014898	113.800000
935.207121	104.000000
937.398806	107.600000
939.589953	88.000000
941.778617	126.200000
943.966744	105.000000
946.152391	121.200000
948.341390	76.400000
950.525966	94.000000
952.710007	106.800000
954.897398	98.400000
957.076485	110.800000
959.258923	105.600000
961.440827	118.800000
963.620257	128.000000
965.797214	111.000000
967.975578	133.400000
970.155350	145.400000
972.328773	118.600000
974.505542	146.200000
976.677905	109.000000
978.851674	137.800000
981.021040	105.800000
983.193751	118.800000
985.363995	126.000000
987.533711	153.200000
989.702898	154.800000
991.867688	151.200000
994.035819	153.400000
996.199556	154.000000
998.364699	118.000000
1000.527384	104.600000
1002.689542	165.400000
1004.849244	109.400000
1007.008422	153.400000
1009.169006	123.800000
1011.327135	162.200000
1013.484740	125.600000
1015.641822	138.800000
1017.798381	156.800000
1019.950560	159.800000
1022.104145	160.200000
1024.257209	164.200000
1026.407825	139.400000
1028.559846	149.400000
1030.707494	144.800000
1032.858474	127.600000
1035.005083	175.200000
1037.151174	161.800000
1039.296745	165.800000
1041.443722	160.000000
1043.584411	148.600000
1045.728428	150.200000
1047.870005	162.600000
1050.011066	138.400000
1052.153531	157.600000
1054.289717	170.600000
1056.429229	136.600000
1058.564385	169.400000
1060.702866	145.200000
1062.836993	158.000000
1064.970607	163.600000
1067.105626	150.000000
1069.236295	144.400000
1071.368369	154.800000
1073.498014	155.800000
1075.627147	150.600000
1077.755768	151.600000
1079.883878	163.600000
1082.009562	126.000000
1084.134736	156.400000
1086.261314	142.800000
1088.383555	133.800000
1090.507199	158.200000
1092.626510	134.600000
1094.751049	166.400000
1096.869343	145.200000
1098.989042	116.000000
1101.106322	135.000000
1103.223096	132.800000
1105.339363	124.000000
1107.453215	134.400000
1109.568470	108.400000
1111.679403	158.000000
1113.793647	151.000000
1115.903571	137.000000
1118.014899	153.000000
1120.125722	142.800000
1122.232230	150.000000
1124.342046	140.600000
1126.447548	139.200000
1128.554453	130.800000
1130.655143	125.000000
1132.761045	120.200000
1134.862638	130.400000
1136.965634	134.000000
1139.068129	127.200000
1141.164417	148.800000
1143.265913	137.200000
1145.363106	126.400000
1147.459800	120.000000
1149.555996	146.600000
1151.651695	133.400000
1153.746896	136.000000
1155.839700	139.400000
1157.933906	128.600000
1160.021921	128.000000
1162.115134	123.200000
1164.202159	128.800000
1166.292483	134.800000
1168.378520	134.400000
1170.467854	131.000000
1172.551007	153.000000
1174.635563	140.600000
1176.721519	150.200000
1178.803194	102.400000
1180.886271	135.000000
1182.966962	124.000000
1185.047161	124.800000
1187.126869	131.800000
1189.206086	139.800000
1191.282921	140.600000
1193.357375	134.600000
1195.435121	130.400000
1197.508596	110.000000
1199.583472	148.200000
1201.654081	119.400000
1203.726092	135.000000
1205.795726	139.000000
1207.866761	128.000000
1209.937308	156.400000
1212.003594	133.400000
1214.071281	140.200000
1216.136596	133.200000
1218.203311	152.000000
1220.265770	105.200000
1222.331514	131.000000
1224.393005	133.200000
1226.455895	92.200000
1228.516418	108.800000
1230.576457	145.000000
1232.636014	122.600000
1234.693205	141.200000
1236.749915	114.000000
1238.804262	150.200000
1240.861889	163.600000
1242.917154	143.600000
1244.968178	126.200000
1247.020602	153.600000
1249.072546	129.200000
1251.122132	158.200000
1253.171239	149.600000
1255.219868	131.600000
1257.268018	135.800000
1259.315690	135.600000
1261.359131	142.200000
1263.405847	139.600000
1265.450210	153.600000
1267.494097	163.200000
1269.535633	149.800000
1271.574819	122.000000
1273.617277	146.400000
1275.655513	158.000000
1277.695148	133.400000
1279.734308	173.400000
1281.769249	121.600000
1283.805590	151.000000
1285.839585	135.800000
1287.874979	179.000000
1289.906159	157.800000
1291.938738	181.800000
1293.970844	167.400000
1296.000610	141.400000
1298.031774	179.400000
1300.058730	197.400000
1302.087084	181.400000
1304.111234	171.400000
1306.138648	173.600000
1308.161860	166.400000
1310.186470	172.200000
1312.208746	152.800000
1314.232419	188.400000
1316.253759	174.600000
1318.274631	206.200000
1320.295037	213.200000
1322.311248	233.200000
1324.328858	214.000000
1326.344139	212.600000
1328.362678	246.600000
1330.377029	248.600000
1332.389054	255.200000
1334.404336	255.000000
1336.415433	245.400000
1338.427927	233.000000
1340.436238	246.600000
1342.447805	242.200000
1344.453332	244.200000
1346.462115	232.200000
1348.466720	219.800000
1350.474579	217.200000
1352.481976	212.800000
1354.483342	183.800000
1356.486105	206.200000
1358.488407	206.600000
1360.490250	187.800000
1362.491633	184.800000
1364.490703	175.800000
1366.489314	186.000000
1368.487467	142.000000
1370.485162	156.800000
1372.478693	137.200000
1374.473621	168.800000
1376.468092	162.400000
1378.462106	137.800000
1380.453813	142.600000
1382.445064	154.000000
1384.434010	132.600000
1386.424351	140.200000
1388.414237	148.600000
1390.401820	141.400000
1392.388948	132.600000
1394.373776	160.000000
1396.359997	160.400000
1398.343919	167.800000
1400.327388	117.600000
1402.310405	131.200000
1404.291123	136.200000
1406.273237	132.400000
1408.253053	122.600000
1410.232419	132.800000
1412.207645	137.000000
1414.186111	136.800000
1416.162282	145.000000
1418.138005	117.800000
1420.113278	143.400000
1422.086260	136.000000
1424.058794	131.600000
1426.030881	138.600000
1428.002519	137.800000
1429.970029	151.000000
1431.942614	136.400000
1433.907392	124.200000
1435.877243	129.800000
1437.842969	135.600000
1439.810088	111.200000
1441.774924	135.800000
1443.735641	126.200000
1445.701425	146.200000
1447.661254	140.600000
1449.622476	99.800000
1451.585091	121.200000
1453.543591	131.600000
1455.501649	141.200000
1457.459264	165.200000
1459.416438	130.000000
1461.371336	152.600000
1463.327626	112.400000
1465.281642	145.600000
1467.235218	130.400000
1469.186521	145.000000
1471.139216	154.000000
1473.089640	144.000000
1475.039625	131.600000
1476.989170	130.600000
1478.936447	127.000000
1480.881457	143.400000
1482.827858	144.000000
1484.773823	133.800000
1486.719349	146.400000
1488.662611	128.400000
1490.605436	133.800000
1492.545998	151.400000
1494.487951	136.000000
1496.427643	126.000000
1498.366899	158.000000
1500.305720	146.600000
1502.242282	135.800000
1504.180235	162.000000
1506.115930	155.800000
1508.051191	150.600000
1509.984195	142.400000
1511.916767	172.400000
1513.848907	166.600000
1515.780615	163.000000
1517.710069	173.200000
1519.640914	160.800000
1521.571328	162.400000
1523.497668	170.800000
1525.425400	169.200000
1527.350881	177.400000
1529.275933	202.400000
1531.200556	212.200000
1533.124750	193.800000
1535.046697	231.200000
1536.970033	236.200000
1538.891124	260.800000
1540.809970	255.200000
1542.730206	279.600000
1544.648198	287.200000
1546.565764	352.600000
1548.481088	381.000000
1550.397802	453.400000
1552.310461	523.800000
1554.226324	588.000000
1556.139947	640.600000
1558.051333	741.600000
1559.964107	792.600000
1561.872832	854.000000
1563.782947	864.000000
1565.692638	857.400000
1567.601905	836.200000
1569.508939	767.600000
1571.413740	731.000000
1573.319930	680.000000
1575.223888	600.600000
1577.127426	516.600000
1579.030542	493.000000
1580.931430	428.000000
1582.833705	378.200000
1584.733753	350.800000
1586.635188	338.200000
1588.532590	282.800000
1590.429573	298.400000
1592.326138	278.000000
1594.224091	259.000000
1596.116209	245.200000
1598.011520	247.000000
1599.906414	218.400000
1601.799086	227.200000
1603.691342	230.400000
1605.581377	185.800000
1607.470998	208.600000
1609.360202	186.800000
1611.248992	191.800000
1613.135565	175.800000
1615.023524	179.200000
1616.907467	186.400000
1618.792798	179.000000
1620.677714	174.800000
1622.560417	162.000000
1624.444507	154.600000
1626.324586	171.200000
1628.206051	143.600000
1630.085306	144.800000
1631.965947	148.600000
1633.840784	128.400000
1635.720603	135.600000
1637.596416	130.600000
1639.471819	126.800000
1641.348609	147.200000
1643.219601	151.000000
1645.093775	120.400000
1646.963951	132.800000
1648.837307	157.200000
1650.708460	125.800000
1652.577411	125.000000
1654.447748	125.000000
1656.314091	122.200000
1658.181820	122.800000
1660.047351	145.800000
1661.914266	152.200000
1663.777193	130.600000
1665.641505	137.400000
1667.503621	140.200000
1669.365333	119.000000
1671.228429	141.200000
1673.089331	123.200000
1674.948039	78.600000
1676.806344	127.800000
1678.666034	122.600000
1680.519957	142.600000
1682.377052	119.000000
1684.233745	117.000000
1686.086462	109.000000
1687.942349	108.200000
1689.794263	124.000000
1691.645776	138.000000
1693.496888	109.200000
1695.347600	116.400000
1697.197911	90.200000
1699.046038	106.800000
1700.895548	120.200000
1702.739310	132.200000
1704.588021	96.400000
1706.430987	119.800000
1708.277118	116.200000
1710.119288	117.800000
1711.964622	132.400000
1713.804216	128.400000
1715.645194	134.200000
1717.487555	105.200000
1719.325960	115.600000
1721.165748	121.000000
1723.003361	91.400000
1724.840578	126.600000
1726.675622	145.400000
1728.512049	110.200000
1730.346304	119.600000
1732.180164	119.200000
1734.013631	102.800000
1735.843151	117.000000
1737.675830	112.400000
1739.504565	113.800000
1741.336458	102.400000
1743.164408	103.000000
1744.991966	125.000000
1746.819132	105.000000
1748.645907	121.800000
1750.472291	97.600000
1752.294738	118.800000
1754.120339	95.600000
1755.942006	109.000000
1757.765055	122.600000
1759.585943	92.600000
1761.406441	94.200000
1763.228321	105.200000
1765.044501	102.800000
1766.863833	119.000000
1768.679238	108.600000
1770.497793	111.600000
1772.312423	102.800000
1774.126667	89.200000
1775.940523	111.600000
1777.753993	111.400000
1779.565310	108.800000
1781.378008	110.400000
1783.190319	106.000000
1784.998713	83.800000
1786.808488	119.200000
1788.614347	94.600000
1790.423352	110.800000
1792.228444	120.400000
1794.034917	114.400000
1795.841006	84.400000
1797.643185	97.600000
1799.448507	102.800000
1801.249921	106.600000
1803.052715	107.200000
1804.851603	127.600000
1806.651872	105.000000
1808.451759	105.200000
1810.249505	106.600000
1812.046869	88.000000
1813.843854	115.600000
1815.640458	100.600000
1817.434923	101.600000
1819.230767	88.600000
1821.020957	106.600000
1822.816043	96.000000
1824.605476	125.600000
1826.398046	100.200000
1828.188481	136.000000
1829.976782	111.200000
1831.768218	109.000000
1833.554008	99.200000
1835.341178	109.800000
1837.126216	106.200000
1838.914388	136.600000
1840.698674	80.400000
1842.480831	81.400000
1844.264366	98.600000
1846.045773	87.400000
1847.828559	104.600000
1849.607465	102.800000
1851.387749	104.400000
1853.165907	119.000000
1854.945444	105.000000
1856.722856	105.800000
1858.498144	130.000000
1860.274811	111.800000
1862.049354	109.400000
1863.825276	112.800000
1865.595578	115.800000
1867.369006	127.800000
1869.140315	115.800000
1870.911254	87.000000
1872.683569	121.000000
1874.450272	108.400000
1876.220099	134.200000
1877.986063	99.600000
1879.755151	103.200000
1881.520377	101.800000
1883.285234	95.800000
1885.051469	115.200000
1886.813845	109.000000
1888.575854	111.200000
1890.337495	96.400000
1892.098770	105.000000
1893.859677	94.400000
1895.620218	119.600000
1897.378649	106.800000
1899.136715	88.200000
1900.892672	103.800000
1902.650007	127.000000
1904.406975	117.400000
1906.161838	110.200000
1907.914595	100.400000
1909.666989	94.600000
1911.420758	113.000000
1913.172424	101.600000
1914.921988	102.600000
1916.672928	90.800000
1918.423504	95.400000
1920.170241	123.400000
1921.918355	108.800000
1923.664369	80.200000
1925.411759	105.800000
1927.157050	94.800000
1928.900244	131.000000
1930.644814	87.400000
1932.387287	108.200000
1934.129400	98.600000
1935.871153	117.600000
1937.612547	81.600000
1939.351847	97.600000
1941.090787	79.200000
1942.829370	113.400000
1944.565860	114.600000
1946.301993	107.200000
1948.039500	99.800000
1949.773185	85.800000
1951.508245	109.000000
1953.241217	107.400000
1954.973832	87.200000
1956.706090	108.800000
1958.437992	117.800000
1960.167808	115.800000
1961.895540	85.000000
1963.624645	102.600000
1965.353396	108.600000
1967.080063	109.800000
1968.806376	73.000000
1970.534062	93.600000
1972.256212	95.800000
1973.981463	94.000000
1975.702908	104.000000
1977.427452	114.400000
1979.149917	80.200000
1980.868578	96.000000
1982.590338	89.200000
1984.308296	120.200000
1986.027627	96.600000
1987.743159	110.600000
1989.463512	112.000000
1991.180065	117.400000
1992.892823	90.400000
1994.608676	116.400000
1996.322456	77.000000
1998.035887	142.000000
1999.747247	69.200000
2001.459980	131.000000
2003.168921	105.400000
2004.880956	94.200000
2006.587481	108.200000
2008.297099	83.600000
2010.004649	111.400000
2011.711852	99.200000
2013.416989	85.400000
2015.121779	128.800000
2016.827941	89.200000
2018.530321	118.200000
2020.234073	133.400000
2021.935761	110.600000
2023.637105	116.800000
2025.338103	92.800000
2027.037041	100.000000
2028.737349	116.600000
2030.433883	83.200000
2032.131788	114.200000
2033.827634	108.200000
2035.526566	99.000000
2037.220012	119.400000
2038.914830	107.400000
2040.609304	80.400000
2042.300010	105.200000
2043.993800	90.600000
2045.683823	113.600000
2047.375217	107.400000
2049.064558	110.800000
2050.755269	94.400000
2052.442218	98.400000
2054.128826	96.600000
2055.816805	87.400000
2057.501024	99.600000
2059.186613	94.000000
2060.871863	98.000000
2062.555065	109.600000
2064.239636	93.600000
2065.918745	92.400000
2067.602639	81.400000
2069.281073	111.600000
2070.962583	115.400000
2072.640343	101.600000
2074.317765	99.800000
2075.996558	116.200000
2077.673307	104.000000
2079.348015	101.600000
2081.024092	113.400000
2082.698129	110.200000
2084.371830	86.800000
2086.045196	112.800000
2087.716524	79.400000
2089.387517	114.400000
2091.058176	140.800000
2092.728500	89.600000
2094.398491	104.200000
2096.066446	98.400000
2097.734068	78.800000
2099.399655	104.600000
2101.066612	112.200000
2102.731534	90.600000
2104.396125	109.600000
2106.058684	85.000000
2107.722611	122.800000
2109.384508	107.200000
2111.046073	85.200000
2112.707307	85.000000
2114.366513	123.800000
2116.025388	96.400000
2117.683934	94.600000
2119.342150	72.800000
2120.996642	92.600000
2122.654199	93.200000
2124.311427	89.400000
2125.964933	109.800000
2127.619807	111.000000
2129.270963	98.400000
2130.925180	115.200000
2132.575681	95.000000
2134.227548	109.400000
2135.874007	103.400000
2137.525221	86.000000
2139.172721	96.000000
2140.821588	118.800000
2142.468437	122.600000
2144.114959	122.400000
2145.761156	95.800000
2147.403645	95.600000
2149.049192	76.400000
2150.691032	82.800000
2152.335929	99.800000
2153.977121	105.000000
2155.617989	103.200000
2157.258533	98.000000
2158.897065	118.000000
2160.536964	100.000000
2162.173162	99.800000
2163.810726	86.000000
2165.447967	104.000000
2167.083199	98.800000
2168.718110	102.600000
2170.352699	119.600000
2171.986966	124.800000
2173.617541	110.000000
2175.251166	94.800000
2176.881100	100.800000
2178.512399	116.000000
2180.141694	109.800000
2181.770668	105.600000
2183.399324	114.800000
2185.027660	101.800000
2186.653993	70.400000
2188.280008	137.200000
2189.904022	106.000000
2191.529400	100.600000
2193.152779	120.400000
2194.777521	110.400000
2196.398583	102.600000
2198.019328	103.600000
2199.641438	111.400000
2201.261550	109.800000
2202.879665	77.600000
2204.497465	86.000000
2206.114950	97.000000
2207.732119	93.000000
2209.348973	122.400000
2210.965512	100.200000
2212.580057	76.200000
2214.192610	113.800000
2215.806527	95.200000
2217.418453	96.600000
2219.031742	103.000000
2220.643041	113.400000
2222.252350	109.400000
2223.863023	71.800000
2225.471707	112.400000
2227.080079	110.000000
2228.686463	100.200000
2230.294211	95.400000
2231.899972	91.000000
2233.505422	100.200000
2235.108887	109.200000
2236.713716	95.000000
2238.316560	115.800000
2239.917421	106.400000
2241.519645	109.800000
2243.119886	96.800000
2244.721490	94.600000
2246.319442	139.400000
2247.918756	118.600000
2249.516090	108.400000
2251.113115	82.800000
2252.711503	123.400000
2254.306242	93.000000
2255.899004	97.200000
2257.493129	102.600000
2259.088615	89.800000
2260.680457	126.800000
2262.271992	88.800000
2263.864888	79.800000
2265.452475	97.600000
2267.044759	105.600000
2268.631735	93.800000
2270.221740	117.200000
2271.806440	122.200000
2273.395834	117.400000
2274.979925	113.800000
2276.565378	89.800000
2278.148861	116.000000
2279.735371	81.600000
2281.318247	98.600000
2282.900819	100.400000
2284.483088	118.400000
2286.061728	109.600000
2287.643391	101.000000
2289.221426	112.000000
2290.802484	110.600000
2292.379916	96.600000
2293.955383	82.600000
2295.533873	87.800000
2297.108739	82.800000
2298.683304	64.200000
2300.257569	105.000000
2301.831533	91.000000
2303.405197	95.800000
2304.978560	94.600000
2306.548305	105.200000
2308.117751	111.400000
2309.690216	107.200000
2311.257405	88.600000
2312.827613	84.400000
2314.394206	86.000000
2315.962159	107.400000
2317.528156	109.000000
2319.093856	97.400000
2320.659259	96.400000
2322.222707	89.200000
2323.787515	114.600000
2325.348715	88.000000
2326.912929	105.400000
2328.471882	124.800000
2330.033848	107.000000
2331.593864	96.400000
2333.153584	75.800000
2334.711355	107.400000
2336.268831	101.600000
2337.826013	96.600000
2339.381248	107.400000
2340.936188	92.000000
2342.490835	86.600000
2344.045188	96.000000
2345.599247	104.800000
2347.153012	98.400000
2348.704834	100.600000
2350.254712	101.000000
2351.807598	82.000000
2353.355242	122.000000
2354.905893	125.200000
2356.452954	90.000000
2358.001372	106.600000
2359.549498	92.600000
2361.094036	105.200000
2362.639933	79.600000
2364.183890	113.200000
2365.729205	103.200000
2367.270935	81.600000
2368.814022	87.000000
2370.355174	89.400000
2371.896036	107.400000
2373.436609	107.000000
2374.976893	78.200000
2376.516887	88.200000
2378.053304	105.600000
2379.592722	115.000000
2381.128563	143.200000
2382.665760	80.400000
2384.199382	120.400000
2385.736005	96.200000
2387.270696	104.400000
2388.803458	99.600000
2390.335933	118.200000
2391.866481	98.000000
2393.400026	110.800000
2394.928360	97.000000
2396.458050	125.600000
2397.987455	122.000000
2399.516574	117.000000
2401.045409	121.400000
2402.569038	110.000000
2404.097304	109.600000
2405.620366	84.000000
2407.148062	120.600000
2408.668919	112.600000
2410.194409	97.000000
2411.716338	119.200000
2413.239623	99.800000
2414.760987	96.000000
2416.280431	108.200000
2417.801230	113.200000
2419.320110	126.400000
2420.838708	133.000000
2422.355389	89.800000
2423.873424	125.800000
2425.391178	121.400000
2426.905381	121.400000
2428.419303	110.600000
2429.932945	109.800000
2431.447942	111.400000
2432.959390	105.000000
2434.472193	129.200000
2435.983083	128.600000
2437.493693	108.800000
2439.002392	96.800000
2440.514078	105.200000
2442.022219	96.800000
2443.530083	118.400000
2445.037669	111.600000
2446.541714	113.000000
2448.048745	115.600000
2449.553867	132.400000
2451.058712	138.800000
2452.561650	139.000000
2454.064311	101.000000
2455.566696	100.800000
2457.067176	120.400000
2458.569009	104.200000
2460.068938	102.200000
2461.568591	102.200000
2463.067968	97.800000
2464.565443	111.000000
2466.061017	104.600000
2467.559570	111.600000
2469.054594	90.200000
2470.550972	111.600000
2472.043823	83.800000
2473.538026	98.000000
2475.031956	104.600000
2476.522363	116.200000
2478.015746	115.000000
2479.507232	118.800000
2480.996821	99.000000
2482.486138	124.600000
2483.973560	81.200000
2485.463957	88.800000
2486.950835	106.400000
2488.439065	90.600000
2489.923779	98.400000
2491.408222	104.200000
2492.894017	118.000000
2494.377919	98.800000
2495.863173	85.800000
2497.343293	124.200000
2498.826385	94.200000
2500.307587	95.200000
2501.788520	108.600000
2503.267564	126.000000
2504.746339	116.400000
2506.224846	121.600000
2507.703085	87.200000
2509.181055	95.000000
2510.655521	81.600000
2512.132955	110.400000
2513.606886	108.200000
2515.082168	113.400000
2516.557182	124.200000
2518.028695	91.200000
2519.501558	120.800000
2520.972539	80.000000
2522.444870	133.000000
2523.912088	110.400000
2525.382271	101.600000
2526.850574	108.600000
2528.318612	105.400000
2529.786385	120.800000
2531.253893	112.000000
2532.721136	118.000000
2534.184887	115.400000
2535.649988	121.200000
2537.113212	116.200000
2538.577786	114.000000
2540.038870	123.000000
2541.501304	110.400000
2542.963475	89.000000
2544.422160	121.800000
2545.885417	118.600000
2547.343577	87.200000
2548.803086	114.000000
2550.257502	86.000000
2551.716487	138.800000
2553.173601	109.200000
2554.628844	117.200000
2556.083826	118.200000
2557.536938	119.800000
2558.991399	113.400000
2560.443991	107.600000
2561.896323	101.800000
2563.346787	128.400000
2564.800207	120.400000
2566.248545	112.400000
2567.699839	83.400000
2569.149266	109.200000
2570.595221	119.600000
2572.044132	95.200000
2573.489571	128.400000
2574.936359	96.800000
2576.381283	121.800000
2577.825950	132.800000
2579.271964	128.400000
2580.714511	120.800000
2582.158406	133.200000
2583.598836	105.000000
2585.040613	117.400000
2586.480531	131.800000
2587.921796	147.200000
2589.359600	99.600000
2590.800353	124.400000
2592.236043	117.200000
2593.674683	101.800000
2595.111466	142.800000
2596.546392	113.400000
2597.984267	135.200000
2599.417083	157.600000
2600.851247	135.800000
2602.283557	133.800000
2603.717213	131.200000
2605.149016	128.200000
2606.580566	137.800000
2608.011862	140.400000
2609.441306	132.200000
2610.870499	139.400000
2612.297840	141.600000
2613.726528	146.200000
2615.154963	133.200000
2616.579951	150.400000
2618.006286	131.600000
2619.430772	156.000000
2620.856604	127.600000
2622.278992	163.600000
2623.702726	157.800000
2625.124613	160.800000
2626.546251	175.400000
2627.966043	170.400000
2629.387181	175.200000
2630.808069	155.800000
2632.225519	199.800000
2633.645908	191.200000
2635.062860	193.000000
2636.479564	186.600000
2637.896019	193.400000
2639.312226	203.400000
2640.728184	205.000000
2642.142302	227.400000
2643.556173	196.200000
2644.968204	207.800000
2646.381580	211.600000
2647.791526	213.400000
2649.204407	195.600000
2650.613861	199.000000
2652.023068	224.600000
2653.430439	203.800000
2654.840744	251.600000
2656.249213	240.200000
2657.655847	244.800000
2659.062236	247.600000
2660.466791	250.200000
2661.872690	204.600000
2663.276756	261.200000
2664.680578	285.800000
2666.084155	220.200000
2667.485900	281.400000
2668.888989	267.200000
2670.288661	299.400000
2671.689675	266.600000
2673.087274	273.800000
2674.487803	238.600000
2675.884917	260.600000
2677.283374	270.000000
2678.680003	258.200000
2680.076390	291.200000
2681.472536	268.800000
2682.866855	253.000000
2684.262517	284.400000
2685.654769	268.000000
2687.048365	289.800000
2688.440136	259.600000
2689.833249	255.000000
2691.224539	229.000000
2692.614006	240.400000
2694.003233	245.000000
2695.392221	259.000000
2696.782551	242.600000
2698.167896	246.000000
2699.556165	233.600000
2700.942614	192.200000
2702.328824	241.000000
2703.714796	235.200000
2705.097368	227.000000
2706.481283	182.200000
2707.864960	207.600000
2709.248399	210.200000
2710.628442	221.600000
2712.009827	179.000000
2713.389396	168.600000
2714.770307	174.200000
2716.149403	196.200000
2717.526684	167.000000
2718.905307	164.200000
2720.282117	182.800000
2721.658691	139.000000
2723.035029	167.400000
2724.409555	163.800000
2725.785422	175.400000
2727.157902	144.800000
2728.533298	148.000000
2729.903734	130.800000
2731.275511	143.000000
2732.647053	134.000000
2734.016787	137.800000
2735.387862	135.400000
2736.757129	119.400000
2738.126162	129.400000
2739.493388	134.600000
2740.860382	125.600000
2742.227143	134.000000
2743.593671	131.400000
2744.958394	137.200000
2746.322886	100.200000
2747.687145	110.600000
2749.051172	130.600000
2750.414968	100.800000
2751.775390	99.400000
2753.138723	85.800000
2754.497113	133.200000
2755.858413	108.600000
2757.216342	103.200000
2758.577181	120.800000
2759.936219	118.000000
2761.291889	95.200000
2762.650467	98.200000
2764.005679	96.000000
2765.360661	109.400000
2766.713846	92.800000
2768.069938	116.200000
2769.422666	131.000000
2770.775165	126.800000
2772.127436	98.000000
2773.481046	105.800000
2774.831294	123.400000
2776.179749	109.600000
2777.531108	102.600000
2778.879108	98.000000
2780.228447	108.000000
2781.575993	115.400000
2782.923312	93.000000
2784.270405	111.400000
2785.615707	103.800000
2786.960783	86.400000
2788.305633	89.400000
2789.650256	90.400000
2790.991528	93.000000
2792.334138	96.000000
2793.676522	96.200000
2795.018682	117.600000
2796.357492	87.600000
2797.699201	114.800000
2799.037563	93.000000
2800.377262	90.200000
2801.715175	107.600000
2803.051304	80.200000
2804.387209	104.400000
2805.724452	108.600000
2807.059911	63.000000
2808.395147	92.800000
2809.728600	83.400000
2811.063391	83.000000
2812.394840	95.200000
2813.729185	89.200000
2815.058632	82.600000
2816.389416	92.000000
2817.719978	96.200000
2819.048761	82.800000
2820.378880	88.400000
2821.707221	97.200000
2823.035341	70.800000
2824.361684	101.200000
2825.689362	108.200000
2827.013708	75.600000
2828.339389	81.200000
2829.663295	88.000000
2830.986982	101.000000
2832.312004	79.000000
2833.633696	102.000000
2834.955170	80.000000
2836.276425	93.000000
2837.597461	101.800000
2838.916725	64.600000
2840.237324	92.200000
2841.556151	118.200000
2842.874760	118.000000
2844.191598	91.400000
2845.508220	93.000000
2846.824623	69.600000
2848.139258	74.800000
2849.455227	80.600000
2850.767876	84.400000
2852.081861	90.200000
2853.395628	62.600000
2854.709180	98.000000
2856.020964	73.400000
2857.330982	87.400000
2858.642335	81.600000
2859.950373	82.800000
2861.259746	80.400000
2862.568903	87.800000
2863.877845	104.000000
2865.185024	97.000000
2866.490439	86.400000
2867.797189	70.800000
2869.102176	97.400000
2870.406950	86.200000
2871.709962	126.000000
2873.015856	101.000000
2874.316894	82.200000
2875.619267	88.200000
2876.919880	114.800000
2878.221827	87.800000
2879.523561	98.600000
2880.821990	82.000000
2882.121754	83.400000
2883.419759	92.200000
2884.717553	74.600000
2886.013591	81.400000
2887.310962	98.200000
2888.606577	90.000000
2889.901981	83.600000
2891.197175	84.400000
2892.489070	82.200000
2893.783842	106.800000
2895.075317	85.200000
2896.368125	67.400000
2897.660723	92.200000
2898.950027	73.600000
2900.240663	97.800000
2901.529548	98.200000
2902.819766	86.600000
2904.106692	91.600000
2905.394950	106.800000
2906.681458	98.600000
2907.967759	87.000000
2909.253851	92.600000
2910.538195	85.400000
2911.825411	47.000000
2913.107799	74.400000
2914.391520	85.400000
2915.673495	74.200000
2916.955263	87.600000
2918.235285	83.600000
2919.518177	81.600000
2920.799324	83.600000
2922.077189	91.800000
2923.357923	64.600000
2924.635376	99.400000
2925.912623	87.600000
2927.188129	96.200000
2928.466502	56.600000
2929.740060	72.600000
2931.016486	58.000000
2932.291171	70.400000
2933.564116	100.000000
2934.838391	84.200000
2936.110927	95.200000
2937.383259	107.600000
2938.652317	83.000000
2939.924241	55.800000
2941.194427	82.000000
2942.464410	85.800000
2943.734189	98.600000
2945.002231	79.400000
2946.268538	85.200000
2947.534642	100.000000
2948.802076	101.400000
2950.067776	84.400000
2951.333273	70.800000
2952.598568	82.800000
2953.860598	88.000000
2955.123959	77.400000
2956.387117	65.000000
2957.648544	48.000000
2958.911300	28.000000
2960.172325	85.200000
2961.431618	81.200000
2962.690712	54.000000
2963.949605	64.600000
2965.208298	75.000000
2966.466791	70.600000
2967.723555	64.000000
2968.980119	64.200000
2970.234956	64.600000
2971.491122	71.000000
2972.744032	58.800000
2973.998272	75.200000
2975.252313	71.600000
2976.504628	89.000000
2977.756745	69.400000
2979.007137	70.600000
2980.260384	64.000000
2981.508854	74.600000
2982.760178	77.200000
2984.008254	69.600000
2985.256132	76.200000
2986.503813	61.200000
2987.751298	78.800000
2988.997061	95.400000
2990.242627	77.400000
2991.489521	83.600000
2992.733171	75.200000
2993.978149	65.600000
2995.219884	81.600000
2996.464470	73.400000
2997.707336	85.000000
2998.946962	54.000000
3000.189438	79.600000
3001.428675	71.200000
3002.669239	79.200000
3003.908086	98.000000
3005.146739	80.000000
3006.383676	74.400000
3007.621940	105.600000
3008.858490	97.800000
3010.094845	80.800000
3011.331007	69.000000
3012.565456	75.000000
3013.799711	70.200000
3015.033773	83.000000
3016.266123	55.800000
3017.496761	60.000000
3018.730245	63.400000
3019.962017	73.600000
3021.192079	76.000000
3022.421949	57.400000
3023.650109	74.000000
3024.879595	47.600000
3026.107373	75.800000
3027.334959	86.800000
3028.563871	66.000000
3029.788041	59.400000
3031.015054	50.200000
3032.238843	63.400000
3033.463959	48.200000
3034.687368	88.200000
3035.910588	37.200000
3037.132102	55.400000
3038.356457	69.200000
3039.576077	71.000000
3040.797022	69.600000
3042.017779	49.000000
3043.236832	47.000000
3044.457211	67.600000
3045.674373	64.600000
3046.892860	50.800000
3048.109646	56.600000
3049.326243	54.200000
3050.542652	65.000000
3051.755849	36.600000
3052.971883	53.000000
3054.184705	66.200000
3055.400364	55.000000
3056.611300	63.800000
3057.823561	74.400000
3059.035636	90.000000
3060.247524	52.200000
3061.457714	54.200000
3062.667718	75.200000
3063.877537	110.200000
3065.085659	67.600000
3066.293595	67.600000
3067.499837	52.400000
3068.707402	70.400000
3069.913274	71.500000
3071.118960	72.600000
3072.324461	71.000000
3073.528269	67.200000
3074.733401	83.200000
3075.936841	57.400000
3077.138588	56.000000
3078.340152	73.800000
3079.541532	74.600000
3080.742728	47.400000
3081.942234	57.000000
3083.141556	67.000000
3084.342202	58.800000
3085.541158	52.000000
3086.736920	61.400000
3087.935511	84.000000
3089.130908	63.400000
3090.327628	65.000000
3091.521156	36.000000
3092.717513	40.600000
3093.912182	54.000000
3095.103661	45.400000
3096.299471	59.200000
3097.490588	57.200000
3098.683027	35.600000
3099.872279	47.600000
3101.064357	28.400000
3102.254750	49.000000
3103.441958	60.200000
3104.630489	91.200000
3105.820342	60.200000
3107.007010	57.200000
3108.193499	65.400000
3109.379808	63.400000
3110.567439	34.400000
3111.751889	58.400000
3112.934658	79.400000
3114.120251	78.600000
3115.304163	51.600000
3116.486397	53.000000
3117.668452	73.000000
3118.850330	52.200000
3120.032029	66.800000
3121.212050	70.400000
3122.390395	53.200000
3123.571561	62.600000
3124.749551	55.200000
3125.927364	79.000000
3127.105000	65.000000
3128.280961	57.200000
3129.456745	63.200000
3130.633851	56.600000
3131.809282	69.000000
3132.983040	64.000000
3134.155126	76.000000
3135.328532	69.400000
3136.501763	52.600000
3137.673321	49.600000
3138.846201	64.200000
3140.015913	70.000000
3141.186946	68.600000
3142.356308	58.600000
3143.524001	90.600000
3144.694509	63.200000
3145.860358	68.800000
3147.030517	50.000000
3148.196018	80.800000
3149.361346	54.000000
3150.526500	84.200000
3151.691480	70.800000
3152.857781	51.000000
3154.019428	78.200000
3155.182396	49.200000
3156.345190	38.200000
3157.507812	66.800000
3158.668769	63.800000
3159.829553	72.400000
3160.990165	76.200000
3162.149114	72.800000
3163.307890	39.400000
3164.466495	56.200000
3165.624928	80.000000
3166.783189	58.400000
3167.939788	55.400000
3169.094726	86.000000
3170.250983	65.600000
3171.405580	66.000000
3172.560005	46.000000
3173.712771	69.400000
3174.865367	80.200000
3176.017792	67.600000
3177.170048	71.400000
3178.322134	49.600000
3179.471073	81.400000
3180.622819	54.200000
3181.772907	85.400000
3182.921339	60.800000
3184.069602	51.600000
3185.217695	85.600000
3186.365620	71.200000
3187.511890	60.000000
3188.657991	62.400000
3189.802437	70.600000
3190.946716	57.000000
3192.090827	59.200000
3193.236256	57.400000
3194.378545	68.600000
3195.520668	66.200000
3196.662623	66.000000
3197.804412	81.400000
3198.946033	77.200000
3200.084518	62.800000
3201.224321	75.800000
3202.365442	58.200000
3203.503428	89.200000
3204.639765	56.400000
3205.775936	72.600000
3206.913425	65.200000
3208.049264	79.600000
3209.186421	77.200000
3210.318965	76.400000
3211.455791	40.200000
3212.588005	97.000000
3213.721537	58.200000
3214.854903	64.800000
3215.985142	45.200000
3217.118179	55.000000
3218.248090	73.800000
3219.379318	66.200000
3220.507420	68.400000
3221.638319	56.400000
3222.767575	38.200000
3223.895186	79.200000
3225.019676	89.000000
3226.148441	79.800000
3227.274084	38.400000
3228.399564	84.200000
3229.523403	63.200000
3230.650036	73.000000
3231.772072	54.600000
3232.895424	61.000000
3234.018614	50.800000
3235.141642	70.600000
3236.263030	43.600000
3237.384257	47.200000
3238.503845	58.800000
3239.623272	78.800000
3240.741061	52.400000
3241.861643	60.200000
3242.979110	30.800000
3244.096418	65.600000
3245.213564	72.000000
3246.329075	50.800000
3247.445901	39.400000
3248.559616	56.600000
3249.676122	48.000000
3250.790992	46.600000
3251.902754	60.600000
3253.014357	70.600000
3254.127274	57.200000
3255.240033	42.000000
3256.349685	63.800000
3257.460652	53.600000
3258.571459	68.000000
3259.680636	54.200000
3260.788181	80.000000
3261.897041	62.600000
3263.005742	72.000000
3264.111341	57.800000
3265.218254	66.200000
3266.323539	42.000000
3267.430137	69.000000
3268.533635	45.400000
3269.638447	79.600000
3270.743102	49.400000
3271.844658	65.600000
3272.946059	53.600000
3274.048773	62.600000
3275.151330	56.200000
3276.250792	65.400000
3277.353036	58.800000
3278.452185	59.200000
3279.549710	66.400000
3280.647079	55.400000
3281.747231	51.400000
3282.844289	52.200000
3283.941192	39.800000
3285.037941	34.200000
3286.130130	61.600000
3287.226568	62.400000
3288.321385	20.800000
3289.416046	73.400000
3290.509086	74.600000
3291.601972	49.400000
3292.693237	43.000000
3293.785815	43.400000
3294.876772	60.200000
3295.966110	63.200000
3297.055295	54.600000
3298.145793	44.600000
3299.233206	50.800000
3300.320467	38.400000
3301.409040	62.000000
3302.497460	66.800000
3303.581333	33.200000
3304.669448	70.000000
3305.754482	64.400000
3306.837899	57.200000
3307.922629	35.800000
3309.005744	48.200000
3310.090170	50.400000
3311.171518	53.600000
3312.254178	47.600000
3313.335224	56.400000
3314.416119	46.000000
3315.495401	67.200000
3316.574532	34.200000
3317.654974	32.600000
3318.732343	28.600000
3319.811022	60.000000
3320.888091	52.200000
3321.965009	50.200000
3323.040316	68.200000
3324.115474	48.400000
3325.191943	62.800000
3326.265342	39.400000
3327.338592	57.400000
3328.413153	77.000000
3329.486104	59.000000
3330.557448	28.200000
3331.630102	63.600000
3332.699689	39.200000
3333.770587	51.000000
3334.839878	47.200000
3335.910480	44.000000
3336.979475	54.600000
3338.046864	51.000000
3339.112648	49.000000
3340.182658	56.000000
3341.249605	59.600000
3342.313490	58.800000
3343.380143	55.600000
3344.445191	46.200000
3345.508636	15.400000
3346.571935	49.600000
3347.635088	36.000000
3348.698094	58.000000
3349.760953	51.400000
3350.822211	53.600000
3351.880412	25.200000
3352.942834	47.800000
3354.002199	60.600000
3355.061419	39.200000
3356.121949	57.200000
3357.177969	64.200000
3358.236754	43.400000
3359.291031	61.800000
3360.348071	51.000000
3361.403514	29.200000
3362.460265	56.000000
3363.515419	50.000000
3364.568975	20.000000
3365.620934	32.000000
3366.675655	75.400000
3367.727327	40.400000
3368.778856	49.600000
3369.831694	50.600000
3370.881484	49.200000
3371.932582	48.800000
3372.980635	50.400000
3374.031448	45.800000
3375.079215	34.600000
3376.126840	63.400000
3377.174322	50.800000
3378.220212	51.400000
3379.267410	46.800000
3380.311566	55.000000
3381.358480	50.400000
3382.403802	62.400000
3383.446084	74.600000
3384.488224	60.000000
3385.531672	50.800000
3386.574980	60.400000
3387.616697	58.600000
3388.658273	35.800000
3389.699709	42.000000
3390.739555	37.400000
3391.777814	65.800000
3392.817380	56.600000
3393.856805	18.200000
3394.894643	53.000000
3395.930895	47.200000
3396.967006	42.000000
3398.004425	51.600000
3399.038811	46.800000
3400.074504	57.600000
3401.110058	62.200000
3402.142581	39.200000
3403.177857	43.200000
3404.210102	54.000000
3405.242209	82.200000
3406.272732	53.800000
3407.304563	40.200000
3408.336254	30.200000
3409.364919	32.000000
3410.393445	30.800000
3411.423279	64.000000
3412.452974	68.600000
3413.479644	55.000000
3414.507621	23.400000
3415.532573	43.600000
3416.560275	55.800000
3417.584954	70.600000
3418.610939	62.800000
3419.635344	53.600000
3420.659613	36.800000
3421.682303	47.000000
3422.704857	85.400000
3423.728717	63.200000
3424.749557	30.200000
3425.770262	41.000000
3426.792272	46.000000
3427.811264	71.600000
3428.830121	43.600000
3429.850283	42.400000
3430.867429	54.200000
