-118.385087	6.631044
-115.715486	14.045055
-113.048821	17.961788
-110.382909	19.063237
-107.719928	18.031394
-105.055517	15.548252
-102.394037	12.295804
-99.731128	12.232168
-97.073326	8.677622
-94.414093	4.916783
-91.755609	5.370629
-89.100050	5.719580
-86.443062	7.060839
-83.791171	8.718182
-81.137851	10.706993
-78.487451	12.799301
-75.835621	8.575524
-73.188882	9.903497
-70.540713	9.537063
-67.893288	7.050350
-65.248776	0.887413
-62.602835	0.437762
-59.961977	1.516084
-57.319688	2.807692
-54.680309	6.977622
-52.039501	7.986014
-49.399432	11.856643
-46.764437	15.730769
-44.128012	16.517483
-41.494491	21.811189
-38.859540	17.939860
-36.229656	15.993007
-33.596178	13.046154
-30.967763	13.427972
-28.340082	12.310490
-25.710973	5.652448
-23.086920	-37.485315
-20.459278	-177.281119
-17.836689	-430.451748
-15.214831	-308.160140
-12.593704	681.341958
-9.973308	2132.853846
-7.355799	3303.986713
-4.736862	4098.875524
-2.120811	4510.995804
0.494512	4540.811189
3.109108	4189.356643
5.720822	3464.758042
8.333963	2393.412587
10.942071	1088.701399
13.553761	-130.492308
16.160420	-643.669231
18.768507	-376.306993
21.375870	-27.853147
23.978208	15.946853
26.584124	17.170629
29.185019	18.714685
31.787341	20.011888
34.384645	21.497902
36.985525	20.499301
39.581391	18.087413
42.178684	18.789510
44.775258	18.967133
47.366823	22.390909
49.959816	25.352448
52.549948	23.579720
55.141508	23.062238
57.730208	25.760140
60.320336	21.937063
62.905464	24.050350
65.492020	21.106294
68.077861	15.658042
70.660849	14.162238
73.245264	12.712587
75.822549	11.110490
78.403401	11.048951
80.981404	11.095804
83.558697	10.025874
86.137416	11.386014
88.711154	12.841259
91.286318	10.318881
93.858639	14.158042
96.430253	15.040559
98.999026	16.855245
101.569226	18.813287
104.136587	17.353846
106.705375	19.788112
109.271325	23.531469
111.834441	26.334266
114.401114	32.095804
116.958564	36.369930
119.521700	44.750350
122.079877	58.686014
124.641607	85.610490
127.198382	136.728671
129.756582	206.948951
132.309830	302.063636
134.862379	421.339860
137.418480	555.474126
139.969632	699.416084
142.520086	843.965035
145.069844	979.102098
147.616782	1088.700000
150.163024	1177.819580
152.710693	1237.441259
155.257665	1266.144755
157.799701	1275.288811
160.341044	1264.629371
162.881695	1251.376224
165.423770	1234.520979
167.963035	1210.714685
170.499490	1196.766434
173.035255	1188.711189
175.572445	1182.534965
178.108943	1183.664336
180.642636	1193.869930
183.173526	1198.160140
185.703727	1192.293706
188.235353	1186.209790
190.764179	1177.162238
193.290205	1173.080420
195.815545	1167.488112
198.342310	1159.818182
200.866279	1152.710490
203.389562	1144.004196
205.912161	1139.806993
208.431967	1143.448252
210.951090	1152.615385
213.469530	1160.404895
215.989394	1169.172727
218.502257	1177.718182
221.018651	1184.549650
223.534364	1192.904895
226.045186	1199.152448
228.557433	1199.616783
231.066897	1199.093007
233.575683	1193.584615
236.083791	1194.523776
238.593323	1199.984615
241.097974	1210.246154
243.601949	1219.826573
246.107348	1229.148951
248.607872	1234.214685
251.111919	1245.900699
253.608996	1251.588811
256.109595	1261.634266
258.607423	1270.667133
261.104578	1290.507692
263.601060	1313.523776
266.092680	1346.535664
268.587818	1386.606294
271.080191	1433.451748
273.571893	1493.761538
276.060832	1573.347552
278.551194	1695.516783
281.038795	1904.543357
283.523636	2260.246154
286.011991	2942.323776
288.493408	3956.213986
290.978338	5073.035664
293.458422	6009.585315
295.942019	6594.974825
298.420774	6765.007692
300.900951	6519.383916
303.378377	5890.162937
305.855139	4963.040559
308.331237	3868.369930
310.804587	2786.261538
313.277276	1924.365035
315.749303	1478.345455
318.220668	1376.412587
320.689290	1398.288112
323.157252	1421.294406
325.626637	1421.202098
328.091199	1412.267832
330.559264	1402.267133
333.022510	1383.354545
335.485099	1372.594406
337.947030	1363.985315
340.408305	1367.081119
342.866846	1366.210490
345.326809	1358.879021
347.784040	1349.597203
350.240616	1334.800000
352.696537	1324.149650
355.149730	1307.713287
357.604345	1293.298601
360.054158	1281.013287
362.507467	1266.674126
364.955977	1254.238462
367.403837	1241.987413
369.853118	1238.270629
372.297606	1228.469930
374.743516	1220.643357
377.188777	1214.364336
379.631319	1207.069231
382.073213	1201.641259
384.514459	1198.740559
386.952990	1198.672727
389.392943	1201.992308
391.830182	1202.181119
394.264709	1204.388112
396.702724	1206.288811
399.135962	1208.944056
401.570622	1206.462937
404.000509	1211.431469
406.433881	1212.623077
408.862482	1216.552448
411.290443	1220.465035
413.719824	1225.120979
416.144441	1227.552448
418.570478	1223.121678
420.995876	1222.140559
423.420633	1224.006294
425.840631	1224.095804
428.262051	1226.588811
430.680774	1230.202797
433.100918	1241.821678
435.518367	1247.416084
437.937236	1251.485315
440.353412	1254.339161
442.764841	1256.718881
445.179746	1257.890909
447.591961	1256.273427
450.003542	1256.369231
452.414489	1258.870629
454.822750	1259.988112
457.230379	1262.885315
459.637375	1265.653846
462.043739	1267.700699
464.447422	1268.959441
466.850474	1266.848951
469.252896	1267.528671
471.654688	1269.761538
474.053802	1271.629371
476.454336	1271.705594
478.854241	1269.623077
481.249423	1266.835664
483.648072	1262.403497
486.042001	1256.085315
488.435304	1247.982517
490.827981	1234.467133
493.220033	1222.339860
495.613504	1204.104196
498.002262	1187.437762
500.388354	1168.755245
502.775866	1146.911888
505.162754	1129.981119
507.546979	1113.191608
509.932623	1100.367832
512.315604	1093.892308
514.695925	1087.649650
517.077665	1088.935664
519.456746	1091.523776
521.837246	1094.303497
524.215088	1095.781119
526.590275	1099.496503
528.964844	1103.002098
531.340832	1100.653147
533.714166	1106.751748
536.088919	1109.223776
538.458985	1116.505594
540.828436	1117.952448
543.199306	1120.540559
545.565494	1122.309091
547.933101	1122.630769
550.298062	1119.916084
552.662410	1115.907692
555.026146	1117.376923
557.391299	1122.383916
559.751780	1119.437762
562.113678	1122.074126
564.472937	1125.109790
566.829557	1126.972727
569.189623	1128.018182
571.542997	1126.381119
573.899816	1120.313986
576.254000	1111.757343
578.607575	1101.732168
580.960542	1090.716783
583.310878	1084.723776
585.662630	1076.346154
588.007706	1060.427273
590.358246	1051.248252
592.702113	1041.174126
595.051441	1031.041259
597.396120	1021.109790
599.738175	1011.457343
602.081647	1001.929371
604.422496	992.282517
606.762742	985.782517
609.100368	982.897203
611.441429	981.920280
613.777853	978.881818
616.115693	979.875524
618.450915	981.248252
620.783522	975.043357
623.117546	972.197203
625.448955	967.462937
627.779766	966.168531
630.109979	958.692308
632.439595	948.639161
634.764587	944.517483
637.095021	942.523077
639.420833	939.825175
641.744039	935.934266
644.068661	940.061538
646.390677	940.798601
648.712099	943.570629
651.030918	951.832867
653.351153	955.067133
655.670795	960.081818
657.987836	955.379720
660.304286	951.402797
662.618137	955.023776
664.933403	958.081119
667.246073	960.420280
669.560158	966.214685
671.869644	976.927972
674.180544	983.774825
676.488852	988.483217
678.796572	993.444056
681.105707	991.278322
683.410249	992.230769
685.714205	981.968531
688.017574	976.453147
690.322358	974.067133
692.622556	970.921678
694.924169	969.647552
697.225196	973.193007
699.521642	974.419580
701.819502	974.143357
704.116780	975.106294
706.413473	981.432867
708.705591	987.303497
711.001120	993.595804
713.292076	992.936364
715.584446	996.726573
717.874240	1002.919580
720.163455	1004.957343
722.452089	1005.753147
724.738152	1004.767133
727.025628	998.711888
729.310534	997.580420
731.594861	997.528671
733.876621	1001.059441
736.159794	1002.001399
738.442390	1003.857343
740.720430	1003.595804
742.999884	1006.539161
745.278763	1006.548252
747.557066	1003.993007
749.830820	1001.048951
752.105988	999.567133
754.380582	994.655944
756.652617	996.006294
758.926065	992.540559
761.196955	997.963636
763.465288	996.604196
765.735036	1001.120979
768.002228	1001.673427
770.268850	1005.439161
772.534903	1003.690909
774.798404	1006.882517
777.063317	1007.231469
779.327662	1011.918182
781.587476	1015.072028
783.848704	1018.737762
786.109364	1019.967832
788.367477	1024.276923
790.623046	1023.210490
792.882006	1021.920979
795.134467	1017.970629
797.392295	1019.549650
799.645604	1015.568531
801.896372	1011.838462
804.148553	1010.686713
806.398196	1016.883217
808.649250	1018.216783
810.895793	1016.002797
813.143749	1016.062238
815.389169	1016.776224
817.636002	1012.958741
819.882272	1005.434965
822.124039	1000.337762
824.369188	992.526573
826.607865	987.969930
828.849925	980.810490
831.087486	982.630070
833.326458	985.246154
835.562904	987.592308
837.800762	990.441259
840.036094	993.006993
842.268902	997.511189
844.503122	991.330070
846.734820	989.267832
848.965963	986.293706
851.196551	979.589510
853.426585	981.166434
855.656064	971.405594
857.881063	969.372727
860.109435	968.187413
862.333329	970.033566
864.558633	970.253147
866.779462	968.950350
869.003663	968.614685
871.223391	963.610490
873.444530	971.327273
875.665118	982.865035
877.883197	992.669930
880.102685	1006.132867
882.317707	1008.616084
884.532181	1023.290909
886.746108	1035.436364
888.959487	1037.088112
891.172320	1035.146853
893.384605	1032.021678
895.594389	1024.141958
897.803627	1018.481818
900.012319	1020.623077
902.218513	1025.010490
904.426116	1025.269930
906.631222	1030.737063
908.835784	1032.353846
911.037851	1041.127273
913.241327	1049.957343
915.442309	1051.786713
917.642749	1052.877622
919.844598	1054.038462
922.040056	1051.320979
924.238872	1049.939860
926.433251	1054.511189
928.630987	1057.183217
930.824287	1063.700699
933.018995	1068.504895
935.211218	1067.367832
937.402903	1070.333566
939.594050	1086.615385
941.782714	1091.768531
943.970841	1095.347552
946.156488	1097.968531
948.345487	1101.651748
950.530063	1108.160839
952.714104	1119.621678
954.901495	1118.283217
957.080583	1122.732168
959.263020	1124.674126
961.444924	1117.417483
963.624354	1128.620280
965.801311	1138.940559
967.979676	1140.486713
970.159447	1145.338462
972.332870	1144.072028
974.509639	1151.734266
976.682002	1153.900000
978.855771	1144.732867
981.025138	1142.272028
983.197848	1146.488112
985.368092	1155.567133
987.537808	1160.170629
989.706995	1176.555944
991.871785	1176.760839
994.039917	1192.227273
996.203653	1183.786713
998.368797	1190.094406
1000.531481	1205.197203
1002.693640	1198.879021
1004.853341	1207.493007
1007.012519	1223.160140
1009.173103	1240.107692
1011.331232	1255.890909
1013.488837	1269.873427
1015.645919	1266.557343
1017.802478	1263.719580
1019.954657	1270.776224
1022.108243	1244.629371
1024.261306	1245.525175
1026.411922	1237.930769
1028.563943	1229.620280
1030.711591	1244.343357
1032.862571	1236.832867
1035.009181	1243.157343
1037.155271	1242.220280
1039.300843	1239.386713
1041.447819	1229.041259
1043.588508	1222.387413
1045.732525	1216.435664
1047.874103	1205.996503
1050.015163	1209.418182
1052.157628	1208.495105
1054.293814	1209.933566
1056.433326	1209.301399
1058.568482	1196.126573
1060.706963	1210.462937
1062.841091	1213.298601
1064.974705	1208.855245
1067.109723	1211.772727
1069.240392	1208.674825
1071.372467	1210.787413
1073.502111	1213.486014
1075.631244	1213.604895
1077.759866	1198.939860
1079.887976	1186.510490
1082.013660	1185.853147
1084.138834	1182.520280
1086.265411	1191.229371
1088.387652	1184.114685
1090.511297	1184.893007
1092.630607	1184.296503
1094.755146	1182.826573
1096.873441	1168.310490
1098.993139	1159.610490
1101.110419	1162.201399
1103.227193	1155.719580
1105.343460	1164.392308
1107.457312	1176.193706
1109.572567	1172.658741
1111.683500	1176.286713
1113.797744	1177.144755
1115.907669	1177.647552
1118.018996	1180.762937
1120.129820	1184.290909
1122.236327	1182.586014
1124.346143	1190.661538
1126.451645	1205.420280
1128.558551	1202.364336
1130.659240	1207.272727
1132.765142	1211.904895
1134.866735	1201.165035
1136.969731	1183.077622
1139.072226	1154.664336
1141.168515	1137.518881
1143.270010	1138.025874
1145.367203	1131.837063
1147.463897	1132.875524
1149.560094	1138.281818
1151.655792	1146.306294
1153.750993	1149.904196
1155.843797	1166.484615
1157.938003	1182.726573
1160.026018	1187.391608
1162.119231	1183.044755
1164.206256	1173.058042
1166.296581	1170.112587
1168.382617	1163.780420
1170.471951	1160.997902
1172.555104	1151.641259
1174.639660	1152.227273
1176.725616	1152.602797
1178.807291	1154.887413
1180.890368	1163.452448
1182.971059	1174.063636
1185.051259	1190.029371
1187.130967	1198.942657
1189.210183	1195.613986
1191.287018	1203.893007
1193.361472	1210.593007
1195.439218	1214.255944
1197.512693	1204.259441
1199.587570	1201.368531
1201.658179	1192.497902
1203.730189	1182.417483
1205.799823	1172.855245
1207.870858	1166.183916
1209.941405	1162.916084
1212.007691	1150.858042
1214.075378	1150.794406
1216.140693	1157.855944
1218.207408	1153.741259
1220.269867	1153.249650
1222.335612	1150.095804
1224.397102	1149.363636
1226.459992	1151.032168
1228.520515	1160.793706
1230.580555	1168.344755
1232.640111	1173.368531
1234.697303	1184.402098
1236.754012	1184.519580
1238.808359	1204.274126
1240.865986	1209.318881
1242.921251	1210.069930
1244.972275	1215.406294
1247.024699	1224.690909
1249.076644	1231.004196
1251.126230	1237.562238
1253.175337	1242.803497
1255.223965	1240.190909
1257.272115	1246.255944
1259.319787	1261.625874
1261.363228	1266.752448
1263.409944	1280.684615
1265.454308	1289.537762
1267.498194	1296.881818
1269.539730	1304.899301
1271.578916	1325.874825
1273.621374	1333.643357
1275.659611	1338.113986
1277.699245	1325.617483
1279.738405	1313.990210
1281.773347	1317.268531
1283.809687	1315.609091
1285.843682	1317.491608
1287.879076	1318.146154
1289.910256	1319.051049
1291.942835	1317.307692
1293.974941	1323.346853
1296.004707	1338.982517
1298.035871	1345.197902
1300.062827	1338.816084
1302.091181	1323.805594
1304.115331	1319.583217
1306.142746	1322.799301
1308.165958	1324.901399
1310.190568	1331.511888
1312.212843	1331.926573
1314.236516	1335.216084
1316.257856	1334.790210
1318.278729	1343.845455
1320.299134	1344.560140
1322.315345	1340.455944
1324.332955	1330.913287
1326.348236	1323.655245
1328.366776	1305.538462
1330.381126	1292.344755
1332.393151	1276.711189
1334.408434	1258.753846
1336.419531	1244.744755
1338.432024	1230.497203
1340.440335	1216.827972
1342.451902	1217.702797
1344.457430	1209.088811
1346.466212	1212.109790
1348.470818	1214.106993
1350.478677	1213.751049
1352.486073	1203.951748
1354.487439	1213.471329
1356.490202	1220.820979
1358.492505	1226.874126
1360.494347	1234.483916
1362.495731	1238.499301
1364.494800	1246.151049
1366.493411	1263.773427
1368.491564	1266.670629
1370.489259	1275.583217
1372.482790	1274.541259
1374.477718	1275.550350
1376.472189	1266.993007
1378.466203	1268.909091
1380.457910	1267.570629
1382.449161	1262.960839
1384.438107	1256.278322
1386.428448	1248.485315
1388.418334	1244.184615
1390.405917	1241.479021
1392.393046	1230.876923
1394.377873	1234.223077
1396.364095	1227.565035
1398.348016	1224.444056
1400.331485	1214.793007
1402.314502	1218.923776
1404.295221	1221.044755
1406.277334	1222.506294
1408.257150	1234.404196
1410.236516	1245.362238
1412.211743	1258.702797
1414.190208	1269.345455
1416.166380	1280.951049
1418.142102	1295.328671
1420.117375	1299.927273
1422.090357	1300.858741
1424.062892	1301.086014
1426.034978	1302.627972
1428.006616	1296.920280
1429.974127	1293.400000
1431.946711	1294.523077
1433.911489	1289.483217
1435.881340	1286.959441
1437.847066	1287.435664
1439.814186	1288.711189
1441.779022	1291.325175
1443.739738	1299.093007
1445.705522	1302.936364
1447.665351	1316.378322
1449.626573	1324.539860
1451.589188	1335.274825
1453.547688	1345.145455
1455.505746	1355.853846
1457.463361	1365.306294
1459.420535	1371.430769
1461.375433	1379.389510
1463.331723	1380.886713
1465.285739	1381.272727
1467.239315	1381.112587
1469.190618	1376.977622
1471.143313	1374.290909
1473.093737	1362.548951
1475.043722	1348.987413
1476.993267	1346.922378
1478.940544	1342.942657
1480.885554	1332.502797
1482.831956	1330.128671
1484.777920	1326.472028
1486.723446	1325.309091
1488.666708	1326.706294
1490.609533	1322.488112
1492.550095	1318.500000
1494.492048	1312.569231
1496.431740	1308.862238
1498.370996	1299.772727
1500.309818	1301.253846
1502.246380	1296.365035
1504.184332	1289.000000
1506.120027	1302.779021
1508.055288	1315.731469
1509.988292	1327.899301
1511.920864	1334.479720
1513.853004	1339.903497
1515.784712	1350.239161
1517.714167	1353.904895
1519.645011	1356.940559
1521.575425	1356.687413
1523.501766	1363.790909
1525.429497	1366.578322
1527.354978	1366.933566
1529.280030	1384.912587
1531.204653	1382.797203
1533.128847	1372.354545
1535.050794	1360.725175
1536.974130	1354.174825
1538.895221	1354.672028
1540.814067	1352.590210
1542.734303	1354.715385
1544.652295	1367.153147
1546.569861	1384.164336
1548.485185	1392.241259
1550.401899	1403.039161
1552.314558	1415.341259
1554.230421	1423.493706
1556.144045	1418.548252
1558.055430	1408.265734
1559.968204	1403.618182
1561.876929	1398.371329
1563.787044	1389.466434
1565.696735	1391.553147
1567.606002	1393.918881
1569.513036	1384.925874
1571.417837	1384.618182
1573.324027	1381.197902
1575.227985	1392.381818
1577.131523	1411.818182
1579.034639	1418.549650
1580.935527	1420.434965
1582.837803	1420.032867
1584.737850	1404.438462
1586.639286	1406.262937
1588.536687	1402.876224
1590.433671	1394.683916
1592.330236	1380.018881
1594.228188	1387.974126
1596.120306	1378.479021
1598.015618	1384.479720
1599.910511	1388.279720
1601.803183	1393.786014
1603.695439	1384.572727
1605.585475	1380.017483
1607.475095	1376.382517
1609.364300	1382.318182
1611.253089	1376.070629
1613.139662	1388.368531
1615.027621	1394.060839
1616.911565	1405.365035
1618.796895	1394.468531
1620.681812	1400.631469
1622.564515	1390.752448
1624.448604	1387.709790
1626.328683	1382.014685
1628.210148	1385.973427
1630.089403	1379.464336
1631.970044	1372.034266
1633.844881	1360.038462
1635.724700	1356.625175
1637.600513	1350.597902
1639.475917	1347.175524
1641.352706	1328.960140
1643.223698	1327.242657
1645.097872	1312.954545
1646.968048	1311.153147
1648.841404	1312.536364
1650.712557	1311.738462
1652.581508	1296.156643
1654.451845	1287.619580
1656.318188	1287.400000
1658.185918	1289.451049
1660.051448	1286.586713
1661.918363	1290.963636
1663.781290	1277.829371
1665.645602	1276.575524
1667.507719	1262.516084
1669.369430	1263.759441
1671.232526	1268.038462
1673.093428	1264.036364
1674.952136	1264.216084
1676.810441	1270.500699
1678.670131	1281.216783
1680.524054	1276.446154
1682.381149	1271.192308
1684.237842	1271.146853
1686.090559	1255.475524
1687.946447	1238.055944
1689.798361	1224.531469
1691.649873	1236.618881
1693.500986	1231.304196
1695.351697	1209.151748
1697.202008	1204.050350
1699.050135	1211.568531
1700.899645	1217.183916
1702.743407	1211.258741
1704.592119	1211.920979
1706.435084	1216.611189
1708.281215	1223.798601
1710.123385	1229.560839
1711.968719	1260.744056
1713.808313	1272.332867
1715.649291	1265.432867
1717.491652	1243.681818
1719.330057	1241.765035
1721.169845	1247.218881
1723.007458	1231.002098
1724.844675	1210.584615
1726.679719	1213.984615
1728.516146	1219.639860
1730.350401	1215.303497
1732.184262	1228.217483
1734.017728	1225.541958
1735.847248	1217.530769
1737.679927	1212.751748
1739.508662	1221.058741
1741.340555	1209.960839
1743.168505	1203.220979
1744.996063	1195.918881
1746.823230	1205.258042
1748.650004	1213.521678
1750.476388	1215.519580
1752.298835	1206.486713
1754.124436	1221.836364
1755.946103	1201.157343
1757.769152	1210.432867
1759.590040	1214.338462
1761.410538	1239.373427
1763.232418	1233.675524
1765.048598	1244.331469
1766.867930	1247.727972
1768.683335	1249.454545
1770.501891	1236.248951
1772.316521	1217.251049
1774.130764	1215.987413
1775.944621	1202.136364
1777.758091	1182.250350
1779.569407	1167.785315
1781.382105	1163.932168
1783.194416	1189.739161
1785.002810	1205.981818
1786.812585	1201.753147
1788.618444	1208.111888
1790.427450	1222.753147
1792.232542	1208.444056
1794.039014	1192.099301
1795.845103	1196.794406
1797.647282	1182.712587
1799.452604	1177.763636
1801.254018	1164.983916
1803.056812	1176.505594
1804.855701	1194.881119
1806.655969	1206.686014
1808.455857	1189.281119
1810.253602	1192.412587
1812.050967	1188.675524
1813.847951	1164.593007
1815.644555	1141.646853
1817.439020	1131.555944
1819.234865	1140.055245
1821.025054	1134.358042
1822.820140	1145.244056
1824.609573	1179.209091
1826.402144	1197.507692
1828.192579	1211.845455
1829.980879	1211.313986
1831.772315	1216.707692
1833.558105	1224.681119
1835.345275	1230.438462
1837.130313	1216.986014
1838.918485	1217.468531
1840.702771	1215.504196
1842.484928	1203.588811
1844.268463	1209.107692
1846.049871	1211.325874
1847.832656	1204.588112
1849.611562	1209.793007
1851.391846	1218.880420
1853.170005	1232.053147
1854.949541	1238.420280
1856.726953	1245.681818
1858.502241	1253.673427
1860.278908	1255.683217
1862.053452	1249.279720
1863.829373	1244.078322
1865.599675	1243.728671
1867.373104	1240.637762
1869.144413	1244.409790
1870.915351	1265.363636
1872.687666	1265.511189
1874.454369	1266.110490
1876.224196	1256.791608
1877.990160	1261.317483
1879.759248	1261.330070
1881.524474	1267.137063
1883.289332	1266.879720
1885.055566	1268.002098
1886.817942	1275.251049
1888.579951	1276.559441
1890.341593	1273.838462
1892.102867	1281.679021
1893.863775	1268.750350
1895.624315	1257.012587
1897.382746	1246.081818
1899.140812	1235.474126
1900.896770	1221.862238
1902.654104	1214.810490
1904.411072	1196.937762
1906.165935	1181.444755
1907.918692	1173.169231
1909.671086	1169.117483
1911.424856	1161.357343
1913.176522	1162.206993
1914.926085	1159.191608
1916.677025	1165.458042
1918.427601	1167.055944
1920.174339	1163.797203
1921.922452	1166.309091
1923.668466	1150.772727
1925.415856	1144.662238
1927.161147	1148.335664
1928.904341	1157.798601
1930.648911	1171.163636
1932.391384	1174.783916
1934.133497	1181.534965
1935.875251	1187.430420
1937.616644	1199.579720
1939.355944	1196.943007
1941.094885	1193.921678
1942.833467	1188.604545
1944.569957	1177.818881
1946.306090	1174.782168
1948.043597	1180.848252
1949.777283	1177.529021
1951.512343	1171.318881
1953.245314	1163.841608
1954.977929	1155.253147
1956.710187	1154.266783
1958.442089	1163.559441
1960.171905	1167.453846
1961.899637	1173.677622
1963.628742	1182.920979
1965.357493	1194.325874
1967.084160	1204.334965
1968.810473	1211.860839
1970.538159	1219.922378
1972.260309	1214.947552
1973.985561	1208.476923
1975.707005	1194.132867
1977.431549	1191.427972
1979.154014	1192.548252
1980.872675	1184.741259
1982.594435	1179.591608
1984.312393	1175.929371
1986.031725	1172.924476
1987.747256	1177.060140
1989.467609	1174.038462
1991.184162	1173.357343
1992.896920	1169.632867
1994.612773	1163.611189
1996.326554	1157.405594
1998.039984	1160.144755
1999.751344	1160.249650
2001.464077	1160.557343
2003.173018	1164.410490
2004.885053	1175.276923
2006.591578	1182.102098
2008.301196	1183.112587
2010.008746	1177.793007
2011.715949	1169.839860
2013.421086	1165.256643
2015.125876	1159.160140
2016.832038	1151.998601
2018.534418	1150.998601
2020.238170	1144.913287
2021.939859	1139.011888
2023.641202	1135.658741
2025.342200	1137.872727
2027.041138	1137.103497
2028.741447	1136.232867
2030.437980	1141.758741
2032.135885	1144.669231
2033.831732	1141.350350
2035.530664	1144.752448
2037.224110	1144.281818
2038.918927	1147.235664
2040.613401	1142.475524
2042.304107	1132.746154
2043.997897	1123.553147
2045.687920	1124.690909
2047.379314	1129.128671
2049.068655	1132.293007
2050.759366	1137.714685
2052.446315	1139.946154
2054.132923	1139.133566
2055.820902	1150.195105
2057.505121	1151.906993
2059.190710	1152.644056
2060.875960	1149.667133
2062.559162	1144.339860
2064.243734	1139.341958
2065.922842	1135.927972
2067.606736	1136.097203
2069.285170	1133.116783
2070.966681	1143.605594
2072.644440	1149.139161
2074.321863	1160.970629
2076.000655	1171.869930
2077.677404	1163.730070
2079.352112	1159.574825
2081.028189	1161.121678
2082.702226	1153.791608
2084.375927	1150.272028
2086.049293	1148.546853
2087.720621	1151.679720
2089.391614	1148.242657
2091.062273	1156.409790
2092.732598	1164.017483
2094.402588	1165.409790
2096.070543	1171.239161
2097.738165	1169.852448
2099.403753	1172.960140
2101.070709	1186.218182
2102.735632	1191.230070
2104.400222	1200.400699
2106.062781	1200.805594
2107.726709	1205.536364
2109.388605	1194.918881
2111.050170	1190.474825
2112.711405	1189.362238
2114.370610	1179.993706
2116.029486	1180.669930
2117.688031	1169.921678
2119.346247	1164.832168
2121.000739	1171.715385
2122.658297	1174.139860
2124.315524	1173.011189
2125.969031	1172.783217
2127.623905	1175.510490
2129.275060	1163.428671
2130.929278	1162.367133
2132.579778	1153.255944
2134.231646	1137.400000
2135.878105	1133.990909
2137.529318	1120.735664
2139.176818	1122.439161
2140.825686	1127.686713
2142.472534	1125.489510
2144.119056	1122.714685
2145.765254	1126.898601
2147.407742	1133.965734
2149.053289	1137.965734
2150.695129	1143.035664
2152.340026	1134.059441
2153.981218	1133.823776
2155.622086	1141.988112
2157.262631	1142.081818
2158.901163	1151.537063
2160.541061	1154.183217
2162.177259	1150.300000
2163.814823	1148.655944
2165.452065	1155.663636
2167.087297	1168.665035
2168.722207	1180.490909
2170.356796	1183.013287
2171.991064	1182.011189
2173.621638	1185.570629
2175.255263	1191.970629
2176.885197	1194.427273
2178.516496	1189.737063
2180.145791	1187.237762
2181.774765	1179.631469
2183.403421	1172.933566
2185.031757	1172.269231
2186.658090	1178.707692
2188.284105	1172.551049
2189.908119	1163.637063
2191.533498	1161.439161
2193.156876	1160.176224
2194.781619	1166.839161
2196.402680	1159.995105
2198.023426	1157.662937
2199.645535	1156.019580
2201.265647	1151.586713
2202.883763	1154.569231
2204.501563	1158.057343
2206.119047	1156.993007
2207.736216	1144.480420
2209.353070	1150.700699
2210.969609	1151.905594
2212.584154	1156.072028
2214.196707	1155.061538
2215.810625	1145.864336
2217.422550	1142.310490
2219.035840	1137.125175
2220.647138	1138.305594
2222.256448	1141.948951
2223.867120	1143.751748
2225.475804	1136.893706
2227.084176	1127.362238
2228.690560	1120.440559
2230.298308	1113.456643
2231.904069	1110.203497
2233.509519	1110.784615
2235.112985	1118.963636
2236.717813	1122.854545
2238.320657	1127.044755
2239.921518	1138.388811
2241.523742	1149.462238
2243.123983	1158.467832
2244.725588	1154.233566
2246.323539	1142.367133
2247.922853	1141.938462
2249.520187	1142.909091
2251.117213	1138.872028
2252.715600	1148.922378
2254.310339	1163.669231
2255.903102	1167.557343
2257.497226	1173.541958
2259.092712	1179.432168
2260.684554	1185.560140
2262.276089	1196.490210
2263.868985	1197.056643
2265.456572	1190.301399
2267.048856	1198.151748
2268.635832	1197.225175
2270.225837	1195.730769
2271.810537	1193.209091
2273.399931	1196.707692
2274.984022	1196.829371
2276.569475	1190.358741
2278.152959	1178.520979
2279.739468	1183.686713
2281.322344	1182.541259
2282.904916	1178.482168
2284.487186	1174.816783
2286.065825	1181.889860
2287.647488	1183.568531
2289.225524	1183.798252
2290.806582	1187.234965
2292.384013	1184.673077
2293.959481	1180.705594
2295.537971	1173.085664
2297.112836	1149.121678
2298.687401	1144.287762
2300.261666	1127.060140
2301.835630	1114.710839
2303.409294	1127.162937
2304.982657	1130.490909
2306.552402	1131.020979
2308.121848	1149.127273
2309.694313	1162.364336
2311.261503	1160.615385
2312.831710	1168.197902
2314.398303	1163.130070
2315.966256	1140.663636
2317.532254	1122.516084
2319.097954	1106.648951
2320.663356	1098.595804
2322.226805	1112.798601
2323.791613	1115.565734
2325.352812	1115.490909
2326.917026	1130.905594
2328.475979	1136.958042
2330.037945	1143.230769
2331.597961	1137.518881
2333.157681	1113.969231
2334.715452	1104.980420
2336.272929	1082.446154
2337.830110	1075.809790
2339.385345	1076.394406
2340.940285	1095.597203
2342.494932	1094.281818
2344.049285	1119.536364
2345.603344	1148.281119
2347.157110	1171.458042
2348.708931	1177.403497
2350.258809	1174.021678
2351.811695	1180.265035
2353.359339	1188.562238
2354.909990	1170.383916
2356.457051	1158.759441
2358.005469	1148.417483
2359.553595	1149.218182
2361.098134	1128.960140
2362.644030	1149.666434
2364.187987	1141.530070
2365.733302	1131.072028
2367.275032	1119.847552
2368.818120	1111.749650
2370.359271	1123.467133
2371.900133	1113.641958
2373.440706	1096.837762
2374.980990	1092.818182
2376.520985	1096.365734
2378.057401	1089.772727
2379.596819	1090.672727
2381.132660	1110.191608
2382.669857	1101.446154
2384.203480	1098.982517
2385.740102	1104.065734
2387.274793	1094.231469
2388.807555	1091.696503
2390.340031	1086.209091
2391.870578	1080.772727
2393.404123	1088.386713
2394.932457	1092.277622
2396.462147	1073.507692
2397.991552	1085.248951
2399.520672	1095.282517
2401.049506	1086.017483
2402.573136	1097.548252
2404.101401	1095.625874
2405.624463	1091.033566
2407.152160	1093.783217
2408.673016	1104.724476
2410.198506	1100.971329
2411.720436	1102.811888
2413.243720	1106.209790
2414.765084	1097.823077
2416.284528	1112.442657
2417.805327	1117.091608
2419.324207	1120.187413
2420.842805	1131.354545
2422.359486	1138.873427
2423.877522	1149.923776
2425.395276	1155.973427
2426.909478	1175.467832
2428.423400	1172.012587
2429.937043	1168.848252
2431.452039	1176.809091
2432.963487	1175.403497
2434.476290	1184.515385
2435.987180	1181.037762
2437.497790	1168.718182
2439.006489	1174.513986
2440.518175	1173.665734
2442.026317	1155.474825
2443.534180	1157.771329
2445.041766	1158.971329
2446.545812	1134.497902
2448.052842	1126.311888
2449.557964	1124.542657
2451.062809	1125.974126
2452.565747	1131.708392
2454.068408	1136.316084
2455.570793	1124.848951
2457.071273	1137.844056
2458.573106	1145.838462
2460.073035	1149.450350
2461.572688	1171.841259
2463.072066	1175.404895
2464.569541	1179.539860
2466.065114	1187.544755
2467.563667	1182.509091
2469.058691	1185.796503
2470.555069	1171.861538
2472.047920	1164.288112
2473.542123	1149.401399
2475.036053	1151.560839
2476.526460	1143.137063
2478.019844	1137.701399
2479.511329	1157.025874
2481.000918	1153.893007
2482.490236	1150.649650
2483.977657	1140.825874
2485.468054	1140.670629
2486.954932	1132.981818
2488.443162	1127.491608
2489.927876	1129.606993
2491.412319	1132.009091
2492.898114	1123.183217
2494.382016	1099.254545
2495.867270	1097.865734
2497.347390	1107.723077
2498.830482	1098.668531
2500.311684	1107.983916
2501.792617	1111.651049
2503.271661	1124.846853
2504.750437	1121.271329
2506.228944	1130.079021
2507.707182	1124.335664
2509.185152	1111.808392
2510.659618	1093.360140
2512.137052	1087.350350
2513.610983	1077.704196
2515.086265	1081.507692
2516.561279	1075.390210
2518.032792	1080.064336
2519.505656	1085.409091
2520.976637	1097.097902
2522.448967	1095.663636
2523.916185	1095.565734
2525.386369	1089.488811
2526.854671	1077.995804
2528.322709	1081.276224
2529.790482	1083.085315
2531.257990	1057.104895
2532.725233	1050.136364
2534.188985	1041.755944
2535.654086	1045.964336
2537.117310	1055.260839
2538.581883	1047.593007
2540.042967	1037.656643
2541.505402	1036.804196
2542.967573	1033.844755
2544.426257	1045.150350
2545.889514	1047.245455
2547.347674	1044.456643
2548.807183	1039.397902
2550.261599	1055.273427
2551.720585	1077.933566
2553.177698	1096.093706
2554.632941	1103.106993
2556.087923	1093.033566
2557.541035	1092.069231
2558.995496	1092.500000
2560.448088	1074.572028
2561.900420	1065.546154
2563.350884	1051.741259
2564.804304	1051.320280
2566.252642	1047.316783
2567.703936	1056.506993
2569.153363	1066.050350
2570.599319	1063.276224
2572.048229	1071.972028
2573.493668	1082.816084
2574.940456	1087.267133
2576.385380	1096.962238
2577.830047	1092.512587
2579.276061	1085.072028
2580.718608	1080.611189
2582.162503	1068.534266
2583.602933	1068.181818
2585.044711	1067.339161
2586.484629	1057.763636
2587.925894	1053.603497
2589.363697	1070.856643
2590.804450	1081.850350
2592.240140	1086.239161
2593.678780	1079.537063
2595.115563	1073.667832
2596.550489	1058.380420
2597.988364	1049.836364
2599.421181	1031.369930
2600.855345	1037.041958
2602.287654	1019.355245
2603.721310	1008.176923
2605.153113	1009.651049
2606.584663	1016.313986
2608.015959	1022.524476
2609.445404	1025.223776
2610.874596	1018.574126
2612.301937	1026.048951
2613.730625	1033.477622
2615.159060	1030.074825
2616.584049	1022.294406
2618.010383	1034.181818
2619.434869	1029.725175
2620.860701	1023.472727
2622.283089	1026.500699
2623.706823	1042.583916
2625.128711	1047.760140
2626.550348	1053.990909
2627.970140	1069.426573
2629.391278	1069.353846
2630.812166	1076.970629
2632.229616	1070.227972
2633.650005	1072.650350
2635.066957	1075.040559
2636.483661	1065.551748
2637.900116	1044.286014
2639.316323	1042.592308
2640.732281	1045.295804
2642.146399	1045.988811
2643.560270	1047.517483
2644.972301	1039.002098
2646.385677	1027.837762
2647.795623	1030.147552
2649.208505	1019.683217
2650.617958	1016.079720
2652.027165	1012.306993
2653.434536	1011.521678
2654.844841	1003.138462
2656.253310	1013.920979
2657.659944	1018.484615
2659.066333	1028.119580
2660.470888	1034.168531
2661.876787	1034.192308
2663.280853	1044.166434
2664.684675	1043.615385
2666.088252	1035.907692
2667.489997	1049.558741
2668.893086	1057.771329
2670.292758	1063.255245
2671.693773	1055.560839
2673.091371	1051.146154
2674.491900	1035.053846
2675.889014	1043.953846
2677.287471	1054.689510
2678.684100	1060.558741
2680.080488	1072.928671
2681.476633	1071.401399
2682.870952	1057.890909
2684.266614	1075.151748
2685.658866	1083.146853
2687.052462	1083.488112
2688.444233	1080.192308
2689.837346	1067.355944
2691.228636	1065.713287
2692.618103	1069.254545
2694.007331	1061.790909
2695.396318	1054.059441
2696.786648	1047.185315
2698.171993	1030.044056
2699.560263	1026.432867
2700.946712	1038.490210
2702.332922	1041.346154
2703.718893	1037.191608
2705.101466	1030.597203
2706.485380	1028.786014
2707.869057	1034.825874
2709.252496	1027.457343
2710.632539	1024.406993
2712.013924	1015.395804
2713.393493	1002.827273
2714.774404	1002.996503
2716.153500	1012.688112
2717.530781	1001.106294
2718.909404	1001.779021
2720.286214	995.032867
2721.662788	988.876923
2723.039126	994.333566
2724.413652	999.269930
2725.789519	1012.702797
2727.161999	1022.483217
2728.537396	1024.795804
2729.907831	1016.848951
2731.279608	1024.948252
2732.651151	1022.351049
2734.020885	1020.017483
2735.391959	1035.118182
2736.761226	1026.182517
2738.130259	1023.154545
2739.497485	1035.048951
2740.864479	1039.093706
2742.231240	1040.706993
2743.597768	1035.326573
2744.962492	1022.701399
2746.326983	1009.910490
2747.691242	1020.171329
2749.055270	1014.858042
2750.419065	1023.333566
2751.779487	1023.420979
2753.142820	1017.000699
2754.501210	1020.666434
2755.862510	1028.452448
2757.220439	1019.823776
2758.581278	1009.615385
2759.940316	988.881818
2761.295986	973.258042
2762.654565	963.760839
2764.009776	955.562937
2765.364758	943.746154
2766.717943	947.200699
2768.074035	949.790210
2769.426763	955.295804
2770.779262	960.389510
2772.131533	976.209790
2773.485143	980.631469
2774.835391	983.038462
2776.183846	988.960140
2777.535205	998.079720
2778.883205	996.844755
2780.232544	991.649650
2781.580090	992.698601
2782.927409	1001.534266
2784.274502	996.046154
2785.619804	992.950350
2786.964880	985.572727
2788.309730	985.684615
2789.654354	980.819580
2790.995625	977.487413
2792.338235	965.784615
2793.680620	956.773427
2795.022779	954.426573
2796.361589	950.025874
2797.703299	948.270629
2799.041660	950.151049
2800.381359	944.264336
2801.719272	952.441958
2803.055401	954.446154
2804.391307	962.990210
2805.728549	971.446853
2807.064008	970.494406
2808.399244	969.830070
2809.732698	992.036364
2811.067488	996.915385
2812.398937	991.579021
2813.733282	992.306993
2815.062729	987.731469
2816.393513	990.383916
2817.724075	988.039860
2819.052858	986.339161
2820.382978	983.272727
2821.711318	982.244056
2823.039438	983.253147
2824.365781	976.880420
2825.693459	975.006294
2827.017805	961.765734
2828.343486	952.160839
2829.667393	944.069231
2830.991079	935.388112
2832.316101	930.013986
2833.637794	924.388811
2834.959267	928.053846
2836.280522	935.046853
2837.601558	938.753147
2838.920822	943.743357
2840.241421	933.079720
2841.560248	936.702797
2842.878857	936.804895
2844.195696	932.568531
2845.512317	926.302797
2846.828720	930.103497
2848.143355	919.638462
2849.459324	917.718182
2850.771973	920.711888
2852.085958	931.711189
2853.399726	925.708392
2854.713277	917.944056
2856.025061	908.785315
2857.335080	921.442657
2858.646433	919.422378
2859.954470	925.518881
2861.263843	932.776224
2862.573000	939.660839
2863.881942	928.374825
2865.189121	932.576923
2866.494536	933.764336
2867.801286	942.896503
2869.106273	931.093007
2870.411047	920.422378
2871.714059	920.318881
2873.019953	931.866434
2874.320992	930.703497
2875.623364	946.181119
2876.923977	949.320280
2878.225924	942.718881
2879.527658	942.464336
2880.826088	943.478322
2882.125851	935.966434
2883.423857	931.941259
2884.721651	913.479720
2886.017688	894.655944
2887.315059	888.191608
2888.610674	889.416084
2889.906079	875.646853
2891.201272	882.374126
2892.493167	873.714685
2893.787939	876.223077
2895.079415	880.689510
2896.372223	885.742657
2897.664821	890.107692
2898.954124	891.411888
2900.244760	902.875524
2901.533646	909.009790
2902.823863	919.296503
2904.110789	924.830070
2905.399047	906.333566
2906.685556	919.727273
2907.971856	914.112587
2909.257948	911.580420
2910.542292	903.749650
2911.829508	907.871329
2913.111897	913.220979
2914.395618	905.801399
2915.677592	904.384615
2916.959360	899.066434
2918.239382	899.053846
2919.522274	902.024476
2920.803421	891.109790
2922.081286	903.097902
2923.362020	893.695804
2924.639473	892.590210
2925.916721	888.632867
2927.192226	892.856643
2928.470599	896.027972
2929.744157	887.311888
2931.020583	887.869231
2932.295268	894.884615
2933.568213	892.905594
2934.842488	898.359441
2936.115024	900.360839
2937.387356	901.772727
2938.656415	899.476923
2939.928339	902.300000
2941.198525	908.398601
2942.468507	904.952448
2943.738286	904.390210
2945.006328	895.948951
2946.272635	883.530769
2947.538739	868.618881
2948.806174	863.646154
2950.071873	871.558741
2951.337370	863.703497
2952.602665	856.010490
2953.864696	860.876224
2955.128056	859.791608
2956.391215	866.229371
2957.652641	863.467832
2958.915397	870.966434
2960.176422	859.523776
2961.435716	849.288811
2962.694809	856.161538
2963.953702	863.059441
2965.212395	868.072727
2966.470888	867.272727
2967.727652	864.297203
2968.984217	858.018881
2970.239053	856.274126
2971.495219	859.838462
2972.748129	867.421678
2974.002369	859.708392
2975.256410	857.474825
2976.508725	861.072028
2977.760842	868.892308
2979.011234	867.220280
2980.264481	876.674825
2981.512951	883.850350
2982.764275	873.275524
2984.012351	874.830070
2985.260229	877.593007
2986.507910	883.190210
2987.755395	873.672028
2989.001158	865.177622
2990.246724	863.933566
2991.493619	854.984615
2992.737268	850.108392
2993.982246	844.269231
2995.223981	838.917483
2996.468567	834.453846
2997.711434	831.586014
2998.951059	839.320280
3000.193536	847.444755
3001.432772	854.913986
3002.673336	848.902098
3003.912183	852.309091
3005.150836	852.658042
3006.387773	848.569231
3007.626037	859.187413
3008.862587	850.416783
3010.098943	844.512587
3011.335105	841.405594
3012.569553	840.590210
3013.803808	832.316084
3015.037870	829.791608
3016.270220	816.194406
3017.500858	828.553147
3018.734342	824.694406
3019.966115	834.982517
3021.196176	835.858741
3022.426046	856.113287
3023.654206	860.443357
3024.883693	864.402098
3026.111470	865.130070
3027.339056	869.011888
3028.567968	866.881818
3029.792138	860.211189
3031.019151	851.151049
3032.242941	858.805594
3033.468056	849.184615
3034.691465	850.823776
3035.914685	841.031469
3037.136199	842.609091
3038.360554	830.025175
3039.580174	828.704895
3040.801120	824.148951
3042.021876	835.461538
3043.240929	837.527273
3044.461308	833.386713
3045.678470	828.044056
3046.896957	837.105594
3048.113743	845.572727
3049.330340	846.627273
3050.546750	840.839860
3051.759946	845.153147
3052.975980	836.903497
3054.188802	831.539161
3055.404461	819.976224
3056.615397	822.664336
3057.827659	814.797902
3059.039733	807.348951
3060.251621	789.956643
3061.461811	784.872727
3062.671816	785.099301
3063.881634	789.333566
3065.089756	785.329371
3066.297692	790.130769
3067.503934	782.988112
3068.711500	785.861538
3069.917371	785.607692
3071.123057	796.012587
3072.328559	807.313287
3073.532367	805.360140
3074.737499	807.462238
3075.940938	806.718881
3077.142685	803.161538
3078.344249	800.495105
3079.545629	786.579720
3080.746825	783.851748
3081.946331	774.100000
3083.145653	770.667133
3084.346299	745.841958
3085.545256	747.948951
3086.741017	745.246154
3087.939608	746.988112
3089.135005	759.437762
3090.331726	756.148951
3091.525254	756.678322
3092.721610	753.555245
3093.916279	751.960140
3095.107758	756.769231
3096.303568	749.217483
3097.494685	747.813986
3098.687125	738.628671
3099.876376	746.604895
3101.068454	745.994406
3102.258848	753.989510
3103.446055	752.041259
3104.634586	750.847552
3105.824439	750.106993
3107.011107	727.233566
3108.197596	728.309790
3109.383905	728.297203
3110.571537	724.906294
3111.755986	729.297902
3112.938755	736.579021
3114.124348	750.832867
3115.308260	751.548951
3116.490494	753.266434
3117.672550	751.162937
3118.854427	755.802797
3120.036126	751.149650
3121.216148	742.570629
3122.394492	755.512587
3123.575658	763.502797
3124.753648	761.474825
3125.931461	768.208392
3127.109097	764.988811
3128.285058	768.130070
3129.460843	755.286713
3130.637948	749.816783
3131.813380	743.029371
3132.987138	732.828671
3134.159223	724.684615
3135.332629	719.868531
3136.505860	726.425175
3137.677418	730.641259
3138.850298	732.946154
3140.020010	736.775524
3141.191043	725.095804
3142.360405	727.550350
3143.528098	726.425175
3144.698606	734.508392
3145.864455	736.336364
3147.034614	724.937762
3148.200115	728.774126
3149.365443	725.414685
3150.530597	728.844056
3151.695578	729.330769
3152.861878	727.374126
3154.023525	725.249650
3155.186493	717.843357
3156.349287	719.040559
3157.511909	717.636364
3158.672866	722.776923
3159.833650	723.452448
3160.994263	719.834965
3162.153211	718.463636
3163.311987	723.981818
3164.470592	730.014685
3165.629025	734.237063
3166.787286	735.551049
3167.943885	734.594406
3169.098823	723.086014
3170.255080	723.334266
3171.409677	719.328671
3172.564102	719.301399
3173.716868	718.580420
3174.869464	715.044755
3176.021890	706.289510
3177.174145	714.541259
3178.326231	715.139860
3179.475170	717.633566
3180.626916	721.955944
3181.777005	718.516783
3182.925436	713.936364
3184.073699	723.004895
3185.221793	732.473427
3186.369717	727.734266
3187.515987	724.633566
3188.662088	728.909790
3189.806535	720.981119
3190.950813	719.938462
3192.094924	717.834965
3193.240353	711.176923
3194.382643	705.720280
3195.524765	701.830769
3196.666721	696.488112
3197.808509	699.137063
3198.950130	704.240559
3200.088615	706.358042
3201.228419	715.044056
3202.369539	735.114685
3203.507525	738.509091
3204.643862	761.285315
3205.780033	759.693007
3206.917522	750.279021
3208.053362	734.234266
3209.190518	727.650350
3210.323063	705.577622
3211.459888	694.256643
3212.592102	685.506993
3213.725634	682.562238
3214.859000	674.100000
3215.989239	682.067133
3217.122277	681.060839
3218.252187	690.316084
3219.383415	684.290909
3220.511517	687.041958
3221.642417	677.133566
3222.771672	677.981818
3223.899283	677.620979
3225.023773	687.686713
3226.152538	682.537762
3227.278181	680.906294
3228.403661	680.739860
3229.527500	691.417483
3230.654134	688.216084
3231.776169	692.141958
3232.899521	699.536364
3234.022711	697.404895
3235.145739	687.939161
3236.267127	685.040559
3237.388354	683.842657
3238.507942	686.606993
3239.627369	676.303497
3240.745159	677.540559
3241.865740	677.755944
3242.983208	681.148951
3244.100515	682.286713
3245.217661	692.913986
3246.333172	693.196503
3247.449998	691.404196
3248.563713	691.262937
3249.680219	688.520979
3250.795089	679.851049
3251.906851	676.822378
3253.018454	667.237762
3254.131372	666.826573
3255.244130	658.367133
3256.353782	660.332168
3257.464749	658.362238
3258.575557	666.078322
3259.684733	655.921678
3260.792278	665.009091
3261.901138	664.746853
3263.009839	668.340559
3264.115438	662.046154
3265.222352	662.832168
3266.327636	663.520979
3267.434234	671.651049
3268.537732	675.164336
3269.642544	688.779021
3270.747199	692.762238
3271.848756	705.225175
3272.950156	689.181119
3274.052870	686.033566
3275.155427	677.709790
3276.254889	667.892308
3277.357133	655.547552
3278.456283	649.340559
3279.553807	637.768531
3280.651176	636.416084
3281.751328	634.483916
3282.848386	636.024476
3283.945290	642.694406
3285.042038	648.961538
3286.134227	643.253147
3287.230666	642.286014
3288.325482	651.181119
3289.420143	656.212587
3290.513183	666.271329
3291.606069	665.427273
3292.697334	657.582517
3293.789912	648.188112
3294.880870	644.277622
3295.970208	636.497203
3297.059393	636.069231
3298.149890	636.902098
3299.237303	637.458042
3300.324564	641.800699
3301.413137	651.129371
3302.501557	653.440559
3303.585430	659.659441
3304.673545	651.555245
3305.758579	652.441259
3306.841997	652.874126
3307.926727	659.004196
3309.009841	656.697203
3310.094267	654.413287
3311.175615	648.983217
3312.258275	637.868531
3313.339321	631.756643
3314.420216	623.982517
3315.499498	618.159441
3316.578629	622.869231
3317.659072	615.978322
3318.736440	619.615385
3319.815120	626.041958
3320.892188	632.606993
3321.969106	637.641259
3323.044414	635.058741
3324.119572	627.253147
3325.196041	619.238462
3326.269439	623.750350
3327.342689	627.048951
3328.417250	636.136364
3329.490201	642.065035
3330.561545	641.595105
3331.634199	645.644755
3332.703786	652.881119
3333.774684	652.409091
3334.843975	657.179021
3335.914577	658.244056
3336.983572	653.035664
3338.050961	648.932168
3339.116745	643.562238
3340.186755	642.463636
3341.253702	643.001399
3342.317587	644.174825
3343.384240	640.948951
3344.449289	633.992308
3345.512734	630.106993
3346.576032	634.149650
3347.639185	642.271329
3348.702191	650.082517
3349.765050	650.270629
3350.826308	654.779021
3351.884509	644.503497
3352.946931	647.639161
3354.006296	642.470629
3355.065517	643.571329
3356.126046	638.072028
3357.182066	637.606993
3358.240851	643.311888
3359.295128	646.106993
3360.352169	647.173427
3361.407611	646.680420
3362.464362	642.300000
3363.519516	641.387413
3364.573072	630.407692
3365.625031	628.422378
3366.679752	619.229371
3367.731425	615.218881
3368.782953	620.937762
3369.835791	631.509790
3370.885581	628.176923
3371.936680	625.597902
3372.984732	630.290210
3374.035545	622.454545
3375.083312	625.041958
3376.130937	629.453846
3377.178420	629.013287
3378.224309	623.611888
3379.271508	610.750350
3380.315663	611.308392
3381.362577	609.175524
3382.407899	599.676923
3383.450181	589.576224
3384.492321	585.500000
3385.535770	584.788811
3386.579077	582.043357
3387.620794	588.997203
3388.662370	594.183916
3389.703806	603.289510
3390.743653	609.820979
3391.781911	611.925175
3392.821477	614.379720
3393.860903	611.779021
3394.898741	603.769231
3395.934992	602.244755
3396.971103	590.455245
3398.008522	587.474825
3399.042908	590.055944
3400.078602	590.393706
3401.114156	588.334965
3402.146678	594.476923
3403.181954	588.836364
3404.214199	589.892308
3405.246306	592.665035
3406.276829	602.174126
3407.308660	591.482517
3408.340352	593.330070
3409.369016	587.416783
3410.397542	595.518182
3411.427376	597.839860
3412.457072	598.626573
3413.483741	592.516084
3414.511718	598.114685
3415.536670	592.319580
3416.564372	601.075524
3417.589051	609.348951
3418.615036	609.144755
3419.639442	599.403497
3420.663710	600.645455
3421.686400	603.623776
3422.708955	607.125874
3423.732814	603.148252
3424.753654	603.974825
3425.774359	604.962837
3426.796369	606.543057
3427.815361	608.823876
3428.834218	611.913686
3429.854381	615.920879
3430.871526	620.953846
