-118.385087	4.605495
-115.715486	4.675824
-113.048821	4.407493
-110.382909	3.859940
-107.719928	3.092607
-105.055517	2.164935
-102.394037	1.136364
-99.731128	0.616084
-97.073326	-2.082517
-94.414093	-1.592308
-91.755609	-2.983217
-89.100050	-1.237063
-86.443062	-0.106993
-83.791171	2.371329
-81.137851	1.356643
-78.487451	3.524476
-75.835621	1.188811
-73.188882	3.695804
-70.540713	0.771329
-67.893288	-0.115385
-65.248776	-2.167832
-62.602835	-2.683916
-59.961977	-4.733566
-57.319688	-4.287413
-54.680309	-5.153147
-52.039501	-5.700699
-49.399432	-7.382517
-46.764437	-5.827273
-44.128012	-6.751748
-41.494491	-3.381818
-38.859540	-2.508392
-36.229656	0.948252
-33.596178	1.951748
-30.967763	2.761538
-28.340082	3.346853
-25.710973	4.898601
-23.086920	1.516783
-20.459278	-7.059441
-17.836689	-20.414685
-15.214831	-22.860839
-12.593704	31.827273
-9.973308	105.621678
-7.355799	164.197902
-4.736862	206.895804
-2.120811	226.570629
0.494512	229.688811
3.109108	213.025874
5.720822	180.374126
8.333963	127.916084
10.942071	65.134266
13.553761	3.181119
16.160420	-28.210490
18.768507	-8.559441
21.375870	3.390909
23.978208	2.139161
26.584124	1.409790
29.185019	-5.482517
31.787341	-6.502098
34.384645	-7.082517
36.985525	-4.058042
39.581391	-2.483916
42.178684	-1.397203
44.775258	-0.486713
47.366823	0.390210
49.959816	1.162238
52.549948	3.303497
55.141508	3.441259
57.730208	4.261538
60.320336	1.595804
62.905464	3.245455
65.492020	3.038462
68.077861	3.284615
70.660849	3.244755
73.245264	0.513986
75.822549	0.965035
78.403401	1.660140
80.981404	3.296503
83.558697	4.230769
86.137416	3.569930
88.711154	4.683217
91.286318	2.888112
93.858639	3.625874
96.430253	3.355245
98.999026	2.183217
101.569226	1.950350
104.136587	5.130070
106.705375	4.720280
109.271325	5.008392
111.834441	2.058042
114.401114	0.288112
116.958564	-4.448951
119.521700	-4.993007
122.079877	-5.860839
124.641607	-2.393706
127.198382	0.779720
129.756582	4.674126
132.309830	14.658042
134.862379	27.141259
137.418480	34.055245
139.969632	45.921678
142.520086	53.978322
145.069844	62.638462
147.616782	68.962238
150.163024	77.935664
152.710693	82.513986
155.257665	88.030769
157.799701	88.426573
160.341044	89.255944
162.881695	88.591608
165.423770	86.074825
167.963035	83.376923
170.499490	83.055944
173.035255	80.709091
175.572445	81.425874
178.108943	81.511189
180.642636	83.508392
183.173526	84.308392
185.703727	86.802098
188.235353	83.872727
190.764179	83.561538
193.290205	79.469231
195.815545	79.003497
198.342310	77.256643
200.866279	75.362238
203.389562	74.530070
205.912161	75.974126
208.431967	76.090909
210.951090	80.160839
213.469530	80.489510
215.989394	81.957343
218.502257	80.025175
221.018651	84.018881
223.534364	83.906993
226.045186	87.735664
228.557433	86.066434
231.066897	84.959441
233.575683	82.216084
236.083791	81.055245
238.593323	81.158042
241.097974	79.951049
243.601949	75.767133
246.107348	78.511888
248.607872	77.471329
251.111919	79.153147
253.608996	77.720280
256.109595	79.638462
258.607423	81.297203
261.104578	84.475524
263.601060	84.924476
266.092680	88.794406
268.587818	91.786713
271.080191	94.797902
273.571893	97.756643
276.060832	104.404895
278.551194	109.202797
281.038795	123.507692
283.523636	145.107692
286.011991	182.697203
288.493408	235.172727
290.978338	287.737063
293.458422	328.580420
295.942019	354.506993
298.420774	357.811189
300.900951	340.318881
303.378377	303.851748
305.855139	252.846154
308.331237	198.194406
310.804587	148.063636
313.277276	107.710490
315.749303	90.567832
318.220668	87.011888
320.689290	88.427273
323.157252	91.534965
325.626637	96.495804
328.091199	95.497902
330.559264	93.125874
333.022510	93.153147
335.485099	93.653147
337.947030	93.624476
340.408305	94.862238
342.866846	94.679021
345.326809	97.016783
347.784040	94.593706
350.240616	95.958042
352.696537	94.836364
355.149730	92.504895
357.604345	88.543357
360.054158	86.232168
362.507467	85.349650
364.955977	87.210490
367.403837	86.123077
369.853118	86.805594
372.297606	81.958042
374.743516	79.904196
377.188777	76.733566
379.631319	78.116084
382.073213	74.853846
384.514459	70.726573
386.952990	72.032168
389.392943	71.400000
391.830182	74.438462
394.264709	78.036364
396.702724	79.870629
399.135962	83.018881
401.570622	82.953846
404.000509	84.162937
406.433881	83.939860
408.862482	85.550350
411.290443	83.803497
413.719824	83.774825
416.144441	82.780420
418.570478	83.934266
420.995876	86.586014
423.420633	85.570629
425.840631	84.693007
428.262051	86.181119
430.680774	83.881818
433.100918	81.425175
435.518367	77.525874
437.937236	77.636364
440.353412	76.622378
442.764841	78.797902
445.179746	79.455944
447.591961	85.769231
450.003542	87.613287
452.414489	88.748252
454.822750	89.170629
457.230379	88.286713
459.637375	84.231469
462.043739	84.500000
464.447422	80.720280
466.850474	81.250350
469.252896	76.842657
471.654688	78.202098
474.053802	79.427972
476.454336	82.053147
478.854241	84.732168
481.249423	86.081818
483.648072	85.686014
486.042001	86.084615
488.435304	86.473427
490.827981	89.982517
493.220033	88.018182
495.613504	87.718182
498.002262	83.867133
500.388354	84.622378
502.775866	84.139860
505.162754	85.085315
507.546979	84.135664
509.932623	81.279021
512.315604	78.698601
514.695925	79.690210
517.077665	77.854545
519.456746	77.708392
521.837246	76.125874
524.215088	75.102797
526.590275	74.349650
528.964844	74.516783
531.340832	75.783217
533.714166	74.269231
536.088919	72.325175
538.458985	75.983217
540.828436	76.162238
543.199306	77.551049
545.565494	75.204895
547.933101	74.746853
550.298062	74.564336
552.662410	74.830769
555.026146	75.388112
557.391299	75.741259
559.751780	77.682517
562.113678	76.367133
564.472937	75.750350
566.829557	80.575524
569.189623	77.196503
571.542997	77.096503
573.899816	73.888811
576.254000	74.979720
578.607575	74.879021
580.960542	75.818881
583.310878	75.406294
585.662630	75.037063
588.007706	73.755245
590.358246	74.457343
592.702113	72.220280
595.051441	77.139161
597.396120	73.872028
599.738175	73.588811
602.081647	73.621678
604.422496	75.667832
606.762742	74.786713
609.100368	75.141958
611.441429	73.574825
613.777853	74.503497
616.115693	72.955944
618.450915	74.997902
620.783522	73.226573
623.117546	76.428671
625.448955	71.963636
627.779766	70.593007
630.109979	70.018881
632.439595	69.886713
634.764587	68.577622
637.095021	70.369231
639.420833	69.716783
641.744039	71.912587
644.068661	71.454545
646.390677	72.002098
648.712099	68.597902
651.030918	69.332168
653.351153	66.079720
655.670795	66.370629
657.987836	66.432867
660.304286	66.160839
662.618137	64.642657
664.933403	65.795105
667.246073	66.103497
669.560158	68.687413
671.869644	69.707692
674.180544	71.925874
676.488852	68.527972
678.796572	71.434965
681.105707	68.620979
683.410249	70.644755
685.714205	70.541259
688.017574	68.679021
690.322358	67.298601
692.622556	66.642657
694.924169	70.432168
697.225196	70.984615
699.521642	70.353846
701.819502	72.115385
704.116780	68.550350
706.413473	69.369930
708.705591	65.839161
711.001120	67.034965
713.292076	67.144755
715.584446	68.502098
717.874240	70.099301
720.163455	70.121678
722.452089	76.458042
724.738152	78.419580
727.025628	77.220979
729.310534	78.913287
731.594861	76.834965
733.876621	75.341958
736.159794	72.704895
738.442390	73.181119
740.720430	72.326573
742.999884	76.614685
745.278763	75.203497
747.557066	75.926573
749.830820	80.385315
752.105988	80.381119
754.380582	76.432867
756.652617	74.276224
758.926065	70.741958
761.196955	68.251049
763.465288	66.928671
765.735036	67.158042
768.002228	66.506294
770.268850	68.495804
772.534903	65.119580
774.798404	68.987413
777.063317	69.995804
779.327662	68.265035
781.587476	66.843357
783.848704	69.397902
786.109364	70.356643
788.367477	71.818881
790.623046	73.523077
792.882006	73.906993
795.134467	71.541259
797.392295	70.078322
799.645604	65.979021
801.896372	66.037762
804.148553	62.099301
806.398196	62.600000
808.649250	64.183217
810.895793	67.860140
813.143749	70.753147
815.389169	74.329371
817.636002	76.809091
819.882272	77.667832
822.124039	77.281818
824.369188	78.397203
826.607865	74.769930
828.849925	75.069930
831.087486	71.944056
833.326458	71.666434
835.562904	68.508392
837.800762	70.080420
840.036094	72.939161
842.268902	73.497203
844.503122	72.347552
846.734820	74.016783
848.965963	77.430070
851.196551	79.620979
853.426585	79.770629
855.656064	80.918881
857.881063	79.952448
860.109435	79.275524
862.333329	80.740559
864.558633	85.203497
866.779462	82.894406
869.003663	80.623776
871.223391	77.148252
873.444530	77.368531
875.665118	78.539860
877.883197	78.004895
880.102685	74.906294
882.317707	74.949650
884.532181	74.210490
886.746108	74.809091
888.959487	74.949650
891.172320	75.241958
893.384605	70.560839
895.594389	70.357343
897.803627	67.314685
900.012319	68.060839
902.218513	68.285315
904.426116	69.667832
906.631222	68.995804
908.835784	73.806993
911.037851	74.343357
913.241327	77.487413
915.442309	76.483217
917.642749	78.439860
919.844598	79.188112
922.040056	81.204196
924.238872	79.602797
926.433251	82.113986
928.630987	79.322378
930.824287	80.613986
933.018995	79.295105
935.211218	84.301399
937.402903	82.935664
939.594050	84.920979
941.782714	81.133566
943.970841	83.038462
946.156488	81.114685
948.345487	84.495804
950.530063	82.767133
952.714104	83.350350
954.901495	78.639860
957.080583	81.324476
959.263020	81.827972
961.444924	83.515385
963.624354	83.648252
965.801311	81.893706
967.979676	79.813986
970.159447	78.937762
972.332870	74.743357
974.509639	76.864336
976.682002	75.575524
978.855771	76.156643
981.025138	72.086014
983.197848	72.755245
985.368092	74.040559
987.537808	76.571329
989.706995	78.573427
991.871785	77.751748
994.039917	80.023077
996.203653	78.763636
998.368797	78.897902
1000.531481	83.041259
1002.693640	84.053147
1004.853341	85.887413
1007.012519	81.908392
1009.173103	83.271329
1011.331232	86.460839
1013.488837	87.994406
1015.645919	84.962937
1017.802478	85.774825
1019.954657	83.344755
1022.108243	84.721678
1024.261306	83.390210
1026.411922	84.783916
1028.563943	81.481818
1030.711591	78.527972
1032.862571	75.651748
1035.009181	74.497902
1037.155271	77.187413
1039.300843	78.470629
1041.447819	78.163636
1043.588508	79.868531
1045.732525	80.688811
1047.874103	87.953846
1050.015163	90.511888
1052.157628	91.209091
1054.293814	90.918881
1056.433326	91.123077
1058.568482	93.339860
1060.706963	92.637063
1062.841091	95.098601
1064.974705	93.988112
1067.109723	88.311189
1069.240392	84.077622
1071.372467	81.145455
1073.502111	83.539860
1075.631244	77.298601
1077.759866	72.893007
1079.887976	77.037063
1082.013660	79.104196
1084.138834	80.796503
1086.265411	80.511189
1088.387652	79.955245
1090.511297	82.131469
1092.630607	79.583217
1094.755146	82.289510
1096.873441	84.806993
1098.993139	86.538462
1101.110419	79.362238
1103.227193	81.262937
1105.343460	83.093007
1107.457312	82.919580
1109.572567	79.611888
1111.683500	77.112587
1113.797744	73.271329
1115.907669	77.341259
1118.018996	75.946154
1120.129820	79.792308
1122.236327	81.448951
1124.346143	84.158741
1126.451645	81.842657
1128.558551	90.121678
1130.659240	90.735664
1132.765142	94.001399
1134.866735	93.013287
1136.969731	94.683217
1139.072226	89.385315
1141.168515	93.128671
1143.270010	87.958042
1145.367203	84.934266
1147.463897	80.752448
1149.560094	78.422378
1151.655792	73.814685
1153.750993	77.011888
1155.843797	74.362937
1157.938003	78.907692
1160.026018	78.171329
1162.119231	82.508392
1164.206256	82.815385
1166.296581	89.520979
1168.382617	87.758042
1170.471951	87.939860
1172.555104	89.496503
1174.639660	89.980420
1176.725616	87.676224
1178.807291	86.066434
1180.890368	84.316783
1182.971059	84.593706
1185.051259	82.350350
1187.130967	86.072028
1189.210183	87.420280
1191.287018	91.161538
1193.361472	91.553846
1195.439218	94.156643
1197.512693	94.546154
1199.587570	94.845455
1201.658179	90.748951
1203.730189	88.374126
1205.799823	83.619580
1207.870858	80.558042
1209.941405	78.292308
1212.007691	77.679720
1214.075378	78.104196
1216.140693	80.360839
1218.207408	78.494406
1220.269867	78.383217
1222.335612	77.301399
1224.397102	81.950350
1226.459992	81.869231
1228.520515	84.641958
1230.580555	81.774825
1232.640111	83.474126
1234.697303	86.372028
1236.754012	85.254545
1238.808359	84.315385
1240.865986	87.319580
1242.921251	83.783217
1244.972275	87.613287
1247.024699	89.645455
1249.076644	93.581818
1251.126230	96.232867
1253.175337	99.309790
1255.223965	98.502797
1257.272115	102.151049
1259.319787	101.887413
1261.363228	97.332867
1263.409944	95.154545
1265.454308	94.167133
1267.498194	91.465035
1269.539730	94.711888
1271.578916	95.982517
1273.621374	96.621678
1275.659611	98.223077
1277.699245	98.113986
1279.738405	94.994406
1281.773347	94.795804
1283.809687	91.655245
1285.843682	90.712587
1287.879076	92.753846
1289.910256	94.153846
1291.942835	93.209790
1293.974941	96.285315
1296.004707	99.619580
1298.035871	101.029371
1300.062827	101.409091
1302.091181	101.595105
1304.115331	98.006993
1306.142746	97.069231
1308.165958	94.974126
1310.190568	95.193007
1312.212843	96.498601
1314.236516	96.702797
1316.257856	94.551049
1318.278729	96.977622
1320.299134	94.332168
1322.315345	92.170629
1324.332955	89.437063
1326.348236	91.381119
1328.366776	88.363636
1330.381126	89.188112
1332.393151	88.956643
1334.408434	89.385315
1336.419531	92.007692
1338.432024	95.250350
1340.440335	95.348252
1342.451902	96.309091
1344.457430	92.516783
1346.466212	88.906993
1348.470818	86.685315
1350.478677	88.844755
1352.486073	86.121678
1354.487439	85.107692
1356.490202	81.990210
1358.492505	80.476923
1360.494347	80.008392
1362.495731	80.389510
1364.494800	78.537063
1366.493411	82.829371
1368.491564	84.490210
1370.489259	84.681119
1372.482790	85.973427
1374.477718	92.142657
1376.472189	91.753147
1378.466203	91.597902
1380.457910	91.820979
1382.449161	88.934266
1384.438107	87.754545
1386.428448	87.469231
1388.418334	81.853846
1390.405917	83.511189
1392.393046	82.152448
1394.377873	81.996503
1396.364095	83.537762
1398.348016	89.229371
1400.331485	88.790210
1402.314502	90.718881
1404.295221	91.749650
1406.277334	89.248252
1408.257150	89.411189
1410.236516	89.679720
1412.211743	87.406993
1414.190208	89.530070
1416.166380	89.601399
1418.142102	92.325175
1420.117375	91.904196
1422.090357	94.674825
1424.062892	94.370629
1426.034978	95.390909
1428.006616	94.488112
1429.974127	92.727972
1431.946711	87.837063
1433.911489	90.432168
1435.881340	90.393706
1437.847066	91.654545
1439.814186	94.566434
1441.779022	93.990210
1443.739738	92.968531
1445.705522	97.479021
1447.665351	99.127273
1449.626573	102.574126
1451.589188	103.304895
1453.547688	105.130070
1455.505746	102.116783
1457.463361	105.745455
1459.420535	104.230769
1461.375433	105.361538
1463.331723	103.737762
1465.285739	100.639860
1467.239315	99.719580
1469.190618	99.040559
1471.143313	99.306993
1473.093737	101.838462
1475.043722	100.240559
1476.993267	99.409790
1478.940544	94.674126
1480.885554	94.884615
1482.831956	94.153846
1484.777920	94.304196
1486.723446	89.021678
1488.666708	90.712587
1490.609533	92.318881
1492.550095	90.653147
1494.492048	93.265035
1496.431740	92.555245
1498.370996	91.296503
1500.309818	92.450350
1502.246380	91.843357
1504.184332	93.033566
1506.120027	94.000699
1508.055288	91.112587
1509.988292	89.718881
1511.920864	91.806294
1513.853004	94.074126
1515.784712	92.127273
1517.714167	95.688112
1519.645011	95.516783
1521.575425	96.922378
1523.501766	97.434266
1525.429497	96.745455
1527.354978	98.775524
1529.280030	98.569231
1531.204653	94.960140
1533.128847	93.067832
1535.050794	93.901399
1536.974130	97.076923
1538.895221	98.100699
1540.814067	102.027972
1542.734303	100.004895
1544.652295	97.525874
1546.569861	99.339860
1548.485185	98.618881
1550.401899	97.929371
1552.314558	93.061538
1554.230421	91.383217
1556.144045	86.990909
1558.055430	92.969231
1559.968204	93.481818
1561.876929	95.189510
1563.787044	97.263636
1565.696735	97.858042
1567.606002	100.926573
1569.513036	101.892308
1571.417837	100.204895
1573.324027	102.337762
1575.227985	101.595804
1577.131523	104.291608
1579.034639	102.315385
1580.935527	107.462238
1582.837803	104.972727
1584.737850	105.403497
1586.639286	102.563636
1588.536687	102.981818
1590.433671	101.011189
1592.330236	97.509790
1594.228188	98.176224
1596.120306	99.378322
1598.015618	98.851748
1599.910511	102.335664
1601.803183	99.554545
1603.695439	99.213986
1605.585475	95.469231
1607.475095	95.518881
1609.364300	91.104895
1611.253089	91.765734
1613.139662	89.731469
1615.027621	89.079720
1616.911565	88.690909
1618.796895	90.700699
1620.681812	91.633566
1622.564515	93.483217
1624.448604	91.979021
1626.328683	93.934266
1628.210148	95.396503
1630.089403	99.381119
1631.970044	100.716783
1633.844881	107.051049
1635.724700	107.152448
1637.600513	107.821678
1639.475917	107.722378
1641.352706	109.209790
1643.223698	104.030769
1645.097872	101.689510
1646.968048	100.877622
1648.841404	100.775524
1650.712557	98.504895
1652.581508	96.786014
1654.451845	93.471329
1656.318188	95.591608
1658.185918	91.070629
1660.051448	90.039161
1661.918363	89.601399
1663.781290	89.382517
1665.645602	88.776224
1667.507719	90.627972
1669.369430	89.013986
1671.232526	91.251049
1673.093428	92.093007
1674.952136	92.257343
1676.810441	92.106993
1678.670131	95.958042
1680.524054	93.018182
1682.381149	93.288112
1684.237842	93.311189
1686.090559	93.449650
1687.946447	91.500000
1689.798361	88.460839
1691.649873	82.981818
1693.500986	84.620280
1695.351697	81.783916
1697.202008	77.993007
1699.050135	77.035664
1700.899645	77.594406
1702.743407	77.451748
1704.592119	79.657343
1706.435084	79.671329
1708.281215	85.099301
1710.123385	83.881818
1711.968719	90.546154
1713.808313	90.031469
1715.649291	90.365035
1717.491652	87.766434
1719.330057	82.290210
1721.169845	81.159441
1723.007458	77.790909
1724.844675	74.778322
1726.679719	74.641259
1728.516146	74.018881
1730.350401	82.437762
1732.184262	83.568531
1734.017728	89.419580
1735.847248	87.995804
1737.679927	92.009790
1739.508662	91.878322
1741.340555	92.070629
1743.168505	89.580420
1744.996063	82.986713
1746.823230	80.218182
1748.650004	78.718881
1750.476388	74.302797
1752.298835	74.874825
1754.124436	73.623077
1755.946103	74.090210
1757.769152	74.290210
1759.590040	76.895105
1761.410538	77.800000
1763.232418	79.624476
1765.048598	76.653147
1766.867930	77.630070
1768.683335	76.387413
1770.501891	76.217483
1772.316521	76.212587
1774.130764	76.548951
1775.944621	79.634965
1777.758091	80.397902
1779.569407	81.583217
1781.382105	82.283217
1783.194416	82.482517
1785.002810	83.869231
1786.812585	85.144755
1788.618444	86.090909
1790.427450	83.707692
1792.232542	89.018881
1794.039014	88.912587
1795.845103	84.328671
1797.647282	84.927273
1799.452604	82.432867
1801.254018	81.217483
1803.056812	83.657343
1804.855701	81.805594
1806.655969	83.378322
1808.455857	82.232867
1810.253602	85.213287
1812.050967	83.592308
1813.847951	86.645455
1815.644555	84.083217
1817.439020	78.628671
1819.234865	77.781119
1821.025054	78.518182
1822.820140	79.578322
1824.609573	85.789510
1826.402144	83.634965
1828.192579	84.766434
1829.980879	80.105594
1831.772315	79.057343
1833.558105	73.614685
1835.345275	76.002797
1837.130313	76.979720
1838.918485	73.300699
1840.702771	72.329371
1842.484928	76.588811
1844.268463	79.418881
1846.049871	82.388811
1847.832656	81.880420
1849.611562	82.642657
1851.391846	79.246154
1853.170005	82.069930
1854.949541	84.264336
1856.726953	88.127273
1858.502241	89.247552
1860.278908	86.928671
1862.053452	86.565035
1863.829373	89.502098
1865.599675	87.838462
1867.373104	85.586713
1869.144413	85.969231
1870.915351	88.857343
1872.687666	85.807692
1874.454369	89.109790
1876.224196	87.526573
1877.990160	89.150350
1879.759248	87.491608
1881.524474	87.761538
1883.289332	90.804895
1885.055566	90.757343
1886.817942	91.158741
1888.579951	90.963636
1890.341593	91.093706
1892.102867	93.154545
1893.863775	89.708392
1895.624315	92.286713
1897.382746	89.917483
1899.140812	89.860140
1900.896770	88.078322
1902.654104	88.556643
1904.411072	88.109790
1906.165935	87.474825
1907.918692	86.693706
1909.671086	80.743357
1911.424856	77.102098
1913.176522	78.004895
1914.926085	74.466434
1916.677025	74.075524
1918.427601	70.426573
1920.174339	66.427972
1921.922452	65.241958
1923.668466	70.688112
1925.415856	72.639161
1927.161147	76.178322
1928.904341	75.195105
1930.648911	77.622378
1932.391384	78.776923
1934.133497	83.469930
1935.875251	83.669930
1937.616644	83.990909
1939.355944	79.067832
1941.094885	78.170629
1942.833467	81.520280
1944.569957	86.589510
1946.306090	85.817483
1948.043597	85.619580
1949.777283	85.917483
1951.512343	88.965734
1953.245314	86.729371
1954.977929	89.888112
1956.710187	86.949650
1958.442089	83.305594
1960.171905	79.969231
1961.899637	80.686713
1963.628742	81.307692
1965.357493	81.568531
1967.084160	83.298601
1968.810473	85.595804
1970.538159	87.523077
1972.260309	87.211888
1973.985561	86.305594
1975.707005	86.525874
1977.431549	82.400000
1979.154014	80.228671
1980.872675	78.711888
1982.594435	77.506993
1984.312393	76.932867
1986.031725	78.730769
1987.747256	79.200000
1989.467609	81.513986
1991.184162	81.436364
1992.896920	78.348951
1994.612773	75.358042
1996.326554	74.955944
1998.039984	75.111888
1999.751344	77.852448
2001.464077	82.158741
2003.173018	86.804895
2004.885053	86.388112
2006.591578	88.437762
2008.301196	87.048252
2010.008746	87.469930
2011.715949	85.420280
2013.421086	79.973427
2015.125876	74.508392
2016.832038	75.204196
2018.534418	74.367832
2020.238170	75.912587
2021.939859	77.362937
2023.641202	78.344755
2025.342200	77.946154
2027.041138	81.848252
2028.741447	82.025874
2030.437980	84.108392
2032.135885	84.119580
2033.831732	81.066434
2035.530664	79.315385
2037.224110	83.620280
2038.918927	84.921678
2040.613401	83.869231
2042.304107	81.426573
2043.997897	83.039860
2045.687920	85.916084
2047.379314	88.912587
2049.068655	88.943357
2050.759366	90.218881
2052.446315	91.055245
2054.132923	87.905594
2055.820902	85.436364
2057.505121	86.236364
2059.190710	83.355944
2060.875960	79.076224
2062.559162	74.704895
2064.243734	75.316084
2065.922842	75.069930
2067.606736	76.893706
2069.285170	77.657343
2070.966681	79.707692
2072.644440	82.244755
2074.321863	79.941259
2076.000655	77.809091
2077.677404	79.858741
2079.352112	79.154545
2081.028189	79.656643
2082.702226	79.504196
2084.375927	81.410490
2086.049293	83.718881
2087.720621	88.686014
2089.391614	87.872727
2091.062273	86.675524
2092.732598	82.038462
2094.402588	78.744755
2096.070543	75.509091
2097.738165	76.618881
2099.403753	76.648951
2101.070709	80.652448
2102.735632	82.101399
2104.400222	83.671329
2106.062781	85.194406
2107.726709	88.881119
2109.388605	86.369231
2111.050170	86.437762
2112.711405	85.472028
2114.370610	86.555245
2116.029486	84.491608
2117.688031	86.779021
2119.346247	87.968531
2121.000739	89.117483
2122.658297	85.863636
2124.315524	84.241958
2125.969031	81.432867
2127.623905	80.005594
2129.275060	78.988811
2130.929278	81.305594
2132.579778	83.025175
2134.231646	80.639161
2135.878105	79.044056
2137.529318	80.621678
2139.176818	79.892308
2140.825686	78.625175
2142.472534	75.711189
2144.119056	77.249650
2145.765254	75.730070
2147.407742	75.523077
2149.053289	78.101399
2150.695129	78.239161
2152.340026	77.891608
2153.981218	73.680420
2155.622086	74.550350
2157.262631	73.891608
2158.901163	73.353147
2160.541061	73.667832
2162.177259	73.442657
2163.814823	79.651049
2165.452065	79.688112
2167.087297	84.264336
2168.722207	84.243357
2170.356796	82.811189
2171.991064	83.124476
2173.621638	82.148951
2175.255263	84.457343
2176.885197	81.262238
2178.516496	79.977622
2180.145791	80.281818
2181.774765	80.502098
2183.403421	82.648252
2185.031757	81.062937
2186.658090	81.822378
2188.284105	79.283217
2189.908119	80.309091
2191.533498	80.916783
2193.156876	81.970629
2194.781619	82.848951
2196.402680	77.443357
2198.023426	75.064336
2199.645535	74.358042
2201.265647	70.969930
2202.883763	73.961538
2204.501563	74.954545
2206.119047	76.406993
2207.736216	77.953846
2209.353070	80.174126
2210.969609	79.808392
2212.584154	82.007692
2214.196707	80.453846
2215.810625	79.972727
2217.422550	77.948951
2219.035840	77.190909
2220.647138	75.532168
2222.256448	79.746853
2223.867120	78.075524
2225.475804	75.609790
2227.084176	73.677622
2228.690560	73.031469
2230.298308	72.455944
2231.904069	73.126573
2233.509519	73.426573
2235.112985	76.503497
2236.717813	74.465035
2238.320657	75.125175
2239.921518	75.553147
2241.523742	77.551748
2243.123983	75.491608
2244.725588	74.485315
2246.323539	74.261538
2247.922853	74.768531
2249.520187	76.103497
2251.117213	80.681818
2252.715600	82.744056
2254.310339	86.854545
2255.903102	86.983217
2257.497226	86.322378
2259.092712	86.869231
2260.684554	87.188112
2262.276089	82.313986
2263.868985	83.838462
2265.456572	80.696503
2267.048856	80.900699
2268.635832	82.065035
2270.225837	85.970629
2271.810537	84.772028
2273.399931	89.674825
2274.984022	86.862238
2276.569475	84.762238
2278.152959	84.703497
2279.739468	84.909790
2281.322344	80.259441
2282.904916	79.861189
2284.487186	75.830769
2286.065825	76.057692
2287.647488	74.613287
2289.225524	74.189860
2290.806582	73.038462
2292.384013	73.920629
2293.959481	74.578322
2295.537971	76.937413
2297.112836	78.488112
2298.687401	79.245804
2300.261666	74.944755
2301.835630	72.168182
2303.409294	74.664336
2304.982657	73.945455
2306.552402	74.195804
2308.121848	74.741259
2309.694313	76.432867
2311.261503	78.893706
2312.831710	83.655245
2314.398303	86.370629
2315.966256	85.080420
2317.532254	83.440559
2319.097954	81.733566
2320.663356	83.025175
2322.226805	85.037063
2323.791613	82.437762
2325.352812	78.393007
2326.917026	77.195804
2328.475979	79.662238
2330.037945	80.497902
2331.597961	81.750350
2333.157681	82.929371
2334.715452	77.039161
2336.272929	76.241259
2337.830110	76.802797
2339.385345	78.744755
2340.940285	77.259441
2342.494932	78.931469
2344.049285	73.755944
2345.603344	76.998601
2347.157110	78.981119
2348.708931	76.795105
2350.258809	76.827273
2351.811695	75.209091
2353.359339	73.456643
2354.909990	79.382517
2356.457051	76.856643
2358.005469	79.686014
2359.553595	78.072727
2361.098134	78.333566
2362.644030	75.318182
2364.187987	76.745455
2365.733302	72.578322
2367.275032	70.549650
2368.818120	70.517483
2370.359271	70.474126
2371.900133	71.495804
2373.440706	75.035664
2374.980990	71.061538
2376.520985	72.110490
2378.057401	65.752448
2379.596819	65.495804
2381.132660	67.302797
2382.669857	68.083916
2384.203480	66.424476
2385.740102	64.503497
2387.274793	67.323077
2388.807555	67.365035
2390.340031	67.166434
2391.870578	71.625175
2393.404123	72.059441
2394.932457	74.833566
2396.462147	73.783217
2397.991552	74.660140
2399.520672	73.869930
2401.049506	74.327972
2402.573136	69.984615
2404.101401	65.990909
2405.624463	68.595105
2407.152160	68.828671
2408.673016	68.679720
2410.198506	72.637063
2411.720436	71.927972
2413.243720	73.726573
2414.765084	74.853846
2416.284528	74.678322
2417.805327	75.869930
2419.324207	76.996503
2420.842805	74.858741
2422.359486	71.720979
2423.877522	76.307692
2425.395276	77.040559
2426.909478	75.006294
2428.423400	75.851748
2429.937043	70.531469
2431.452039	72.448252
2432.963487	75.760839
2434.476290	76.093007
2435.987180	76.111888
2437.497790	77.920979
2439.006489	75.653147
2440.518175	75.407692
2442.026317	80.667832
2443.534180	79.976224
2445.041766	78.544056
2446.545812	77.431469
2448.052842	74.106294
2449.557964	78.672028
2451.062809	79.930769
2452.565747	80.509091
2454.068408	79.731469
2455.570793	78.368531
2457.071273	75.228671
2458.573106	77.794406
2460.073035	73.727273
2461.572688	74.260140
2463.072066	71.335664
2464.569541	69.769231
2466.065114	70.387413
2467.563667	75.371329
2469.058691	74.884615
2470.555069	77.852448
2472.047920	77.113986
2473.542123	77.472028
2475.036053	77.369231
2476.526460	76.401399
2478.019844	73.978322
2479.511329	76.660140
2481.000918	77.949650
2482.490236	78.030070
2483.977657	80.825175
2485.468054	80.986014
2486.954932	81.458042
2488.443162	81.727273
2489.927876	78.719580
2491.412319	76.917483
2492.898114	72.122378
2494.382016	70.432867
2495.867270	69.124476
2497.347390	73.370629
2498.830482	75.078322
2500.311684	76.269231
2501.792617	78.386713
2503.271661	78.783916
2504.750437	80.193007
2506.228944	79.289510
2507.707182	74.862238
2509.185152	74.164336
2510.659618	69.620979
2512.137052	67.609790
2513.610983	67.535664
2515.086265	69.693706
2516.561279	71.232168
2518.032792	76.151049
2519.505656	79.177622
2520.976637	80.731469
2522.448967	83.329371
2523.916185	81.100000
2525.386369	78.754545
2526.854671	79.665734
2528.322709	73.746853
2529.790482	73.557343
2531.257990	71.465035
2532.725233	70.280420
2534.188985	74.284615
2535.654086	77.702797
2537.117310	75.957343
2538.581883	76.141958
2540.042967	74.914685
2541.505402	71.413287
2542.967573	70.990210
2544.426257	68.827273
2545.889514	68.778322
2547.347674	74.815385
2548.807183	70.234965
2550.261599	74.465734
2551.720585	74.714685
2553.177698	78.689510
2554.632941	72.603497
2556.087923	73.034266
2557.541035	68.757343
2558.995496	68.958741
2560.448088	65.809091
2561.900420	67.267133
2563.350884	70.178322
2564.804304	77.441259
2566.252642	75.620979
2567.703936	81.395804
2569.153363	79.395804
2570.599319	81.492308
2572.048229	72.995105
2573.493668	73.665734
2574.940456	71.188112
2576.385380	74.059441
2577.830047	71.359441
2579.276061	70.800000
2580.718608	70.764336
2582.162503	71.525175
2583.602933	68.086713
2585.044711	69.910490
2586.484629	70.748951
2587.925894	73.866434
2589.363697	73.295804
2590.804450	79.734266
2592.240140	79.843357
2593.678780	83.252448
2595.115563	81.741259
2596.550489	84.752448
2597.988364	81.537063
2599.421181	78.406294
2600.855345	76.112587
2602.287654	75.779021
2603.721310	72.459441
2605.153113	70.113287
2606.584663	66.941958
2608.015959	67.335664
2609.445404	61.135664
2610.874596	63.100000
2612.301937	65.113287
2613.730625	74.155944
2615.159060	71.458741
2616.584049	75.781119
2618.010383	77.227972
2619.434869	76.595105
2620.860701	74.329371
2622.283089	74.990909
2623.706823	74.102797
2625.128711	70.485315
2626.550348	66.586014
2627.970140	67.054545
2629.391278	65.000699
2630.812166	67.444056
2632.229616	65.420280
2633.650005	70.013986
2635.066957	71.321678
2636.483661	75.557343
2637.900116	79.383916
2639.316323	85.488811
2640.732281	83.206993
2642.146399	82.977622
2643.560270	83.072727
2644.972301	83.740559
2646.385677	82.876224
2647.795623	84.597902
2649.208505	84.693007
2650.617958	78.297203
2652.027165	73.279720
2653.434536	75.901399
2654.844841	67.815385
2656.253310	63.473427
2657.659944	58.659441
2659.066333	60.547552
2660.470888	60.655245
2661.876787	65.835664
2663.280853	69.841259
2664.684675	77.347552
2666.088252	78.052448
2667.489997	77.618182
2668.893086	81.234266
2670.292758	80.571329
2671.693773	71.922378
2673.091371	74.374126
2674.491900	74.989510
2675.889014	77.774126
2677.287471	76.934965
2678.684100	78.863636
2680.080488	79.510490
2681.476633	82.318881
2682.870952	82.323776
2684.266614	83.609790
2685.658866	80.302797
2687.052462	75.525175
2688.444233	70.170629
2689.837346	73.676224
2691.228636	73.297902
2692.618103	77.095105
2694.007331	76.302098
2695.396318	75.697902
2696.786648	74.577622
2698.171993	74.554545
2699.560263	77.398601
2700.946712	77.595804
2702.332922	76.206294
2703.718893	77.672727
2705.101466	75.883916
2706.485380	79.001399
2707.869057	78.267133
2709.252496	77.868531
2710.632539	75.148951
2712.013924	73.189510
2713.393493	70.163636
2714.774404	68.808392
2716.153500	69.167133
2717.530781	69.320280
2718.909404	67.443357
2720.286214	70.323077
2721.662788	70.698601
2723.039126	68.972028
2724.413652	68.753147
2725.789519	68.474126
2727.161999	67.805594
2728.537396	73.926573
2729.907831	73.897902
2731.279608	75.411189
2732.651151	73.770629
2734.020885	76.258741
2735.391959	74.584615
2736.761226	75.792308
2738.130259	71.762238
2739.497485	69.490909
2740.864479	72.537762
2742.231240	73.041259
2743.597768	74.899301
2744.962492	78.916783
2746.326983	75.380420
2747.691242	74.130070
2749.055270	73.832168
2750.419065	78.174126
2751.779487	76.467832
2753.142820	78.271329
2754.501210	76.414685
2755.862510	78.906993
2757.220439	77.015385
2758.581278	75.416783
2759.940316	75.318881
2761.295986	69.692308
2762.654565	63.895804
2764.009776	62.029371
2765.364758	61.727273
2766.717943	62.820280
2768.074035	64.640559
2769.426763	69.495105
2770.779262	68.009790
2772.131533	66.383916
2773.485143	64.427972
2774.835391	68.356643
2776.183846	70.925175
2777.535205	70.798601
2778.883205	69.932168
2780.232544	68.975524
2781.580090	67.256643
2782.927409	66.169231
2784.274502	67.636364
2785.619804	70.331469
2786.964880	66.099301
2788.309730	66.550350
2789.654354	69.565734
2790.995625	72.686713
2792.338235	75.646853
2793.680620	76.307692
2795.022779	75.400000
2796.361589	73.801399
2797.703299	71.265734
2799.041660	70.153846
2800.381359	70.176923
2801.719272	69.483217
2803.055401	64.609790
2804.391307	65.381818
2805.728549	65.394406
2807.064008	65.816783
2808.399244	65.740559
2809.732698	69.693706
2811.067488	72.809091
2812.398937	74.909790
2813.733282	73.736364
2815.062729	76.346154
2816.393513	74.949650
2817.724075	71.666434
2819.052858	69.251049
2820.382978	70.100699
2821.711318	68.344056
2823.039438	68.937762
2824.365781	70.183217
2825.693459	73.774126
2827.017805	74.612587
2828.343486	74.360839
2829.667393	73.635664
2830.991079	75.616084
2832.316101	71.744056
2833.637794	69.389510
2834.959267	67.308392
2836.280522	67.374825
2837.601558	65.403497
2838.920822	66.276923
2840.241421	64.493007
2841.560248	65.169231
2842.878857	65.430070
2844.195696	65.892308
2845.512317	68.860839
2846.828720	72.081119
2848.143355	69.444755
2849.459324	72.991608
2850.771973	70.176923
2852.085958	71.793007
2853.399726	69.643357
2854.713277	67.716783
2856.025061	65.540559
2857.335080	67.869930
2858.646433	64.689510
2859.954470	61.786713
2861.263843	59.275524
2862.573000	60.209790
2863.881942	55.579021
2865.189121	57.493706
2866.494536	57.897902
2867.801286	61.975524
2869.106273	60.732168
2870.411047	63.231469
2871.714059	63.073427
2873.019953	65.932168
2874.320992	62.961538
2875.623364	58.291608
2876.923977	53.703497
2878.225924	55.010490
2879.527658	53.176923
2880.826088	56.711888
2882.125851	62.516084
2883.423857	66.492308
2884.721651	65.788112
2886.017688	67.036364
2887.315059	65.560140
2888.610674	67.918881
2889.906079	64.541259
2891.201272	59.304895
2892.493167	55.666434
2893.787939	59.461538
2895.079415	62.650350
2896.372223	67.460839
2897.664821	70.293007
2898.954124	72.364336
2900.244760	69.731469
2901.533646	68.269930
2902.823863	66.695105
2904.110789	67.393007
2905.399047	66.000699
2906.685556	64.100699
2907.971856	66.363636
2909.257948	66.033566
2910.542292	66.897203
2911.829508	65.960140
2913.111897	65.839860
2914.395618	67.755245
2915.677592	64.886014
2916.959360	62.976923
2918.239382	61.047552
2919.522274	64.076224
2920.803421	62.680420
2922.081286	60.279720
2923.362020	57.467133
2924.639473	52.906294
2925.916721	52.248252
2927.192226	54.242657
2928.470599	56.221678
2929.744157	62.120979
2931.020583	57.562937
2932.295268	58.393007
2933.568213	58.325175
2934.842488	63.118881
2936.115024	60.369231
2937.387356	59.509790
2938.656415	56.189510
2939.928339	57.909790
2941.198525	59.511189
2942.468507	64.126573
2943.738286	63.281119
2945.006328	63.865734
2946.272635	59.825175
2947.538739	61.165035
2948.806174	61.243357
2950.071873	63.627972
2951.337370	63.506993
2952.602665	63.827273
2953.864696	59.614685
2955.128056	64.855245
2956.391215	66.081818
2957.652641	66.113287
2958.915397	62.146853
2960.176422	58.900000
2961.435716	56.772028
2962.694809	59.090210
2963.953702	58.795804
2965.212395	62.262937
2966.470888	64.021678
2967.727652	63.614685
2968.984217	61.648951
2970.239053	63.820979
2971.495219	62.646853
2972.748129	60.786713
2974.002369	56.115385
2975.256410	54.906294
2976.508725	55.200000
2977.760842	59.190210
2979.011234	58.272028
2980.264481	61.930769
2981.512951	62.423077
2982.764275	62.117483
2984.012351	59.802797
2985.260229	62.315385
2986.507910	65.630070
2987.755395	65.786014
2989.001158	64.703497
2990.246724	65.148951
2991.493619	63.416084
2992.737268	68.156643
2993.982246	66.860140
2995.223981	63.230070
2996.468567	61.025175
2997.711434	57.294406
2998.951059	58.597203
3000.193536	65.178322
3001.432772	67.506993
3002.673336	71.691608
3003.912183	71.272028
3005.150836	70.501399
3006.387773	73.449650
3007.626037	75.472028
3008.862587	67.325175
3010.098943	62.537762
3011.335105	56.230070
3012.569553	54.951049
3013.803808	56.795105
3015.037870	58.097902
3016.270220	56.127972
3017.500858	58.566434
3018.734342	55.635664
3019.966115	54.535664
3021.196176	54.402098
3022.426046	51.967832
3023.654206	51.151049
3024.883693	50.409091
3026.111470	48.533566
3027.339056	54.879021
3028.567968	55.841958
3029.792138	55.449650
3031.019151	54.517483
3032.242941	59.137063
3033.468056	56.496503
3034.691465	55.800000
3035.914685	54.496503
3037.136199	55.892308
3038.360554	55.969231
3039.580174	56.764336
3040.801120	57.676923
3042.021876	58.193706
3043.240929	57.597902
3044.461308	54.541958
3045.678470	54.852448
3046.896957	56.072028
3048.113743	53.554545
3049.330340	55.388112
3050.546750	53.351049
3051.759946	54.874126
3052.975980	54.564336
3054.188802	54.561538
3055.404461	54.231469
3056.615397	52.741259
3057.827659	56.100000
3059.039733	57.787413
3060.251621	58.400699
3061.461811	57.531469
3062.671816	56.487413
3063.881634	55.394406
3065.089756	52.565734
3066.297692	53.516783
3067.503934	52.555944
3068.711500	51.125175
3069.917371	50.281818
3071.123057	47.648252
3072.328559	52.458042
3073.532367	52.504895
3074.737499	49.438462
3075.940938	49.664336
3077.142685	49.579021
3078.344249	51.838462
3079.545629	51.626573
3080.746825	55.238462
3081.946331	59.171329
3083.145653	61.888811
3084.346299	62.000000
3085.545256	64.186713
3086.741017	63.213287
3087.939608	60.607692
3089.135005	58.036364
3090.331726	55.161538
3091.525254	50.102098
3092.721610	49.354545
3093.916279	42.283916
3095.107758	43.701399
3096.303568	44.188112
3097.494685	46.479021
3098.687125	51.343357
3099.876376	55.752448
3101.068454	55.620280
3102.258848	57.159441
3103.446055	54.923776
3104.634586	54.355944
3105.824439	53.039161
3107.011107	53.664336
3108.197596	49.120280
3109.383905	49.936364
3110.571537	47.319580
3111.755986	49.412587
3112.938755	52.296503
3114.124348	51.376923
3115.308260	51.354545
3116.490494	52.632168
3117.672550	51.368531
3118.854427	51.353147
3120.036126	49.409091
3121.216148	49.357343
3122.394492	46.979021
3123.575658	48.129371
3124.753648	50.200000
3125.931461	50.746154
3127.109097	52.033566
3128.285058	51.179720
3129.460843	52.404895
3130.637948	57.460140
3131.813380	55.041958
3132.987138	54.575524
3134.159223	55.267832
3135.332629	54.393706
3136.505860	51.565734
3137.677418	53.784615
3138.850298	49.884615
3140.020010	47.672727
3141.191043	47.516783
3142.360405	44.099301
3143.528098	46.180420
3144.698606	49.822378
3145.864455	48.267832
3147.034614	50.342657
3148.200115	48.561538
3149.365443	47.890909
3150.530597	47.879021
3151.695578	47.765734
3152.861878	44.469231
3154.023525	47.344755
3155.186493	46.593007
3156.349287	48.366434
3157.511909	49.698601
3158.672866	50.332867
3159.833650	50.098601
3160.994263	48.483217
3162.153211	50.036364
3163.311987	53.455245
3164.470592	53.959441
3165.629025	54.295804
3166.787286	53.839860
3167.943885	56.127972
3169.098823	53.230769
3170.255080	50.031469
3171.409677	46.048252
3172.564102	45.008392
3173.716868	42.852448
3174.869464	43.051049
3176.021890	46.466434
3177.174145	45.760839
3178.326231	42.975524
3179.475170	45.278322
3180.626916	41.886014
3181.777005	45.199301
3182.925436	43.304895
3184.073699	41.433566
3185.221793	44.249650
3186.369717	42.539860
3187.515987	43.419580
3188.662088	48.654545
3189.806535	50.704196
3190.950813	55.413287
3192.094924	55.934266
3193.240353	60.781119
3194.382643	58.150350
3195.524765	62.791608
3196.666721	61.307692
3197.808509	59.723077
3198.950130	56.930070
3200.088615	53.111888
3201.228419	53.386713
3202.369539	54.101399
3203.507525	51.541259
3204.643862	55.083217
3205.780033	51.330769
3206.917522	51.324476
3208.053362	48.644755
3209.190518	46.753147
3210.323063	42.769231
3211.459888	42.100699
3212.592102	42.138462
3213.725634	45.308392
3214.859000	44.739161
3215.989239	48.111189
3217.122277	45.356643
3218.252187	51.346853
3219.383415	50.055944
3220.511517	49.427972
3221.642417	46.132168
3222.771672	44.790909
3223.899283	43.097902
3225.023773	42.387413
3226.152538	41.596503
3227.278181	44.831469
3228.403661	42.447552
3229.527500	45.892308
3230.654134	41.482517
3231.776169	46.425175
3232.899521	46.676224
3234.022711	51.296503
3235.145739	50.149650
3236.267127	55.179021
3237.388354	54.182517
3238.507942	54.592308
3239.627369	53.690210
3240.745159	54.083217
3241.865740	50.543357
3242.983208	49.389510
3244.100515	43.368531
3245.217661	42.600000
3246.333172	43.887413
3247.449998	46.486014
3248.563713	44.158042
3249.680219	48.569930
3250.795089	46.236364
3251.906851	47.143357
3253.018454	46.847552
3254.131372	47.312587
3255.244130	47.188112
3256.353782	47.169231
3257.464749	44.911189
3258.575557	43.482517
3259.684733	42.850350
3260.792278	42.339161
3261.901138	40.806294
3263.009839	41.504196
3264.115438	38.663636
3265.222352	42.264336
3266.327636	46.289510
3267.434234	49.900699
3268.537732	53.928671
3269.642544	55.291608
3270.747199	53.338462
3271.848756	52.330070
3272.950156	50.247552
3274.052870	48.893706
3275.155427	47.737762
3276.254889	47.575524
3277.357133	45.891608
3278.456283	50.341958
3279.553807	52.815385
3280.651176	52.082517
3281.751328	51.018182
3282.848386	48.013287
3283.945290	45.229371
3285.042038	45.212587
3286.134227	43.715385
3287.230666	42.639860
3288.325482	42.699301
3289.420143	42.132168
3290.513183	40.810490
3291.606069	45.508392
3292.697334	44.060140
3293.789912	40.908392
3294.880870	39.639161
3295.970208	39.030769
3297.059393	37.895804
3298.149890	39.369231
3299.237303	39.083217
3300.324564	41.420280
3301.413137	43.281818
3302.501557	46.075524
3303.585430	50.137762
3304.673545	52.597902
3305.758579	49.420280
3306.841997	50.151748
3307.926727	48.071329
3309.009841	45.500699
3310.094267	45.376224
3311.175615	45.546154
3312.258275	43.095105
3313.339321	44.815385
3314.420216	46.030769
3315.499498	47.382517
3316.578629	50.000699
3317.659072	47.412587
3318.736440	45.806294
3319.815120	47.623776
3320.892188	46.990210
3321.969106	48.211189
3323.044414	45.873427
3324.119572	47.090909
3325.196041	44.691608
3326.269439	46.520979
3327.342689	45.690909
3328.417250	47.734266
3329.490201	47.244056
3330.561545	47.509091
3331.634199	44.175524
3332.703786	45.458042
3333.774684	42.560140
3334.843975	40.859441
3335.914577	36.531469
3336.983572	37.944056
3338.050961	35.624476
3339.116745	37.667832
3340.186755	37.086014
3341.253702	41.813986
3342.317587	38.324476
3343.384240	40.393706
3344.449289	38.779021
3345.512734	38.667832
3346.576032	34.358741
3347.639185	36.160839
3348.702191	37.160140
3349.765050	40.013986
3350.826308	42.995804
3351.884509	49.186713
3352.946931	50.216783
3354.006296	50.798601
3355.065517	44.308392
3356.126046	45.706294
3357.182066	42.290210
3358.240851	42.393007
3359.295128	42.190909
3360.352169	43.797902
3361.407611	43.773427
3362.464362	45.788112
3363.519516	43.686014
3364.573072	41.193706
3365.625031	41.406294
3366.679752	40.022378
3367.731425	37.430769
3368.782953	41.754545
3369.835791	41.689510
3370.885581	49.683916
3371.936680	51.882517
3372.984732	55.895804
3374.035545	55.893706
3375.083312	54.457343
3376.130937	48.006993
3377.178420	44.307692
3378.224309	44.135664
3379.271508	40.549650
3380.315663	39.286014
3381.362577	40.013287
3382.407899	39.161538
3383.450181	42.881119
3384.492321	43.313287
3385.535770	46.639161
3386.579077	44.946853
3387.620794	45.320979
3388.662370	43.990210
3389.703806	44.070629
3390.743653	42.491608
3391.781911	43.472727
3392.821477	44.179021
3393.860903	44.570629
3394.898741	42.606294
3395.934992	43.284615
3396.971103	42.632168
3398.008522	42.479720
3399.042908	40.679021
3400.078602	42.504895
3401.114156	43.521678
3402.146678	43.779021
3403.181954	41.656643
3404.214199	41.536364
3405.246306	40.558741
3406.276829	38.137762
3407.308660	33.985315
3408.340352	36.533566
3409.369016	35.237762
3410.397542	34.688811
3411.427376	34.857343
3412.457072	35.894406
3413.483741	35.658741
3414.511718	34.594406
3415.536670	35.409091
3416.564372	38.637063
3417.589051	42.488811
3418.615036	42.687413
3419.639442	42.848951
3420.663710	47.143357
3421.686400	46.623776
3422.708955	47.816783
3423.732814	46.353846
3424.753654	43.646853
3425.774359	41.164036
3426.796369	38.405794
3427.815361	35.477023
3428.834218	32.482617
3429.854381	29.527473
3430.871526	26.716484
