-118.385087	-9.047527
-115.715486	-2.639560
-113.048821	1.126523
-110.382909	2.837962
-107.719928	3.081993
-105.055517	2.445854
-102.394037	1.516783
-99.731128	4.386713
-97.073326	3.936364
-94.414093	6.280420
-91.755609	7.513986
-89.100050	9.346853
-86.443062	12.039161
-83.791171	13.625874
-81.137851	9.067832
-78.487451	7.244755
-75.835621	4.475524
-73.188882	3.721678
-70.540713	1.030070
-67.893288	2.383916
-65.248776	2.032867
-62.602835	4.109790
-59.961977	4.948951
-57.319688	5.208392
-54.680309	4.001399
-52.039501	5.515385
-49.399432	4.072727
-46.764437	5.388811
-44.128012	6.037063
-41.494491	6.736364
-38.859540	5.669930
-36.229656	6.816084
-33.596178	6.355245
-30.967763	4.474126
-28.340082	3.495804
-25.710973	-2.602098
-23.086920	-27.604895
-20.459278	-100.066434
-17.836689	-249.527972
-15.214831	-238.727273
-12.593704	389.010490
-9.973308	1304.409790
-7.355799	2046.802098
-4.736862	2554.301399
-2.120811	2818.458741
0.494512	2845.316084
3.109108	2636.263636
5.720822	2194.348951
8.333963	1534.904895
10.942071	728.547552
13.553761	-51.462937
16.160420	-430.352448
18.768507	-231.819580
21.375870	-15.476224
23.978208	11.080420
26.584124	11.886014
29.185019	8.191608
31.787341	10.588811
34.384645	9.227273
36.985525	9.437063
39.581391	8.068531
42.178684	11.639161
44.775258	9.570629
47.366823	7.734266
49.959816	5.011888
52.549948	6.333566
55.141508	8.282517
57.730208	7.490909
60.320336	6.416783
62.905464	12.346853
65.492020	12.029371
68.077861	14.951748
70.660849	15.167133
73.245264	15.393706
75.822549	10.933566
78.403401	8.549650
80.981404	6.134965
83.558697	7.110490
86.137416	5.197902
88.711154	2.630769
91.286318	2.690909
93.858639	7.355245
96.430253	9.116084
98.999026	13.674126
101.569226	12.294406
104.136587	12.392308
106.705375	12.599301
109.271325	15.215385
111.834441	17.320280
114.401114	18.118881
116.958564	21.132168
119.521700	27.900000
122.079877	37.236364
124.641607	57.572028
127.198382	90.681818
129.756582	141.261538
132.309830	207.320280
134.862379	297.695105
137.418480	399.176224
139.969632	510.478322
142.520086	624.409091
145.069844	730.693706
147.616782	823.528671
150.163024	892.490909
152.710693	934.556643
155.257665	954.621678
157.799701	959.849650
160.341044	951.717483
162.881695	937.673427
165.423770	926.230769
167.963035	912.697203
170.499490	902.641958
173.035255	899.888811
175.572445	896.441958
178.108943	894.602797
180.642636	897.362238
183.173526	899.653147
185.703727	900.550350
188.235353	900.191608
190.764179	896.397203
193.290205	892.215385
195.815545	893.562937
198.342310	885.586713
200.866279	877.218881
203.389562	870.285315
205.912161	865.120280
208.431967	865.306294
210.951090	873.369231
213.469530	883.304196
215.989394	893.416084
218.502257	902.865734
221.018651	909.930070
223.534364	911.727972
226.045186	919.878322
228.557433	917.754545
231.066897	919.104895
233.575683	919.683916
236.083791	922.725874
238.593323	927.668531
241.097974	933.104895
243.601949	938.152448
246.107348	942.288811
248.607872	946.340559
251.111919	954.524476
253.608996	957.227273
256.109595	968.846154
258.607423	978.500000
261.104578	992.099301
263.601060	1009.758741
266.092680	1032.360140
268.587818	1056.783916
271.080191	1085.714685
273.571893	1123.455944
276.060832	1184.338462
278.551194	1290.395804
281.038795	1475.086014
283.523636	1739.567133
286.011991	2149.400000
288.493408	2690.257343
290.978338	3258.997203
293.458422	3700.593007
295.942019	3938.028671
298.420774	3942.938462
300.900951	3729.334266
303.378377	3323.575524
305.855139	2793.164336
308.331237	2210.844755
310.804587	1676.773427
313.277276	1259.469231
315.749303	1046.335664
318.220668	998.241259
320.689290	1027.197902
323.157252	1038.999301
325.626637	1039.812587
328.091199	1033.957343
330.559264	1029.065734
333.022510	1016.454545
335.485099	1011.448951
337.947030	1005.361538
340.408305	1006.830070
342.866846	1005.270629
345.326809	1001.813986
347.784040	994.072727
350.240616	992.980420
352.696537	980.398601
355.149730	970.734965
357.604345	961.179021
360.054158	953.916084
362.507467	940.549650
364.955977	930.986014
367.403837	917.538462
369.853118	908.795105
372.297606	898.161538
374.743516	891.551748
377.188777	889.480420
379.631319	888.499301
382.073213	884.029371
384.514459	882.566434
386.952990	882.920280
389.392943	882.457343
391.830182	880.074825
394.264709	877.976224
396.702724	877.865035
399.135962	881.016783
401.570622	882.148951
404.000509	891.250350
406.433881	898.183217
408.862482	903.541259
411.290443	907.598601
413.719824	910.343357
416.144441	910.571329
418.570478	908.988112
420.995876	908.440559
423.420633	907.281119
425.840631	904.155944
428.262051	902.497902
430.680774	902.455944
433.100918	900.636364
435.518367	899.154545
437.937236	894.419580
440.353412	893.250350
442.764841	894.383916
445.179746	896.635664
447.591961	900.558741
450.003542	908.330769
452.414489	912.092308
454.822750	917.253846
457.230379	921.174825
459.637375	921.737063
462.043739	918.755245
464.447422	919.689510
466.850474	915.758042
469.252896	915.147552
471.654688	917.662937
474.053802	918.778322
476.454336	922.995804
478.854241	929.765035
481.249423	934.358741
483.648072	940.075524
486.042001	935.186014
488.435304	929.971329
490.827981	923.406294
493.220033	914.858741
495.613504	901.693007
498.002262	885.750350
500.388354	870.436364
502.775866	847.446154
505.162754	837.272727
507.546979	826.611189
509.932623	823.295105
512.315604	821.285315
514.695925	821.952448
517.077665	821.535664
519.456746	826.455245
521.837246	827.125175
524.215088	829.413287
526.590275	829.955944
528.964844	829.380420
531.340832	827.976224
533.714166	831.943357
536.088919	830.935664
538.458985	833.007692
540.828436	836.524476
543.199306	837.383217
545.565494	834.793007
547.933101	836.526573
550.298062	834.834965
552.662410	835.989510
555.026146	833.894406
557.391299	837.506294
559.751780	840.751049
562.113678	839.967133
564.472937	837.576224
566.829557	834.397902
569.189623	834.088112
571.542997	828.124476
573.899816	826.044056
576.254000	817.482517
578.607575	811.338462
580.960542	805.005594
583.310878	800.076224
585.662630	798.434266
588.007706	794.499301
590.358246	790.120280
592.702113	784.190909
595.051441	778.600699
597.396120	773.155944
599.738175	767.258741
602.081647	762.688112
604.422496	756.065734
606.762742	755.986014
609.100368	755.581119
611.441429	754.604895
613.777853	751.811888
616.115693	746.272727
618.450915	743.703497
620.783522	736.439860
623.117546	726.410490
625.448955	716.758042
627.779766	711.100000
630.109979	703.876923
632.439595	701.443357
634.764587	698.830070
637.095021	695.279720
639.420833	692.453147
641.744039	690.668531
644.068661	686.952448
646.390677	688.857343
648.712099	688.020280
651.030918	686.714685
653.351153	687.604895
655.670795	690.358042
657.987836	690.748252
660.304286	691.032168
662.618137	693.451049
664.933403	698.188811
667.246073	701.797902
669.560158	709.418182
671.869644	715.525874
674.180544	722.681119
676.488852	728.483916
678.796572	734.070629
681.105707	736.744755
683.410249	740.337762
685.714205	740.346853
688.017574	739.286014
690.322358	745.379021
692.622556	742.862937
694.924169	737.753846
697.225196	737.948951
699.521642	735.430070
701.819502	733.725175
704.116780	735.502797
706.413473	736.942657
708.705591	738.441958
711.001120	743.307692
713.292076	747.129371
715.584446	754.266434
717.874240	759.663636
720.163455	759.595804
722.452089	761.295105
724.738152	764.441958
727.025628	767.816783
729.310534	773.489510
731.594861	776.508392
733.876621	771.963636
736.159794	772.091608
738.442390	771.137762
740.720430	771.304196
742.999884	769.336364
745.278763	764.435664
747.557066	761.651748
749.830820	760.886014
752.105988	765.809790
754.380582	766.969231
756.652617	769.320280
758.926065	766.453846
761.196955	764.602797
763.465288	768.679021
765.735036	767.953846
768.002228	770.502797
770.268850	769.109091
772.534903	769.137762
774.798404	769.118881
777.063317	769.759441
779.327662	773.469231
781.587476	775.094406
783.848704	776.237063
786.109364	776.863636
788.367477	779.069231
790.623046	778.334965
792.882006	775.757343
795.134467	776.549650
797.392295	781.513287
799.645604	783.513287
801.896372	779.089510
804.148553	775.769231
806.398196	773.264336
808.649250	777.729371
810.895793	769.252448
813.143749	763.905594
815.389169	760.629371
817.636002	755.797902
819.882272	754.313287
822.124039	751.762937
824.369188	748.883916
826.607865	742.267133
828.849925	732.529371
831.087486	729.631469
833.326458	735.036364
835.562904	738.286713
837.800762	741.884615
840.036094	746.226573
842.268902	752.981119
844.503122	759.188112
846.734820	765.874126
848.965963	761.497203
851.196551	757.546154
853.426585	755.942657
855.656064	754.389510
857.881063	752.646853
860.109435	756.523077
862.333329	751.013287
864.558633	754.650350
866.779462	747.861538
869.003663	744.460140
871.223391	742.183916
873.444530	744.011189
875.665118	745.144056
877.883197	748.430070
880.102685	753.371329
882.317707	756.094406
884.532181	754.609091
886.746108	755.058042
888.959487	754.090909
891.172320	753.334266
893.384605	756.233566
895.594389	757.070629
897.803627	758.594406
900.012319	765.729371
902.218513	766.089510
904.426116	765.446853
906.631222	764.769231
908.835784	761.469231
911.037851	759.269930
913.241327	760.455944
915.442309	763.149650
917.642749	774.855944
919.844598	786.781119
922.040056	794.432867
924.238872	807.921678
926.433251	820.293007
928.630987	821.849650
930.824287	828.902098
933.018995	824.544056
935.211218	823.901399
937.402903	823.389510
939.594050	823.572028
941.782714	817.225874
943.970841	823.744056
946.156488	825.379021
948.345487	832.500699
950.530063	843.509790
952.714104	853.637762
954.901495	861.904196
957.080583	873.191608
959.263020	874.543357
961.444924	880.326573
963.624354	883.031469
965.801311	880.490210
967.979676	873.821678
970.159447	867.935664
972.332870	860.079720
974.509639	855.451049
976.682002	854.514685
978.855771	854.286014
981.025138	860.151748
983.197848	861.606294
985.368092	865.010490
987.537808	873.234266
989.706995	879.317483
991.871785	881.558042
994.039917	881.990210
996.203653	874.846154
998.368797	877.765734
1000.531481	883.101399
1002.693640	887.554545
1004.853341	897.787413
1007.012519	905.452448
1009.173103	916.025874
1011.331232	926.554545
1013.488837	929.736364
1015.645919	919.918881
1017.802478	912.468531
1019.954657	915.923776
1022.108243	909.739161
1024.261306	913.829371
1026.411922	926.639161
1028.563943	932.348252
1030.711591	949.237762
1032.862571	942.955245
1035.009181	945.473427
1037.155271	935.823077
1039.300843	923.713287
1041.447819	916.098601
1043.588508	910.687413
1045.732525	922.583916
1047.874103	917.260140
1050.015163	932.898601
1052.157628	951.109091
1054.293814	961.937063
1056.433326	959.905594
1058.568482	954.189510
1060.706963	948.224476
1062.841091	943.593706
1064.974705	945.401399
1067.109723	941.282517
1069.240392	918.976224
1071.372467	913.131469
1073.502111	892.955245
1075.631244	901.474825
1077.759866	890.644056
1079.887976	876.703497
1082.013660	863.180420
1084.138834	871.497203
1086.265411	869.525175
1088.387652	872.847552
1090.511297	865.196503
1092.630607	852.760140
1094.755146	851.906294
1096.873441	842.867133
1098.993139	835.100699
1101.110419	837.523077
1103.227193	833.150350
1105.343460	840.189510
1107.457312	852.406993
1109.572567	860.376224
1111.683500	860.251748
1113.797744	857.281818
1115.907669	851.320280
1118.018996	861.759441
1120.129820	869.750350
1122.236327	862.985315
1124.346143	859.187413
1126.451645	859.648951
1128.558551	864.969231
1130.659240	867.083916
1132.765142	859.156643
1134.866735	854.458741
1136.969731	849.197902
1139.072226	842.787413
1141.168515	841.086014
1143.270010	847.313986
1145.367203	847.820979
1147.463897	850.882517
1149.560094	847.197203
1151.655792	857.943357
1153.750993	863.066434
1155.843797	870.038462
1157.938003	870.788811
1160.026018	882.224476
1162.119231	891.582517
1164.206256	893.538462
1166.296581	900.265035
1168.382617	900.897203
1170.471951	898.769930
1172.555104	891.968531
1174.639660	890.570629
1176.725616	894.812587
1178.807291	886.764336
1180.890368	886.177622
1182.971059	884.559441
1185.051259	895.096503
1187.130967	902.700699
1189.210183	908.022378
1191.287018	909.894406
1193.361472	908.225874
1195.439218	910.728671
1197.512693	909.844056
1199.587570	912.121678
1201.658179	909.708392
1203.730189	902.923077
1205.799823	907.497902
1207.870858	904.588112
1209.941405	903.082517
1212.007691	902.309790
1214.075378	902.686713
1216.140693	894.026573
1218.207408	890.117483
1220.269867	891.620979
1222.335612	889.171329
1224.397102	886.456643
1226.459992	892.699301
1228.520515	894.932168
1230.580555	900.006294
1232.640111	904.493007
1234.697303	921.924476
1236.754012	936.800000
1238.808359	947.112587
1240.865986	955.181119
1242.921251	963.676923
1244.972275	973.311888
1247.024699	980.790909
1249.076644	984.938462
1251.126230	993.839161
1253.175337	998.711189
1255.223965	1000.290909
1257.272115	1004.482517
1259.319787	1022.786713
1261.363228	1026.593706
1263.409944	1031.136364
1265.454308	1036.190909
1267.498194	1042.279021
1269.539730	1045.553846
1271.578916	1057.184615
1273.621374	1058.972727
1275.659611	1061.188811
1277.699245	1065.418182
1279.738405	1058.311189
1281.773347	1053.302098
1283.809687	1063.802797
1285.843682	1062.015385
1287.879076	1058.216783
1289.910256	1059.787413
1291.942835	1063.225175
1293.974941	1060.020280
1296.004707	1064.040559
1298.035871	1058.174126
1300.062827	1051.102098
1302.091181	1052.218881
1304.115331	1045.015385
1306.142746	1039.181818
1308.165958	1042.105594
1310.190568	1035.562937
1312.212843	1035.241958
1314.236516	1041.963636
1316.257856	1045.810490
1318.278729	1048.374126
1320.299134	1043.309091
1322.315345	1038.127972
1324.332955	1026.328671
1326.348236	1021.000699
1328.366776	1010.573427
1330.381126	999.517483
1332.393151	984.163636
1334.408434	970.901399
1336.419531	963.737063
1338.432024	957.949650
1340.440335	950.714685
1342.451902	944.776224
1344.457430	936.312587
1346.466212	934.165035
1348.470818	921.396503
1350.478677	924.160140
1352.486073	925.932867
1354.487439	932.276923
1356.490202	935.655944
1358.492505	945.832168
1360.494347	960.244755
1362.495731	966.335664
1364.494800	976.555245
1366.493411	986.315385
1368.491564	993.897203
1370.489259	996.921678
1372.482790	991.350350
1374.477718	994.171329
1376.472189	990.459441
1378.466203	991.879720
1380.457910	989.046154
1382.449161	988.493007
1384.438107	988.995105
1386.428448	977.306993
1388.418334	971.761538
1390.405917	965.623077
1392.393046	957.674825
1394.377873	956.979720
1396.364095	956.065734
1398.348016	960.674126
1400.331485	968.416084
1402.314502	973.898601
1404.295221	981.304895
1406.277334	985.941958
1408.257150	991.109091
1410.236516	992.577622
1412.211743	991.961538
1414.190208	996.656643
1416.166380	998.546853
1418.142102	1005.146154
1420.117375	1011.025874
1422.090357	1020.641958
1424.062892	1025.588112
1426.034978	1022.807692
1428.006616	1018.722378
1429.974127	1015.676923
1431.946711	1012.668531
1433.911489	1005.697203
1435.881340	1003.798601
1437.847066	997.680420
1439.814186	994.851049
1441.779022	999.292308
1443.739738	1008.202797
1445.705522	1018.497902
1447.665351	1028.220979
1449.626573	1041.884615
1451.589188	1053.430070
1453.547688	1067.042657
1455.505746	1074.634965
1457.463361	1082.636364
1459.420535	1091.541259
1461.375433	1092.126573
1463.331723	1086.016783
1465.285739	1081.866434
1467.239315	1076.344056
1469.190618	1080.000699
1471.143313	1082.488811
1473.093737	1084.655944
1475.043722	1083.147552
1476.993267	1084.807692
1478.940544	1083.404196
1480.885554	1083.446154
1482.831956	1080.427972
1484.777920	1071.665035
1486.723446	1054.597902
1488.666708	1043.527273
1490.609533	1032.784615
1492.550095	1031.013986
1494.492048	1020.298601
1496.431740	1020.337063
1498.370996	1017.522378
1500.309818	1017.514685
1502.246380	1017.308392
1504.184332	1019.483916
1506.120027	1019.962238
1508.055288	1024.717483
1509.988292	1034.702797
1511.920864	1035.562238
1513.853004	1035.079720
1515.784712	1037.399301
1517.714167	1040.773427
1519.645011	1044.530769
1521.575425	1042.068531
1523.501766	1044.847552
1525.429497	1046.547552
1527.354978	1040.212587
1529.280030	1041.397902
1531.204653	1055.865035
1533.128847	1066.081818
1535.050794	1065.113287
1536.974130	1065.223077
1538.895221	1067.718182
1540.814067	1074.176923
1542.734303	1077.151049
1544.652295	1082.072028
1546.569861	1083.805594
1548.485185	1085.025175
1550.401899	1077.402797
1552.314558	1078.985315
1554.230421	1087.413287
1556.144045	1091.758042
1558.055430	1092.351748
1559.968204	1088.560839
1561.876929	1089.725874
1563.787044	1091.616084
1565.696735	1097.066434
1567.606002	1094.562238
1569.513036	1097.688811
1571.417837	1096.127972
1573.324027	1094.737762
1575.227985	1095.244056
1577.131523	1103.455944
1579.034639	1105.667133
1580.935527	1103.564336
1582.837803	1093.771329
1584.737850	1087.784615
1586.639286	1084.225175
1588.536687	1084.183217
1590.433671	1078.227972
1592.330236	1075.636364
1594.228188	1065.227273
1596.120306	1066.268531
1598.015618	1064.893706
1599.910511	1060.241259
1601.803183	1050.487413
1603.695439	1040.360140
1605.585475	1034.471329
1607.475095	1035.772028
1609.364300	1040.970629
1611.253089	1049.276224
1613.139662	1036.927273
1615.027621	1032.276923
1616.911565	1031.051748
1618.796895	1038.773427
1620.681812	1033.003497
1622.564515	1021.979720
1624.448604	1017.576923
1626.328683	1017.287413
1628.210148	1022.676224
1630.089403	1027.223776
1631.970044	1032.855944
1633.844881	1035.982517
1635.724700	1025.883217
1637.600513	1029.975524
1639.475917	1024.660140
1641.352706	1016.688811
1643.223698	1004.495804
1645.097872	994.881119
1646.968048	996.927972
1648.841404	991.714685
1650.712557	987.477622
1652.581508	986.577622
1654.451845	982.071329
1656.318188	982.920979
1658.185918	980.985315
1660.051448	972.925175
1661.918363	964.579720
1663.781290	969.983217
1665.645602	960.670629
1667.507719	955.828671
1669.369430	962.889510
1671.232526	964.268531
1673.093428	959.006294
1674.952136	955.644056
1676.810441	945.828671
1678.670131	960.226573
1680.524054	952.828671
1682.381149	955.172727
1684.237842	959.846154
1686.090559	962.030070
1687.946447	946.219580
1689.798361	936.237762
1691.649873	936.786713
1693.500986	926.566434
1695.351697	900.616783
1697.202008	880.785315
1699.050135	878.550350
1700.899645	884.352448
1702.743407	880.800000
1704.592119	882.490909
1706.435084	888.116084
1708.281215	892.189510
1710.123385	897.994406
1711.968719	897.267133
1713.808313	908.565035
1715.649291	912.226573
1717.491652	905.311189
1719.330057	902.504895
1721.169845	910.183217
1723.007458	907.553147
1724.844675	904.960839
1726.679719	890.217483
1728.516146	887.355944
1730.350401	886.508392
1732.184262	885.665734
1734.017728	888.327972
1735.847248	900.366434
1737.679927	911.030070
1739.508662	905.189510
1741.340555	908.979720
1743.168505	902.964336
1744.996063	897.380420
1746.823230	874.479720
1748.650004	853.939860
1750.476388	845.662937
1752.298835	831.683217
1754.124436	830.683217
1755.946103	830.828671
1757.769152	831.018881
1759.590040	843.365734
1761.410538	851.738462
1763.232418	861.458042
1765.048598	862.427972
1766.867930	870.716084
1768.683335	861.400000
1770.501891	868.339860
1772.316521	865.592308
1774.130764	853.915385
1775.944621	851.967133
1777.758091	844.675524
1779.569407	845.854545
1781.382105	855.935664
1783.194416	859.104895
1785.002810	863.618182
1786.812585	867.281818
1788.618444	870.997203
1790.427450	868.539860
1792.232542	869.676923
1794.039014	867.330769
1795.845103	866.167832
1797.647282	862.503497
1799.452604	858.790909
1801.254018	854.923776
1803.056812	852.438462
1804.855701	852.941958
1806.655969	860.048252
1808.455857	853.734965
1810.253602	851.460839
1812.050967	845.118182
1813.847951	849.899301
1815.644555	855.493007
1817.439020	855.766434
1819.234865	852.604895
1821.025054	857.703497
1822.820140	861.984615
1824.609573	872.360140
1826.402144	872.588112
1828.192579	874.290210
1829.980879	864.753846
1831.772315	862.855944
1833.558105	863.951748
1835.345275	868.855245
1837.130313	866.362238
1838.918485	865.456643
1840.702771	871.203497
1842.484928	887.485315
1844.268463	894.318881
1846.049871	901.628671
1847.832656	908.632168
1849.611562	901.975524
1851.391846	899.453147
1853.170005	901.847552
1854.949541	904.995804
1856.726953	900.173427
1858.502241	893.407692
1860.278908	892.772028
1862.053452	896.500699
1863.829373	898.490210
1865.599675	901.362937
1867.373104	904.260140
1869.144413	908.502797
1870.915351	898.450350
1872.687666	909.721678
1874.454369	911.204196
1876.224196	909.015385
1877.990160	906.954545
1879.759248	909.678322
1881.524474	919.645455
1883.289332	920.220280
1885.055566	928.912587
1886.817942	932.037762
1888.579951	929.545455
1890.341593	927.504196
1892.102867	919.256643
1893.863775	919.288811
1895.624315	912.337762
1897.382746	896.904196
1899.140812	878.477622
1900.896770	868.886713
1902.654104	858.652448
1904.411072	845.656643
1906.165935	843.202098
1907.918692	845.005594
1909.671086	845.990210
1911.424856	845.387413
1913.176522	843.876923
1914.926085	851.843357
1916.677025	857.205594
1918.427601	845.141259
1920.174339	842.027972
1921.922452	844.398601
1923.668466	840.198601
1925.415856	838.534965
1927.161147	843.690909
1928.904341	851.260140
1930.648911	845.878322
1932.391384	834.859441
1934.133497	842.480420
1935.875251	844.174476
1937.616644	836.906993
1939.355944	828.117832
1941.094885	834.732168
1942.833467	837.882168
1944.569957	838.542657
1946.306090	845.337413
1948.043597	849.909091
1949.777283	852.954196
1951.512343	855.569930
1953.245314	855.640210
1954.977929	857.962937
1956.710187	845.456993
1958.442089	844.715385
1960.171905	845.854545
1961.899637	846.525175
1963.628742	849.677622
1965.357493	850.611888
1967.084160	858.219580
1968.810473	865.706294
1970.538159	871.533566
1972.260309	877.967832
1973.985561	872.088112
1975.707005	860.024476
1977.431549	851.257343
1979.154014	853.537063
1980.872675	844.918182
1982.594435	836.888112
1984.312393	839.787413
1986.031725	840.456643
1987.747256	844.582517
1989.467609	847.158741
1991.184162	840.897902
1992.896920	845.817483
1994.612773	848.968531
1996.326554	852.353846
1998.039984	857.266434
1999.751344	856.744056
2001.464077	857.486713
2003.173018	862.994406
2004.885053	866.448252
2006.591578	864.293706
2008.301196	861.643357
2010.008746	860.988112
2011.715949	855.886713
2013.421086	856.500000
2015.125876	855.976224
2016.832038	853.079021
2018.534418	847.276923
2020.238170	844.578322
2021.939859	841.889510
2023.641202	840.828671
2025.342200	832.056643
2027.041138	828.376224
2028.741447	829.339161
2030.437980	835.470629
2032.135885	835.318881
2033.831732	833.365734
2035.530664	826.953846
2037.224110	822.813986
2038.918927	823.734266
2040.613401	824.836364
2042.304107	820.367133
2043.997897	824.646853
2045.687920	818.723077
2047.379314	824.532168
2049.068655	826.317483
2050.759366	829.911888
2052.446315	826.224476
2054.132923	830.296503
2055.820902	829.334965
2057.505121	835.363636
2059.190710	842.097203
2060.875960	839.551049
2062.559162	843.483916
2064.243734	842.049650
2065.922842	844.588811
2067.606736	849.081818
2069.285170	843.015385
2070.966681	842.456643
2072.644440	840.025874
2074.321863	841.494406
2076.000655	844.916783
2077.677404	845.427273
2079.352112	842.120979
2081.028189	830.000000
2082.702226	822.867133
2084.375927	812.961538
2086.049293	817.498601
2087.720621	814.223077
2089.391614	810.398601
2091.062273	813.793706
2092.732598	823.623077
2094.402588	832.892308
2096.070543	844.424476
2097.738165	848.313287
2099.403753	850.623776
2101.070709	848.893007
2102.735632	843.355245
2104.400222	839.320280
2106.062781	843.218881
2107.726709	841.935664
2109.388605	841.643357
2111.050170	844.279720
2112.711405	849.026573
2114.370610	850.129371
2116.029486	848.970629
2117.688031	844.467133
2119.346247	845.588112
2121.000739	853.220280
2122.658297	847.467832
2124.315524	846.075524
2125.969031	852.863636
2127.623905	854.155944
2129.275060	853.419580
2130.929278	845.252448
2132.579778	833.829371
2134.231646	829.193007
2135.878105	821.573427
2137.529318	817.224476
2139.176818	818.751049
2140.825686	823.670629
2142.472534	819.576224
2144.119056	818.830070
2145.765254	829.227972
2147.407742	828.559441
2149.053289	831.103497
2150.695129	822.672727
2152.340026	823.064336
2153.981218	832.757343
2155.622086	832.537063
2157.262631	839.264336
2158.901163	846.313986
2160.541061	850.181818
2162.177259	856.365035
2163.814823	857.986713
2165.452065	857.674126
2167.087297	855.590909
2168.722207	863.063636
2170.356796	864.428671
2171.991064	872.953147
2173.621638	880.120280
2175.255263	881.261538
2176.885197	884.302098
2178.516496	883.232867
2180.145791	872.317483
2181.774765	863.418881
2183.403421	847.586713
2185.031757	829.842657
2186.658090	826.425874
2188.284105	828.180420
2189.908119	824.061538
2191.533498	822.303497
2193.156876	825.567133
2194.781619	829.539860
2196.402680	832.119580
2198.023426	833.847552
2199.645535	833.266434
2201.265647	829.889510
2202.883763	826.373427
2204.501563	818.569231
2206.119047	819.472727
2207.736216	820.586014
2209.353070	804.174825
2210.969609	799.519580
2212.584154	806.840559
2214.196707	812.844056
2215.810625	816.511189
2217.422550	821.943357
2219.035840	820.635664
2220.647138	811.918182
2222.256448	818.555944
2223.867120	811.739161
2225.475804	812.762238
2227.084176	813.635664
2228.690560	799.118881
2230.298308	806.476923
2231.904069	813.696503
2233.509519	811.340559
2235.112985	811.619580
2236.717813	813.003497
2238.320657	807.522378
2239.921518	810.818881
2241.523742	816.101399
2243.123983	809.458741
2244.725588	812.295804
2246.323539	810.795105
2247.922853	808.733566
2249.520187	819.849650
2251.117213	826.223077
2252.715600	834.375524
2254.310339	846.344755
2255.903102	860.114685
2257.497226	874.119580
2259.092712	881.065734
2260.684554	881.037762
2262.276089	878.612587
2263.868985	874.911888
2265.456572	872.530070
2267.048856	869.078322
2268.635832	864.178322
2270.225837	859.757343
2271.810537	851.564336
2273.399931	853.988112
2274.984022	856.038462
2276.569475	856.866434
2278.152959	855.188112
2279.739468	863.119580
2281.322344	868.208392
2282.904916	872.032517
2284.487186	873.567832
2286.065825	857.461189
2287.647488	846.674126
2289.225524	840.380070
2290.806582	832.841259
2292.384013	832.919930
2293.959481	831.383916
2295.537971	827.739510
2297.112836	832.020280
2298.687401	837.210839
2300.261666	838.055944
2301.835630	835.241608
2303.409294	830.950350
2304.982657	820.944056
2306.552402	819.306993
2308.121848	816.410490
2309.694313	808.345455
2311.261503	809.241259
2312.831710	808.696503
2314.398303	811.811888
2315.966256	828.723776
2317.532254	831.460140
2319.097954	837.733566
2320.663356	848.132867
2322.226805	849.811189
2323.791613	854.027972
2325.352812	846.099301
2326.917026	840.727273
2328.475979	838.984615
2330.037945	825.697203
2331.597961	804.109091
2333.157681	797.337762
2334.715452	796.796503
2336.272929	787.502797
2337.830110	787.644755
2339.385345	788.038462
2340.940285	793.006993
2342.494932	794.755944
2344.049285	798.541259
2345.603344	813.746154
2347.157110	821.715385
2348.708931	816.997203
2350.258809	809.227972
2351.811695	805.851049
2353.359339	805.753846
2354.909990	801.467133
2356.457051	788.598601
2358.005469	789.092308
2359.553595	786.998601
2361.098134	767.704196
2362.644030	762.688112
2364.187987	767.195804
2365.733302	770.521678
2367.275032	784.790210
2368.818120	782.958042
2370.359271	781.002797
2371.900133	787.122378
2373.440706	788.897203
2374.980990	789.948951
2376.520985	796.563636
2378.057401	803.076224
2379.596819	797.100699
2381.132660	801.581818
2382.669857	810.267832
2384.203480	806.308392
2385.740102	808.225874
2387.274793	803.676923
2388.807555	802.388112
2390.340031	812.480420
2391.870578	814.723776
2393.404123	812.938462
2394.932457	824.404196
2396.462147	838.293706
2397.991552	837.346154
2399.520672	834.939161
2401.049506	827.544755
2402.573136	822.608392
2404.101401	826.964336
2405.624463	825.621678
2407.152160	832.198601
2408.673016	838.062238
2410.198506	836.917483
2411.720436	836.278322
2413.243720	844.471329
2414.765084	837.233566
2416.284528	830.217483
2417.805327	831.527972
2419.324207	835.120280
2420.842805	839.683217
2422.359486	843.348951
2423.877522	844.289510
2425.395276	841.518881
2426.909478	835.727972
2428.423400	829.602797
2429.937043	824.014685
2431.452039	812.993007
2432.963487	818.439860
2434.476290	825.411189
2435.987180	836.210490
2437.497790	842.137762
2439.006489	838.097902
2440.518175	842.348951
2442.026317	844.443357
2443.534180	829.034965
2445.041766	831.327273
2446.545812	832.552448
2448.052842	835.737063
2449.557964	845.770629
2451.062809	865.035664
2452.565747	863.376923
2454.068408	858.339860
2455.570793	856.420280
2457.071273	839.834965
2458.573106	841.576224
2460.073035	841.970629
2461.572688	838.214685
2463.072066	845.402098
2464.569541	841.846154
2466.065114	850.238462
2467.563667	852.613986
2469.058691	851.958741
2470.555069	830.811888
2472.047920	817.486713
2473.542123	812.334965
2475.036053	798.634266
2476.526460	807.618881
2478.019844	809.512587
2479.511329	813.374126
2481.000918	813.507692
2482.490236	811.493007
2483.977657	821.621678
2485.468054	820.951049
2486.954932	815.413986
2488.443162	806.141958
2489.927876	808.431469
2491.412319	806.123776
2492.898114	794.025874
2494.382016	802.960839
2495.867270	792.364336
2497.347390	791.662238
2498.830482	786.689510
2500.311684	788.738462
2501.792617	793.410490
2503.271661	794.599301
2504.750437	793.506294
2506.228944	800.834266
2507.707182	795.713287
2509.185152	790.572028
2510.659618	783.609790
2512.137052	787.134965
2513.610983	775.389510
2515.086265	771.571329
2516.561279	770.746853
2518.032792	773.934965
2519.505656	773.603497
2520.976637	778.913986
2522.448967	782.676224
2523.916185	778.082517
2525.386369	783.430769
2526.854671	788.619580
2528.322709	781.290909
2529.790482	777.118182
2531.257990	773.728671
2532.725233	767.130070
2534.188985	767.109091
2535.654086	765.545455
2537.117310	762.830769
2538.581883	770.129371
2540.042967	770.122378
2541.505402	770.793706
2542.967573	784.779720
2544.426257	788.208392
2545.889514	786.417483
2547.347674	791.949650
2548.807183	800.912587
2550.261599	805.579720
2551.720585	798.980420
2553.177698	793.083916
2554.632941	790.437762
2556.087923	782.372028
2557.541035	768.441259
2558.995496	755.615385
2560.448088	753.311888
2561.900420	753.096503
2563.350884	754.236364
2564.804304	763.674825
2566.252642	774.200699
2567.703936	782.119580
2569.153363	780.337063
2570.599319	786.267133
2572.048229	792.996503
2573.493668	795.420979
2574.940456	786.818182
2576.385380	781.977622
2577.830047	782.026573
2579.276061	788.748252
2580.718608	790.295804
2582.162503	797.193706
2583.602933	802.079720
2585.044711	804.288112
2586.484629	801.793706
2587.925894	798.323776
2589.363697	798.277622
2590.804450	795.621678
2592.240140	777.331469
2593.678780	769.590210
2595.115563	767.223776
2596.550489	775.204196
2597.988364	774.574126
2599.421181	777.769231
2600.855345	768.072028
2602.287654	759.692308
2603.721310	747.281119
2605.153113	734.823077
2606.584663	724.483916
2608.015959	712.062937
2609.445404	701.746853
2610.874596	700.501399
2612.301937	708.898601
2613.730625	713.262937
2615.159060	731.184615
2616.584049	746.271329
2618.010383	752.169231
2619.434869	768.110490
2620.860701	774.523776
2622.283089	783.713986
2623.706823	791.058042
2625.128711	795.779021
2626.550348	791.795105
2627.970140	790.564336
2629.391278	793.094406
2630.812166	794.869231
2632.229616	799.397902
2633.650005	792.997203
2635.066957	772.850350
2636.483661	765.569930
2637.900116	765.423776
2639.316323	770.481818
2640.732281	776.146154
2642.146399	786.812587
2643.560270	783.164336
2644.972301	789.641259
2646.385677	797.031469
2647.795623	802.206993
2649.208505	795.826573
2650.617958	783.876224
2652.027165	762.221678
2653.434536	751.432168
2654.844841	743.779720
2656.253310	735.725874
2657.659944	740.570629
2659.066333	747.509790
2660.470888	737.053846
2661.876787	733.326573
2663.280853	732.412587
2664.684675	732.806993
2666.088252	739.913986
2667.489997	738.781119
2668.893086	739.469930
2670.292758	744.167832
2671.693773	750.316084
2673.091371	764.244056
2674.491900	776.958042
2675.889014	786.466434
2677.287471	786.066434
2678.684100	785.538462
2680.080488	780.312587
2681.476633	775.737762
2682.870952	776.557343
2684.266614	767.842657
2685.658866	762.890909
2687.052462	754.703497
2688.444233	749.900699
2689.837346	746.081818
2691.228636	739.941958
2692.618103	747.239161
2694.007331	748.280420
2695.396318	745.991608
2696.786648	754.688112
2698.171993	761.524476
2699.560263	762.956643
2700.946712	764.346853
2702.332922	759.927972
2703.718893	753.737063
2705.101466	739.258741
2706.485380	727.812587
2707.869057	727.783217
2709.252496	723.888811
2710.632539	715.930070
2712.013924	721.830070
2713.393493	737.127972
2714.774404	735.830070
2716.153500	745.755944
2717.530781	753.739860
2718.909404	760.602098
2720.286214	759.111888
2721.662788	756.416084
2723.039126	759.960140
2724.413652	762.949650
2725.789519	755.465734
2727.161999	751.240559
2728.537396	753.959441
2729.907831	753.497902
2731.279608	754.838462
2732.651151	760.743357
2734.020885	756.434266
2735.391959	752.909091
2736.761226	744.798601
2738.130259	743.448951
2739.497485	740.065734
2740.864479	733.818182
2742.231240	721.369231
2743.597768	710.402797
2744.962492	708.514685
2746.326983	705.455944
2747.691242	707.598601
2749.055270	705.542657
2750.419065	697.718881
2751.779487	688.799301
2753.142820	697.269231
2754.501210	710.219580
2755.862510	708.299301
2757.220439	714.486014
2758.581278	715.918182
2759.940316	715.816783
2761.295986	714.744056
2762.654565	707.160140
2764.009776	710.265734
2765.364758	705.253846
2766.717943	699.423776
2768.074035	697.983916
2769.426763	712.340559
2770.779262	713.081119
2772.131533	699.265035
2773.485143	704.755245
2774.835391	703.709790
2776.183846	710.279720
2777.535205	717.309790
2778.883205	726.738462
2780.232544	746.137762
2781.580090	749.981119
2782.927409	752.569231
2784.274502	760.012587
2785.619804	759.504895
2786.964880	747.081119
2788.309730	735.640559
2789.654354	724.648951
2790.995625	709.928671
2792.338235	706.538462
2793.680620	700.881818
2795.022779	700.782517
2796.361589	705.206993
2797.703299	704.291608
2799.041660	700.160140
2800.381359	714.546853
2801.719272	721.051049
2803.055401	720.217483
2804.391307	726.671329
2805.728549	729.304196
2807.064008	723.181818
2808.399244	724.750350
2809.732698	732.693706
2811.067488	736.223776
2812.398937	742.042657
2813.733282	747.141958
2815.062729	744.651748
2816.393513	748.693706
2817.724075	742.795105
2819.052858	725.339860
2820.382978	725.207692
2821.711318	715.769231
2823.039438	704.190210
2824.365781	690.824476
2825.693459	692.263636
2827.017805	685.446154
2828.343486	680.034266
2829.667393	673.620979
2830.991079	671.199301
2832.316101	662.226573
2833.637794	662.964336
2834.959267	652.485315
2836.280522	655.918881
2837.601558	649.063636
2838.920822	645.551049
2840.241421	641.352448
2841.560248	650.764336
2842.878857	647.189510
2844.195696	639.199301
2845.512317	635.494406
2846.828720	643.203497
2848.143355	646.439161
2849.459324	648.756643
2850.771973	644.392308
2852.085958	655.992308
2853.399726	657.875524
2854.713277	667.359441
2856.025061	676.507692
2857.335080	680.918182
2858.646433	683.109790
2859.954470	678.545455
2861.263843	677.781119
2862.573000	679.878322
2863.881942	680.565734
2865.189121	670.213287
2866.494536	669.931469
2867.801286	667.341958
2869.106273	663.253147
2870.411047	669.357343
2871.714059	672.723776
2873.019953	667.641958
2874.320992	673.689510
2875.623364	668.683217
2876.923977	665.386713
2878.225924	663.074126
2879.527658	666.420979
2880.826088	663.159441
2882.125851	656.453147
2883.423857	656.239161
2884.721651	651.947552
2886.017688	665.584615
2887.315059	664.004895
2888.610674	659.392308
2889.906079	655.194406
2891.201272	638.055944
2892.493167	630.772727
2893.787939	626.978322
2895.079415	631.443357
2896.372223	622.592308
2897.664821	624.112587
2898.954124	641.758042
2900.244760	639.036364
2901.533646	653.593706
2902.823863	655.712587
2904.110789	655.536364
2905.399047	644.013287
2906.685556	637.520979
2907.971856	634.290210
2909.257948	628.132867
2910.542292	630.902098
2911.829508	624.185315
2913.111897	633.463636
2914.395618	644.423077
2915.677592	642.863636
2916.959360	642.680420
2918.239382	648.142657
2919.522274	646.166434
2920.803421	638.735664
2922.081286	639.643357
2923.362020	629.005594
2924.639473	626.995105
2925.916721	628.885315
2927.192226	630.421678
2928.470599	625.783916
2929.744157	626.610490
2931.020583	627.869231
2932.295268	620.176224
2933.568213	625.876923
2934.842488	622.435664
2936.115024	613.247552
2937.387356	614.372028
2938.656415	625.651049
2939.928339	641.046853
2941.198525	645.551748
2942.468507	650.490909
2943.738286	649.504895
2945.006328	654.432867
2946.272635	658.743357
2947.538739	660.250350
2948.806174	660.599301
2950.071873	649.137762
2951.337370	626.026573
2952.602665	625.304895
2953.864696	628.193007
2955.128056	620.285315
2956.391215	611.027972
2957.652641	611.579021
2958.915397	610.741259
2960.176422	612.664336
2961.435716	610.052448
2962.694809	613.719580
2963.953702	622.802797
2965.212395	610.793706
2966.470888	603.272727
2967.727652	609.388811
2968.984217	604.167133
2970.239053	606.165035
2971.495219	608.810490
2972.748129	614.346154
2974.002369	610.362937
2975.256410	613.109790
2976.508725	614.276923
2977.760842	617.761538
2979.011234	620.643357
2980.264481	615.072727
2981.512951	617.301399
2982.764275	617.086014
2984.012351	618.151049
2985.260229	620.807692
2986.507910	623.299301
2987.755395	626.877622
2989.001158	621.888811
2990.246724	622.479720
2991.493619	621.095105
2992.737268	608.483217
2993.982246	599.364336
2995.223981	596.295804
2996.468567	586.548252
2997.711434	591.420280
2998.951059	588.939161
3000.193536	598.046853
3001.432772	608.830070
3002.673336	618.823077
3003.912183	626.895804
3005.150836	634.189510
3006.387773	641.979720
3007.626037	655.533566
3008.862587	658.057343
3010.098943	655.886713
3011.335105	646.513287
3012.569553	641.967133
3013.803808	630.732168
3015.037870	632.517483
3016.270220	622.476923
3017.500858	617.206294
3018.734342	612.663636
3019.966115	604.755944
3021.196176	610.044056
3022.426046	616.991608
3023.654206	613.800699
3024.883693	608.108392
3026.111470	595.088112
3027.339056	597.474126
3028.567968	601.359441
3029.792138	611.186713
3031.019151	609.615385
3032.242941	622.216084
3033.468056	622.724476
3034.691465	627.995105
3035.914685	631.649650
3037.136199	629.123077
3038.360554	630.870629
3039.580174	620.619580
3040.801120	609.813287
3042.021876	610.161538
3043.240929	605.948951
3044.461308	607.399301
3045.678470	605.147552
3046.896957	610.510490
3048.113743	601.916084
3049.330340	606.236364
3050.546750	598.325874
3051.759946	592.223077
3052.975980	585.802797
3054.188802	574.819580
3055.404461	576.091608
3056.615397	570.029371
3057.827659	559.337063
3059.039733	560.721678
3060.251621	556.964336
3061.461811	556.553846
3062.671816	560.828322
3063.881634	571.667832
3065.089756	572.821329
3066.297692	576.384615
3067.503934	584.259790
3068.711500	584.639860
3069.917371	587.940909
3071.123057	583.491608
3072.328559	571.024126
3073.532367	572.037762
3074.737499	566.090559
3075.940938	563.625175
3077.142685	567.140210
3078.344249	563.521678
3079.545629	554.109091
3080.746825	558.702797
3081.946331	561.328671
3083.145653	556.634266
3084.346299	554.899301
3085.545256	560.170629
3086.741017	551.593706
3087.939608	560.127972
3089.135005	556.241958
3090.331726	552.248252
3091.525254	552.497902
3092.721610	541.518182
3093.916279	534.749650
3095.107758	540.248951
3096.303568	533.365734
3097.494685	537.648252
3098.687125	540.740559
3099.876376	544.707692
3101.068454	542.437762
3102.258848	546.045455
3103.446055	538.342657
3104.634586	542.160839
3105.824439	547.941259
3107.011107	548.400000
3108.197596	551.995804
3109.383905	546.552448
3110.571537	541.097203
3111.755986	541.733566
3112.938755	535.219580
3114.124348	536.029371
3115.308260	530.141259
3116.490494	527.625874
3117.672550	523.539161
3118.854427	528.000000
3120.036126	533.298601
3121.216148	532.880420
3122.394492	529.602797
3123.575658	520.474126
3124.753648	525.537762
3125.931461	530.752448
3127.109097	538.343357
3128.285058	556.537762
3129.460843	552.513287
3130.637948	556.238462
3131.813380	550.863636
3132.987138	549.446853
3134.159223	545.457343
3135.332629	535.030070
3136.505860	526.649650
3137.677418	524.138462
3138.850298	522.532867
3140.020010	521.916084
3141.191043	522.389510
3142.360405	516.658741
3143.528098	506.720979
3144.698606	513.762937
3145.864455	508.779021
3147.034614	516.506993
3148.200115	520.195804
3149.365443	522.914685
3150.530597	528.237762
3151.695578	533.989510
3152.861878	526.146154
3154.023525	526.553147
3155.186493	521.064336
3156.349287	513.990909
3157.511909	519.453147
3158.672866	527.440559
3159.833650	521.962937
3160.994263	534.555944
3162.153211	528.647552
3163.311987	531.623077
3164.470592	531.037063
3165.629025	534.770629
3166.787286	527.534965
3167.943885	533.830070
3169.098823	528.837063
3170.255080	530.074825
3171.409677	530.360839
3172.564102	526.711189
3173.716868	515.308392
3174.869464	519.224476
3176.021890	510.051049
3177.174145	509.777622
3178.326231	504.308392
3179.475170	501.860140
3180.626916	501.304196
3181.777005	508.083217
3182.925436	512.322378
3184.073699	517.965734
3185.221793	517.827972
3186.369717	522.686713
3187.515987	528.890909
3188.662088	535.673427
3189.806535	530.337063
3190.950813	528.867832
3192.094924	530.104895
3193.240353	528.239860
3194.382643	527.783916
3195.524765	528.186713
3196.666721	525.674825
3197.808509	522.623077
3198.950130	519.895105
3200.088615	522.064336
3201.228419	521.346853
3202.369539	518.949650
3203.507525	511.965035
3204.643862	519.984615
3205.780033	523.002098
3206.917522	517.395105
3208.053362	513.788112
3209.190518	516.437063
3210.323063	511.873427
3211.459888	510.290909
3212.592102	507.990909
3213.725634	508.534266
3214.859000	503.662937
3215.989239	495.593007
3217.122277	485.781119
3218.252187	489.141259
3219.383415	481.176224
3220.511517	484.209790
3221.642417	486.528671
3222.771672	487.087413
3223.899283	489.281818
3225.023773	486.076923
3226.152538	490.533566
3227.278181	488.774126
3228.403661	478.774825
3229.527500	466.954545
3230.654134	468.983916
3231.776169	475.744056
3232.899521	480.544755
3234.022711	490.967133
3235.145739	496.411189
3236.267127	491.047552
3237.388354	494.118881
3238.507942	473.826573
3239.627369	478.755245
3240.745159	473.240559
3241.865740	466.512587
3242.983208	456.504196
3244.100515	456.180420
3245.217661	462.648951
3246.333172	464.048951
3247.449998	462.671329
3248.563713	466.323776
3249.680219	461.390909
3250.795089	467.057343
3251.906851	460.014685
3253.018454	474.090909
3254.131372	481.455245
3255.244130	482.365035
3256.353782	489.204895
3257.464749	494.777622
3258.575557	503.322378
3259.684733	497.478322
3260.792278	493.759441
3261.901138	487.916783
3263.009839	485.160140
3264.115438	478.594406
3265.222352	473.417483
3266.327636	473.894406
3267.434234	481.882517
3268.537732	488.237762
3269.642544	496.798601
3270.747199	496.575524
3271.848756	503.825874
3272.950156	503.151748
3274.052870	501.703497
3275.155427	499.714685
3276.254889	493.058042
3277.357133	484.693007
3278.456283	483.699301
3279.553807	478.308392
3280.651176	469.367832
3281.751328	464.679021
3282.848386	455.959441
3283.945290	455.052448
3285.042038	455.562937
3286.134227	458.420979
3287.230666	459.731469
3288.325482	462.019580
3289.420143	462.639860
3290.513183	465.304895
3291.606069	460.740559
3292.697334	454.900000
3293.789912	443.923077
3294.880870	437.024476
3295.970208	432.068531
3297.059393	430.876224
3298.149890	429.793007
3299.237303	434.837063
3300.324564	433.957343
3301.413137	437.179720
3302.501557	435.627273
3303.585430	438.702098
3304.673545	439.310490
3305.758579	437.890210
3306.841997	434.913287
3307.926727	431.672028
3309.009841	438.319580
3310.094267	442.685315
3311.175615	447.359441
3312.258275	453.297203
3313.339321	458.034965
3314.420216	464.225175
3315.499498	458.990210
3316.578629	451.710490
3317.659072	444.516783
3318.736440	441.485315
3319.815120	437.593007
3320.892188	435.456643
3321.969106	439.892308
3323.044414	442.799301
3324.119572	450.488811
3325.196041	458.437063
3326.269439	462.950350
3327.342689	467.546154
3328.417250	466.186014
3329.490201	458.279720
3330.561545	456.920979
3331.634199	459.305594
3332.703786	451.406294
3333.774684	451.693706
3334.843975	451.742657
3335.914577	447.853147
3336.983572	448.481818
3338.050961	448.103497
3339.116745	444.896503
3340.186755	451.286713
3341.253702	460.057343
3342.317587	469.654545
3343.384240	475.887413
3344.449289	481.791608
3345.512734	489.150350
3346.576032	492.130769
3347.639185	485.755944
3348.702191	469.634266
3349.765050	455.311189
3350.826308	447.696503
3351.884509	438.444755
3352.946931	434.583916
3354.006296	436.216084
3355.065517	437.939161
3356.126046	439.072727
3357.182066	444.708392
3358.240851	452.813986
3359.295128	453.508392
3360.352169	453.296503
3361.407611	447.805594
3362.464362	447.718182
3363.519516	447.402098
3364.573072	449.157343
3365.625031	450.434965
3366.679752	449.794406
3367.731425	444.476923
3368.782953	440.025175
3369.835791	442.793007
3370.885581	434.623776
3371.936680	430.032168
3372.984732	436.621678
3374.035545	436.399301
3375.083312	438.406993
3376.130937	440.637762
3377.178420	444.076923
3378.224309	442.070629
3379.271508	434.688112
3380.315663	435.166434
3381.362577	434.570629
3382.407899	429.719580
3383.450181	419.223776
3384.492321	421.188811
3385.535770	434.625874
3386.579077	434.698601
3387.620794	439.882517
3388.662370	442.737762
3389.703806	435.240559
3390.743653	431.325175
3391.781911	428.225874
3392.821477	432.458741
3393.860903	425.886014
3394.898741	417.553846
3395.934992	412.900699
3396.971103	412.101399
3398.008522	417.483217
3399.042908	409.315385
3400.078602	418.111888
3401.114156	414.098601
3402.146678	413.602098
3403.181954	415.457343
3404.214199	417.667133
3405.246306	419.866434
3406.276829	419.816084
3407.308660	427.899301
3408.340352	423.127972
3409.369016	423.839860
3410.397542	427.280420
3411.427376	426.384615
3412.457072	434.441958
3413.483741	431.541958
3414.511718	438.631469
3415.536670	436.223776
3416.564372	435.578322
3417.589051	437.249650
3418.615036	435.711189
3419.639442	439.130070
3420.663710	429.107692
3421.686400	426.817483
3422.708955	423.262937
3423.732814	429.734266
3424.753654	428.444056
3425.774359	434.076224
3426.796369	439.528846
3427.815361	443.674825
3428.834218	445.387063
3429.854381	443.538462
3430.871526	437.001923
