-118.385087	1.315934
-115.715486	-3.795604
-113.048821	-6.009790
-110.382909	-5.919281
-107.719928	-4.116733
-105.055517	-1.194805
-102.394037	2.253846
-99.731128	5.748951
-97.073326	3.459441
-94.414093	6.383916
-91.755609	6.986713
-89.100050	9.172028
-86.443062	8.206993
-83.791171	8.909790
-81.137851	7.282517
-78.487451	9.807692
-75.835621	7.027273
-73.188882	10.855944
-70.540713	11.990909
-67.893288	10.469231
-65.248776	8.021678
-62.602835	7.758741
-59.961977	4.170629
-57.319688	5.525874
-54.680309	2.200000
-52.039501	3.285315
-49.399432	1.802098
-46.764437	1.378322
-44.128012	-1.940559
-41.494491	1.504196
-38.859540	0.379720
-36.229656	1.332168
-33.596178	1.096503
-30.967763	1.093706
-28.340082	0.879021
-25.710973	2.119580
-23.086920	-4.619580
-20.459278	-22.997203
-17.836689	-57.041958
-15.214831	-56.975524
-12.593704	91.230769
-9.973308	316.518182
-7.355799	502.662238
-4.736862	632.334965
-2.120811	700.016084
0.494512	709.495105
3.109108	658.032867
5.720822	550.747552
8.333963	389.520979
10.942071	188.834965
13.553761	-5.058042
16.160420	-102.828671
18.768507	-58.525874
21.375870	-3.975524
23.978208	4.691608
26.584124	7.085315
29.185019	8.219580
31.787341	10.288112
34.384645	10.718881
36.985525	12.972028
39.581391	12.300000
42.178684	8.446154
44.775258	6.398601
47.366823	7.848951
49.959816	4.131469
52.549948	0.924476
55.141508	-1.892308
57.730208	0.304895
60.320336	-0.528671
62.905464	-0.611888
65.492020	-1.095804
68.077861	-0.695105
70.660849	-1.661538
73.245264	-2.986713
75.822549	-3.220979
78.403401	-3.688811
80.981404	-6.542657
83.558697	-5.708392
86.137416	-3.957343
88.711154	0.062937
91.286318	-0.198601
93.858639	2.094406
96.430253	3.769930
98.999026	5.523776
101.569226	4.765035
104.136587	3.903497
106.705375	1.809790
109.271325	0.993706
111.834441	-0.620979
114.401114	0.872028
116.958564	3.755245
119.521700	6.772028
122.079877	8.293007
124.641607	14.672028
127.198382	24.347552
129.756582	38.844056
132.309830	56.426573
134.862379	79.089510
137.418480	107.744755
139.969632	137.008392
142.520086	166.773427
145.069844	195.673427
147.616782	220.469231
150.163024	234.418881
152.710693	242.018881
155.257665	247.818182
157.799701	249.618881
160.341044	246.400000
162.881695	243.589510
165.423770	240.742657
167.963035	239.711888
170.499490	239.142657
173.035255	235.444056
175.572445	232.347552
178.108943	232.327273
180.642636	230.258741
183.173526	230.302797
185.703727	231.872028
188.235353	230.333566
190.764179	230.531469
193.290205	233.365035
195.815545	234.037063
198.342310	232.341259
200.866279	232.560140
203.389562	228.018881
205.912161	227.865734
208.431967	228.517483
210.951090	232.351049
213.469530	234.997203
215.989394	237.386014
218.502257	236.058042
221.018651	238.475524
223.534364	239.006993
226.045186	236.976224
228.557433	235.341958
231.066897	234.074126
233.575683	232.640559
236.083791	232.682517
238.593323	234.334266
241.097974	240.099301
243.601949	244.239860
246.107348	249.404196
248.607872	250.189510
251.111919	254.820280
253.608996	254.539860
256.109595	254.530070
258.607423	253.925874
261.104578	254.981119
263.601060	257.774126
266.092680	260.704895
268.587818	264.632168
271.080191	272.259441
273.571893	282.185315
276.060832	298.011888
278.551194	322.900699
281.038795	364.548252
283.523636	426.659441
286.011991	534.585315
288.493408	680.430769
290.978338	841.637762
293.458422	969.212587
295.942019	1041.631469
298.420774	1052.369930
300.900951	1003.825874
303.378377	900.011888
305.855139	759.860839
308.331237	602.446154
310.804587	452.219580
313.277276	334.339161
315.749303	273.883916
318.220668	259.104196
320.689290	268.038462
323.157252	273.711189
325.626637	275.677622
328.091199	276.702797
330.559264	276.653147
333.022510	273.872028
335.485099	271.104895
337.947030	265.995804
340.408305	265.916084
342.866846	263.612587
345.326809	262.012587
347.784040	257.702797
350.240616	255.862937
352.696537	255.014685
355.149730	255.285315
357.604345	252.832168
360.054158	253.027273
362.507467	249.576923
364.955977	244.995804
367.403837	240.240559
369.853118	240.245455
372.297606	238.058042
374.743516	235.154545
377.188777	232.259441
379.631319	231.642657
382.073213	232.337063
384.514459	233.567832
386.952990	233.832168
389.392943	237.962238
391.830182	237.682517
394.264709	240.261538
396.702724	241.805594
399.135962	239.926573
401.570622	236.076224
404.000509	234.065035
406.433881	233.049650
408.862482	232.272727
411.290443	233.278322
413.719824	235.708392
416.144441	239.915385
418.570478	242.873427
420.995876	245.010490
423.420633	250.513986
425.840631	250.516783
428.262051	247.993007
430.680774	244.909091
433.100918	244.891608
435.518367	242.045455
437.937236	242.507692
440.353412	241.327972
442.764841	243.713986
445.179746	244.766434
447.591961	244.132168
450.003542	244.748252
452.414489	245.973427
454.822750	245.281818
457.230379	245.264336
459.637375	246.290909
462.043739	250.156643
464.447422	249.431469
466.850474	249.561538
469.252896	250.153147
471.654688	253.669930
474.053802	251.451748
476.454336	251.651049
478.854241	253.558042
481.249423	251.737063
483.648072	250.490210
486.042001	249.788112
488.435304	249.481818
490.827981	247.044056
493.220033	241.653147
495.613504	241.424476
498.002262	241.009790
500.388354	238.280420
502.775866	230.329371
505.162754	231.104196
507.546979	228.704895
509.932623	227.786713
512.315604	226.114685
514.695925	224.822378
517.077665	222.100000
519.456746	222.058741
521.837246	221.802098
524.215088	225.658741
526.590275	224.911189
528.964844	225.242657
531.340832	222.634965
533.714166	226.446853
536.088919	227.685315
538.458985	231.156643
540.828436	229.218881
543.199306	225.720979
545.565494	223.306993
547.933101	221.887413
550.298062	219.493007
552.662410	219.893706
555.026146	219.773427
557.391299	222.451748
559.751780	226.084615
562.113678	231.280420
564.472937	235.551748
566.829557	238.239860
569.189623	236.688112
571.542997	233.027273
573.899816	229.862238
576.254000	226.773427
578.607575	222.611888
580.960542	219.192308
583.310878	216.226573
585.662630	214.197902
588.007706	214.437063
590.358246	214.516783
592.702113	213.324476
595.051441	213.713287
597.396120	211.196503
599.738175	210.483217
602.081647	212.131469
604.422496	213.090909
606.762742	211.816084
609.100368	211.758042
611.441429	210.958741
613.777853	209.314685
616.115693	206.516783
618.450915	206.200699
620.783522	202.974126
623.117546	199.718182
625.448955	195.241958
627.779766	194.877622
630.109979	193.797203
632.439595	193.574126
634.764587	193.381818
637.095021	194.164336
639.420833	194.359441
641.744039	196.356643
644.068661	194.905594
646.390677	199.535664
648.712099	195.902098
651.030918	195.772028
653.351153	192.623776
655.670795	191.611189
657.987836	188.777622
660.304286	188.926573
662.618137	184.589510
664.933403	185.412587
667.246073	184.974126
669.560158	190.112587
671.869644	193.119580
674.180544	198.806294
676.488852	198.804895
678.796572	202.890210
681.105707	202.961538
683.410249	203.713287
685.714205	201.344755
688.017574	198.393007
690.322358	196.558741
692.622556	197.701399
694.924169	197.976224
697.225196	198.730769
699.521642	199.457343
701.819502	203.162238
704.116780	203.170629
706.413473	207.025874
708.705591	207.650350
711.001120	208.026573
713.292076	204.470629
715.584446	205.831469
717.874240	208.815385
720.163455	210.739161
722.452089	209.743357
724.738152	208.337762
727.025628	208.995804
729.310534	212.867832
731.594861	213.507692
733.876621	217.047552
736.159794	219.682517
738.442390	220.016783
740.720430	216.879021
742.999884	220.376923
745.278763	218.889510
747.557066	217.663636
749.830820	213.705594
752.105988	211.162937
754.380582	207.477622
756.652617	207.720280
758.926065	206.349650
761.196955	206.209091
763.465288	208.945455
765.735036	206.432168
768.002228	206.303497
770.268850	211.186713
772.534903	207.941259
774.798404	211.026573
777.063317	213.055245
779.327662	213.632867
781.587476	212.348951
783.848704	212.684615
786.109364	208.467832
788.367477	209.118182
790.623046	208.295804
792.882006	208.295105
795.134467	210.481119
797.392295	212.211888
799.645604	208.801399
801.896372	209.579021
804.148553	208.015385
806.398196	209.930070
808.649250	208.203497
810.895793	207.776923
813.143749	206.946853
815.389169	208.164336
817.636002	208.311189
819.882272	209.692308
822.124039	209.506294
824.369188	205.382517
826.607865	203.531469
828.849925	202.195804
831.087486	200.423077
833.326458	203.045455
835.562904	202.841958
837.800762	207.367133
840.036094	211.267133
842.268902	213.932867
844.503122	215.876224
846.734820	216.666434
848.965963	215.678322
851.196551	214.807692
853.426585	216.034266
855.656064	215.385315
857.881063	211.260839
860.109435	210.900699
862.333329	206.983217
864.558633	206.720979
866.779462	203.853147
869.003663	201.691608
871.223391	198.947552
873.444530	201.458042
875.665118	202.047552
877.883197	205.551748
880.102685	207.027972
882.317707	212.492308
884.532181	215.198601
886.746108	215.318182
888.959487	214.607692
891.172320	214.901399
893.384605	211.808392
895.594389	208.184615
897.803627	209.310490
900.012319	209.846853
902.218513	203.155245
904.426116	205.281119
906.631222	201.685315
908.835784	205.875524
911.037851	208.325175
913.241327	213.038462
915.442309	218.749650
917.642749	222.516084
919.844598	224.027972
922.040056	230.246154
924.238872	236.581119
926.433251	235.515385
928.630987	233.548951
930.824287	238.950350
933.018995	239.167133
935.211218	235.440559
937.402903	235.680420
939.594050	239.549650
941.782714	234.578322
943.970841	233.836364
946.156488	232.687413
948.345487	238.110490
950.530063	236.181818
952.714104	233.560140
954.901495	233.214685
957.080583	232.919580
959.263020	229.769930
961.444924	222.458741
963.624354	226.738462
965.801311	226.155245
967.979676	222.881818
970.159447	227.465035
972.332870	227.465035
974.509639	231.152448
976.682002	229.305594
978.855771	230.136364
981.025138	227.816783
983.197848	230.980420
985.368092	229.462937
987.537808	234.881119
989.706995	238.160140
991.871785	235.640559
994.039917	235.809091
996.203653	237.644755
998.368797	231.848951
1000.531481	228.423077
1002.693640	230.700000
1004.853341	234.655944
1007.012519	236.576224
1009.173103	242.848951
1011.331232	244.491608
1013.488837	248.728671
1015.645919	253.389510
1017.802478	251.241958
1019.954657	252.658042
1022.108243	252.553846
1024.261306	253.372028
1026.411922	253.965734
1028.563943	259.233566
1030.711591	256.413986
1032.862571	251.052448
1035.009181	242.543357
1037.155271	239.906993
1039.300843	236.669231
1041.447819	237.522378
1043.588508	235.661538
1045.732525	237.840559
1047.874103	238.456643
1050.015163	242.550350
1052.157628	247.656643
1054.293814	246.390909
1056.433326	236.130070
1058.568482	230.593706
1060.706963	223.220280
1062.841091	221.414685
1064.974705	220.478322
1067.109723	223.348951
1069.240392	230.448951
1071.372467	235.391608
1073.502111	236.079021
1075.631244	241.998601
1077.759866	250.893007
1079.887976	247.139860
1082.013660	244.832168
1084.138834	237.693007
1086.265411	230.925175
1088.387652	228.422378
1090.511297	228.832168
1092.630607	234.157343
1094.755146	240.943357
1096.873441	241.602098
1098.993139	237.938462
1101.110419	243.626573
1103.227193	241.302098
1105.343460	229.976224
1107.457312	226.225874
1109.572567	210.997902
1111.683500	215.423776
1113.797744	217.602797
1115.907669	217.806993
1118.018996	225.853147
1120.129820	233.274825
1122.236327	232.832168
1124.346143	236.013986
1126.451645	245.035664
1128.558551	241.785315
1130.659240	241.723077
1132.765142	245.106294
1134.866735	241.862937
1136.969731	248.281119
1139.072226	247.316084
1141.168515	248.622378
1143.270010	253.235664
1145.367203	251.544056
1147.463897	244.074825
1149.560094	242.530070
1151.655792	239.797203
1153.750993	233.433566
1155.843797	230.389510
1157.938003	223.431469
1160.026018	217.362937
1162.119231	215.546853
1164.206256	221.819580
1166.296581	229.261538
1168.382617	235.190210
1170.471951	237.448252
1172.555104	239.867133
1174.639660	241.558042
1176.725616	240.598601
1178.807291	241.786014
1180.890368	238.466434
1182.971059	238.253846
1185.051259	239.427972
1187.130967	243.416084
1189.210183	251.568531
1191.287018	254.530769
1193.361472	256.346154
1195.439218	257.271329
1197.512693	248.988811
1199.587570	244.588811
1201.658179	239.484615
1203.730189	237.616783
1205.799823	232.322378
1207.870858	235.088112
1209.941405	236.586713
1212.007691	243.387413
1214.075378	247.444755
1216.140693	253.341259
1218.207408	253.959441
1220.269867	255.337762
1222.335612	250.350350
1224.397102	253.095804
1226.459992	251.658042
1228.520515	253.138462
1230.580555	251.173427
1232.640111	255.087413
1234.697303	257.034965
1236.754012	260.551049
1238.808359	261.716084
1240.865986	265.794406
1242.921251	263.581119
1244.972275	266.791608
1247.024699	269.902797
1249.076644	271.516783
1251.126230	273.988112
1253.175337	275.401399
1255.223965	274.621678
1257.272115	280.047552
1259.319787	284.141259
1261.363228	286.601399
1263.409944	287.619580
1265.454308	288.191608
1267.498194	286.316783
1269.539730	287.602797
1271.578916	286.019580
1273.621374	285.560839
1275.659611	284.732168
1277.699245	282.923776
1279.738405	279.688112
1281.773347	286.323776
1283.809687	284.997902
1285.843682	289.518182
1287.879076	286.792308
1289.910256	286.051049
1291.942835	282.635664
1293.974941	285.108392
1296.004707	285.347552
1298.035871	289.500699
1300.062827	289.833566
1302.091181	294.862937
1304.115331	293.507692
1306.142746	295.426573
1308.165958	292.579021
1310.190568	295.673427
1312.212843	292.662238
1314.236516	289.768531
1316.257856	286.553846
1318.278729	289.830769
1320.299134	287.421678
1322.315345	285.478322
1324.332955	287.320280
1326.348236	291.379720
1328.366776	285.198601
1330.381126	281.250350
1332.393151	279.611189
1334.408434	274.083217
1336.419531	271.096503
1338.432024	266.548951
1340.440335	260.556643
1342.451902	257.162238
1344.457430	252.178322
1346.466212	250.833566
1348.470818	255.658741
1350.478677	254.920979
1352.486073	251.215385
1354.487439	249.418182
1356.490202	249.574126
1358.492505	251.022378
1360.494347	251.255245
1362.495731	255.510490
1364.494800	254.800000
1366.493411	261.353147
1368.491564	266.620979
1370.489259	273.962937
1372.482790	277.671329
1374.477718	277.604895
1376.472189	277.217483
1378.466203	278.907692
1380.457910	277.468531
1382.449161	274.843357
1384.438107	267.851049
1386.428448	269.569930
1388.418334	266.281119
1390.405917	263.620280
1392.393046	262.230769
1394.377873	261.123776
1396.364095	260.545455
1398.348016	260.934965
1400.331485	260.949650
1402.314502	264.362937
1404.295221	261.113986
1406.277334	261.475524
1408.257150	263.271329
1410.236516	265.256643
1412.211743	263.537063
1414.190208	260.011189
1416.166380	259.558741
1418.142102	261.086713
1420.117375	267.236364
1422.090357	271.039860
1424.062892	270.807692
1426.034978	278.193007
1428.006616	277.873427
1429.974127	280.085315
1431.946711	281.548252
1433.911489	282.414685
1435.881340	280.010490
1437.847066	275.372028
1439.814186	275.595105
1441.779022	279.088112
1443.739738	280.867832
1445.705522	282.781818
1447.665351	279.619580
1449.626573	286.546154
1451.589188	284.614685
1453.547688	287.179720
1455.505746	290.988811
1457.463361	294.481818
1459.420535	291.212587
1461.375433	290.168531
1463.331723	291.874126
1465.285739	293.382517
1467.239315	294.218881
1469.190618	296.270629
1471.143313	295.616783
1473.093737	301.798601
1475.043722	301.300699
1476.993267	303.386713
1478.940544	301.355944
1480.885554	298.869231
1482.831956	293.883916
1484.777920	291.118881
1486.723446	291.505594
1488.666708	291.072727
1490.609533	287.241958
1492.550095	287.265035
1494.492048	287.350350
1496.431740	290.057343
1498.370996	286.297203
1500.309818	286.434266
1502.246380	281.115385
1504.184332	282.661538
1506.120027	282.434266
1508.055288	281.626573
1509.988292	282.626573
1511.920864	284.032168
1513.853004	285.016084
1515.784712	287.489510
1517.714167	290.783916
1519.645011	292.468531
1521.575425	291.656643
1523.501766	293.527273
1525.429497	290.835664
1527.354978	293.464336
1529.280030	290.946853
1531.204653	289.568531
1533.128847	288.285315
1535.050794	292.237063
1536.974130	291.288811
1538.895221	293.592308
1540.814067	298.661538
1542.734303	299.358741
1544.652295	302.003497
1546.569861	302.229371
1548.485185	302.997203
1550.401899	309.900699
1552.314558	312.616783
1554.230421	312.523077
1556.144045	307.325175
1558.055430	304.369930
1559.968204	299.590909
1561.876929	302.008392
1563.787044	297.395105
1565.696735	292.634965
1567.606002	291.578322
1569.513036	289.921678
1571.417837	292.986014
1573.324027	296.300000
1575.227985	296.605594
1577.131523	292.745455
1579.034639	287.285315
1580.935527	284.160839
1582.837803	281.820280
1584.737850	285.350350
1586.639286	278.751049
1588.536687	282.246853
1590.433671	288.758741
1592.330236	291.113287
1594.228188	293.311888
1596.120306	295.555944
1598.015618	299.165734
1599.910511	300.116084
1601.803183	297.789510
1603.695439	300.187413
1605.585475	299.979021
1607.475095	299.841958
1609.364300	297.679021
1611.253089	298.766434
1613.139662	297.103497
1615.027621	294.853846
1616.911565	292.786014
1618.796895	291.841259
1620.681812	293.967133
1622.564515	296.607692
1624.448604	297.072028
1626.328683	300.379021
1628.210148	298.685315
1630.089403	302.877622
1631.970044	302.662937
1633.844881	300.165734
1635.724700	295.421678
1637.600513	291.609091
1639.475917	281.508392
1641.352706	279.076224
1643.223698	274.867133
1645.097872	273.826573
1646.968048	270.328671
1648.841404	267.355245
1650.712557	263.746154
1652.581508	271.958741
1654.451845	270.148252
1656.318188	277.900000
1658.185918	274.359441
1660.051448	268.033566
1661.918363	260.572028
1663.781290	261.030769
1665.645602	256.714685
1667.507719	255.966434
1669.369430	251.520979
1671.232526	250.558741
1673.093428	250.878322
1674.952136	261.865734
1676.810441	264.430769
1678.670131	267.781818
1680.524054	263.889510
1682.381149	262.362937
1684.237842	260.430070
1686.090559	263.107692
1687.946447	258.434266
1689.798361	258.920979
1691.649873	258.167133
1693.500986	257.770629
1695.351697	253.730070
1697.202008	253.497203
1699.050135	250.695804
1700.899645	246.329371
1702.743407	244.618881
1704.592119	246.825874
1706.435084	247.781818
1708.281215	246.165734
1710.123385	244.947552
1711.968719	252.767832
1713.808313	254.488112
1715.649291	250.225175
1717.491652	238.686014
1719.330057	242.063636
1721.169845	244.572028
1723.007458	244.118881
1724.844675	242.686014
1726.679719	241.209091
1728.516146	245.862937
1730.350401	239.667832
1732.184262	242.168531
1734.017728	241.679720
1735.847248	238.628671
1737.679927	230.698601
1739.508662	223.788112
1741.340555	230.507692
1743.168505	232.910490
1744.996063	235.354545
1746.823230	236.519580
1748.650004	238.465035
1750.476388	245.236364
1752.298835	244.109790
1754.124436	246.067832
1755.946103	247.081119
1757.769152	249.630070
1759.590040	249.320280
1761.410538	249.268531
1763.232418	249.450350
1765.048598	249.453147
1766.867930	249.172028
1768.683335	248.993007
1770.501891	245.567133
1772.316521	241.507692
1774.130764	242.922378
1775.944621	242.939860
1777.758091	241.288811
1779.569407	239.919580
1781.382105	237.006993
1783.194416	235.241259
1785.002810	234.653846
1786.812585	235.600699
1788.618444	240.278322
1790.427450	243.525175
1792.232542	245.877622
1794.039014	245.804196
1795.845103	251.631469
1797.647282	251.600000
1799.452604	252.525874
1801.254018	254.781818
1803.056812	255.641958
1804.855701	254.016783
1806.655969	250.181119
1808.455857	246.041958
1810.253602	241.858741
1812.050967	234.994406
1813.847951	232.439161
1815.644555	220.666434
1817.439020	220.334266
1819.234865	217.732867
1821.025054	222.097203
1822.820140	223.765035
1824.609573	226.884615
1826.402144	225.381119
1828.192579	225.840559
1829.980879	232.615385
1831.772315	235.044056
1833.558105	238.018182
1835.345275	247.462238
1837.130313	243.996503
1838.918485	253.081818
1840.702771	256.744755
1842.484928	260.733566
1844.268463	264.486713
1846.049871	263.576224
1847.832656	263.296503
1849.611562	261.891608
1851.391846	257.463636
1853.170005	252.144755
1854.949541	244.381119
1856.726953	244.295804
1858.502241	236.973427
1860.278908	238.439860
1862.053452	239.065734
1863.829373	242.267133
1865.599675	244.647552
1867.373104	247.962937
1869.144413	256.579720
1870.915351	253.006294
1872.687666	249.969231
1874.454369	251.092308
1876.224196	250.837762
1877.990160	257.897902
1879.759248	253.483916
1881.524474	253.500000
1883.289332	253.451049
1885.055566	254.896503
1886.817942	256.214685
1888.579951	258.640559
1890.341593	260.119580
1892.102867	259.082517
1893.863775	261.590210
1895.624315	261.002098
1897.382746	264.638462
1899.140812	264.711189
1900.896770	257.239860
1902.654104	255.217483
1904.411072	254.283217
1906.165935	249.528671
1907.918692	243.701399
1909.671086	235.669930
1911.424856	234.922378
1913.176522	236.732867
1914.926085	233.639860
1916.677025	233.655245
1918.427601	236.434965
1920.174339	234.909091
1921.922452	233.925175
1923.668466	234.982517
1925.415856	234.111888
1927.161147	230.704895
1928.904341	230.934965
1930.648911	231.955245
1932.391384	238.320280
1934.133497	240.044056
1935.875251	240.411538
1937.616644	245.520280
1939.355944	249.588462
1941.094885	251.318182
1942.833467	249.749301
1944.569957	246.791608
1946.306090	237.988462
1948.043597	232.988811
1949.777283	227.587762
1951.512343	224.453147
1953.245314	225.193357
1954.977929	226.122378
1956.710187	227.209441
1958.442089	227.805594
1960.171905	230.790210
1961.899637	239.232168
1963.628742	243.440559
1965.357493	244.944056
1967.084160	243.927273
1968.810473	244.906993
1970.538159	242.639161
1972.260309	244.835664
1973.985561	246.056643
1975.707005	243.375524
1977.431549	236.070629
1979.154014	233.311189
1980.872675	231.709091
1982.594435	236.500000
1984.312393	237.185315
1986.031725	237.923776
1987.747256	237.196503
1989.467609	239.291608
1991.184162	235.534965
1992.896920	235.771329
1994.612773	228.100699
1996.326554	223.770629
1998.039984	225.662238
1999.751344	228.583916
2001.464077	229.206993
2003.173018	234.231469
2004.885053	236.104895
2006.591578	236.627972
2008.301196	229.590210
2010.008746	234.570629
2011.715949	231.328671
2013.421086	229.503497
2015.125876	228.532867
2016.832038	230.234266
2018.534418	234.041259
2020.238170	237.719580
2021.939859	240.297902
2023.641202	243.846154
2025.342200	240.258741
2027.041138	236.020280
2028.741447	226.911888
2030.437980	233.820280
2032.135885	228.210490
2033.831732	226.076923
2035.530664	227.187413
2037.224110	227.279720
2038.918927	225.872727
2040.613401	228.081818
2042.304107	228.623077
2043.997897	229.038462
2045.687920	231.100000
2047.379314	234.319580
2049.068655	234.288112
2050.759366	237.656643
2052.446315	235.135664
2054.132923	239.348252
2055.820902	244.690210
2057.505121	251.942657
2059.190710	249.687413
2060.875960	252.346853
2062.559162	248.049650
2064.243734	247.275524
2065.922842	249.380420
2067.606736	248.948252
2069.285170	243.358042
2070.966681	238.974126
2072.644440	238.248252
2074.321863	241.988811
2076.000655	241.738462
2077.677404	244.187413
2079.352112	238.074825
2081.028189	237.946853
2082.702226	228.138462
2084.375927	229.736364
2086.049293	231.880420
2087.720621	233.232867
2089.391614	232.143357
2091.062273	235.080420
2092.732598	237.026573
2094.402588	238.795105
2096.070543	238.695804
2097.738165	234.632168
2099.403753	232.965734
2101.070709	233.850350
2102.735632	230.629371
2104.400222	233.386014
2106.062781	238.600000
2107.726709	242.100699
2109.388605	244.242657
2111.050170	249.474825
2112.711405	251.618881
2114.370610	251.914685
2116.029486	247.876224
2117.688031	238.961538
2119.346247	237.949650
2121.000739	234.109790
2122.658297	233.972727
2124.315524	230.871329
2125.969031	234.766434
2127.623905	235.785315
2129.275060	238.014685
2130.929278	241.246853
2132.579778	243.423776
2134.231646	246.741958
2135.878105	244.746853
2137.529318	244.542657
2139.176818	243.128671
2140.825686	240.318881
2142.472534	235.769231
2144.119056	231.902797
2145.765254	234.410490
2147.407742	231.970629
2149.053289	230.252448
2150.695129	229.805594
2152.340026	230.230769
2153.981218	232.371329
2155.622086	232.022378
2157.262631	229.876224
2158.901163	228.583217
2160.541061	231.077622
2162.177259	229.428671
2163.814823	235.112587
2165.452065	239.041259
2167.087297	240.248951
2168.722207	240.567133
2170.356796	242.343357
2171.991064	240.202098
2173.621638	240.848252
2175.255263	239.494406
2176.885197	236.533566
2178.516496	237.970629
2180.145791	241.766434
2181.774765	240.688811
2183.403421	242.093007
2185.031757	241.011189
2186.658090	243.681119
2188.284105	241.753846
2189.908119	244.161538
2191.533498	239.662937
2193.156876	237.027972
2194.781619	233.455245
2196.402680	233.395804
2198.023426	230.137063
2199.645535	232.369231
2201.265647	232.671329
2202.883763	232.099301
2204.501563	238.018182
2206.119047	240.295804
2207.736216	243.051049
2209.353070	250.946154
2210.969609	246.141259
2212.584154	242.456643
2214.196707	237.867832
2215.810625	237.278322
2217.422550	233.036364
2219.035840	232.416783
2220.647138	229.362238
2222.256448	230.183217
2223.867120	236.602098
2225.475804	233.951049
2227.084176	234.731469
2228.690560	237.438462
2230.298308	231.977622
2231.904069	229.983916
2233.509519	228.267133
2235.112985	231.132867
2236.717813	232.071329
2238.320657	229.722378
2239.921518	229.057343
2241.523742	230.130070
2243.123983	236.081818
2244.725588	231.869930
2246.323539	233.367133
2247.922853	242.287413
2249.520187	243.197203
2251.117213	246.048252
2252.715600	250.014685
2254.310339	248.927273
2255.903102	247.208392
2257.497226	245.511189
2259.092712	240.153147
2260.684554	237.880420
2262.276089	236.450350
2263.868985	235.743357
2265.456572	239.310490
2267.048856	245.264336
2268.635832	243.944755
2270.225837	246.118182
2271.810537	249.739161
2273.399931	247.995804
2274.984022	246.605594
2276.569475	243.677622
2278.152959	237.591608
2279.739468	235.274825
2281.322344	229.141958
2282.904916	229.596503
2284.487186	227.444755
2286.065825	230.006294
2287.647488	230.662937
2289.225524	236.810490
2290.806582	239.234266
2292.384013	243.348951
2293.959481	242.603497
2295.537971	237.665734
2297.112836	233.884615
2298.687401	234.858042
2300.261666	229.127972
2301.835630	227.133566
2303.409294	226.591608
2304.982657	223.798601
2306.552402	223.827273
2308.121848	225.274126
2309.694313	225.087413
2311.261503	226.676224
2312.831710	228.489510
2314.398303	225.426573
2315.966256	228.383217
2317.532254	226.489510
2319.097954	221.736364
2320.663356	224.248252
2322.226805	219.915385
2323.791613	215.076923
2325.352812	214.913287
2326.917026	209.559441
2328.475979	208.165035
2330.037945	208.600000
2331.597961	213.953846
2333.157681	219.120979
2334.715452	225.220280
2336.272929	225.336364
2337.830110	228.431469
2339.385345	232.325874
2340.940285	229.903497
2342.494932	228.652448
2344.049285	223.776923
2345.603344	220.472028
2347.157110	216.545455
2348.708931	214.267133
2350.258809	214.939161
2351.811695	217.700000
2353.359339	217.582517
2354.909990	219.966434
2356.457051	212.407692
2358.005469	216.767832
2359.553595	214.884615
2361.098134	217.128671
2362.644030	220.682517
2364.187987	221.038462
2365.733302	217.286713
2367.275032	217.184615
2368.818120	218.891608
2370.359271	222.620979
2371.900133	224.622378
2373.440706	231.120280
2374.980990	229.772727
2376.520985	232.536364
2378.057401	226.981119
2379.596819	226.527273
2381.132660	225.893007
2382.669857	215.760839
2384.203480	216.966434
2385.740102	218.889510
2387.274793	215.877622
2388.807555	219.248951
2390.340031	220.074126
2391.870578	227.097902
2393.404123	224.301399
2394.932457	219.132867
2396.462147	209.913287
2397.991552	209.112587
2399.520672	203.339860
2401.049506	208.964336
2402.573136	216.367832
2404.101401	225.894406
2405.624463	227.316084
2407.152160	239.637762
2408.673016	246.010490
2410.198506	249.958042
2411.720436	245.379720
2413.243720	238.302098
2414.765084	228.304895
2416.284528	220.265734
2417.805327	209.151049
2419.324207	214.275524
2420.842805	212.940559
2422.359486	217.884615
2423.877522	219.682517
2425.395276	230.658741
2426.909478	236.340559
2428.423400	238.508392
2429.937043	241.124476
2431.452039	239.245455
2432.963487	235.977622
2434.476290	233.482517
2435.987180	231.834266
2437.497790	233.928671
2439.006489	225.572727
2440.518175	221.862238
2442.026317	222.665734
2443.534180	231.669231
2445.041766	237.160140
2446.545812	241.163636
2448.052842	243.502098
2449.557964	241.538462
2451.062809	240.317483
2452.565747	242.053846
2454.068408	241.024476
2455.570793	233.411189
2457.071273	222.921678
2458.573106	221.448951
2460.073035	224.941259
2461.572688	228.444755
2463.072066	229.995804
2464.569541	232.561538
2466.065114	229.291608
2467.563667	229.911189
2469.058691	232.272727
2470.555069	239.898601
2472.047920	240.760140
2473.542123	237.270629
2475.036053	234.465734
2476.526460	230.546154
2478.019844	233.781818
2479.511329	228.565734
2481.000918	229.821678
2482.490236	230.962238
2483.977657	225.365035
2485.468054	227.867133
2486.954932	231.827273
2488.443162	241.293007
2489.927876	239.750350
2491.412319	236.700699
2492.898114	234.672727
2494.382016	235.534965
2495.867270	233.062937
2497.347390	225.138462
2498.830482	226.989510
2500.311684	229.155245
2501.792617	224.451049
2503.271661	232.611888
2504.750437	233.054545
2506.228944	235.537063
2507.707182	237.193706
2509.185152	236.495804
2510.659618	237.607692
2512.137052	233.941259
2513.610983	226.041958
2515.086265	218.288811
2516.561279	213.639860
2518.032792	210.302098
2519.505656	204.037063
2520.976637	207.086713
2522.448967	205.277622
2523.916185	205.864336
2525.386369	209.084615
2526.854671	209.223077
2528.322709	207.330070
2529.790482	208.679021
2531.257990	209.344056
2532.725233	208.095804
2534.188985	207.400699
2535.654086	209.551748
2537.117310	206.784615
2538.581883	211.689510
2540.042967	210.930070
2541.505402	214.078322
2542.967573	213.976923
2544.426257	213.545455
2545.889514	216.291608
2547.347674	214.311189
2548.807183	218.228671
2550.261599	210.992308
2551.720585	211.138462
2553.177698	213.566434
2554.632941	212.470629
2556.087923	214.938462
2557.541035	212.244056
2558.995496	219.624476
2560.448088	219.507692
2561.900420	218.065035
2563.350884	218.722378
2564.804304	214.804196
2566.252642	217.436364
2567.703936	210.602797
2569.153363	211.512587
2570.599319	214.303497
2572.048229	213.690210
2573.493668	214.228671
2574.940456	205.929371
2576.385380	208.803497
2577.830047	210.995105
2579.276061	207.606294
2580.718608	210.297203
2582.162503	216.581119
2583.602933	223.032867
2585.044711	224.145455
2586.484629	222.851748
2587.925894	225.631469
2589.363697	224.395105
2590.804450	221.978322
2592.240140	213.327273
2593.678780	213.736364
2595.115563	214.358042
2596.550489	208.564336
2597.988364	210.693007
2599.421181	212.702098
2600.855345	211.753147
2602.287654	209.386713
2603.721310	207.209091
2605.153113	204.750350
2606.584663	199.569930
2608.015959	197.642657
2609.445404	197.683916
2610.874596	197.758741
2612.301937	198.422378
2613.730625	199.775524
2615.159060	203.148252
2616.584049	205.660140
2618.010383	207.239860
2619.434869	210.431469
2620.860701	211.576923
2622.283089	212.179021
2623.706823	206.375524
2625.128711	206.320979
2626.550348	206.284615
2627.970140	206.071329
2629.391278	207.650350
2630.812166	207.287413
2632.229616	204.337063
2633.650005	205.246853
2635.066957	206.420280
2636.483661	208.979720
2637.900116	210.932867
2639.316323	212.223077
2640.732281	212.153147
2642.146399	215.297203
2643.560270	217.340559
2644.972301	219.212587
2646.385677	214.693007
2647.795623	209.597902
2649.208505	203.865734
2650.617958	201.240559
2652.027165	201.844056
2653.434536	203.542657
2654.844841	199.871329
2656.253310	196.893007
2657.659944	199.239860
2659.066333	200.257343
2660.470888	201.881818
2661.876787	205.515385
2663.280853	208.658741
2664.684675	217.934266
2666.088252	215.760839
2667.489997	221.486713
2668.893086	223.909790
2670.292758	226.141958
2671.693773	219.381818
2673.091371	213.551049
2674.491900	210.461538
2675.889014	207.953846
2677.287471	207.114685
2678.684100	211.423077
2680.080488	215.720280
2681.476633	219.198601
2682.870952	217.496503
2684.266614	218.311189
2685.658866	214.980420
2687.052462	217.579720
2688.444233	217.288811
2689.837346	214.354545
2691.228636	210.415385
2692.618103	206.700000
2694.007331	204.839161
2695.396318	203.053147
2696.786648	198.444056
2698.171993	197.838462
2699.560263	198.369930
2700.946712	194.395804
2702.332922	192.549650
2703.718893	198.625175
2705.101466	200.567133
2706.485380	197.537762
2707.869057	197.525874
2709.252496	196.422378
2710.632539	199.152448
2712.013924	201.901399
2713.393493	200.627273
2714.774404	203.416783
2716.153500	204.874126
2717.530781	203.358042
2718.909404	202.839161
2720.286214	206.443357
2721.662788	201.897203
2723.039126	202.290210
2724.413652	207.448252
2725.789519	213.964336
2727.161999	218.876923
2728.537396	227.248951
2729.907831	228.895804
2731.279608	230.984615
2732.651151	230.137762
2734.020885	225.739860
2735.391959	215.706993
2736.761226	212.924476
2738.130259	206.096503
2739.497485	199.416783
2740.864479	197.718182
2742.231240	200.545455
2743.597768	202.820280
2744.962492	210.687413
2746.326983	210.753147
2747.691242	212.721678
2749.055270	213.720280
2750.419065	209.424476
2751.779487	204.637063
2753.142820	206.827972
2754.501210	200.425874
2755.862510	191.827273
2757.220439	188.294406
2758.581278	186.102098
2759.940316	185.418182
2761.295986	183.753147
2762.654565	180.776923
2764.009776	184.546853
2765.364758	183.136364
2766.717943	182.576224
2768.074035	183.956643
2769.426763	188.760839
2770.779262	192.060839
2772.131533	193.652448
2773.485143	199.077622
2774.835391	205.329371
2776.183846	207.708392
2777.535205	211.085315
2778.883205	213.079021
2780.232544	211.113986
2781.580090	201.094406
2782.927409	196.687413
2784.274502	188.923077
2785.619804	183.890210
2786.964880	177.937762
2788.309730	178.367832
2789.654354	182.579720
2790.995625	189.525175
2792.338235	187.525175
2793.680620	193.141958
2795.022779	196.896503
2796.361589	200.113287
2797.703299	200.664336
2799.041660	203.755245
2800.381359	203.284615
2801.719272	209.153846
2803.055401	211.947552
2804.391307	215.727972
2805.728549	212.497902
2807.064008	212.065734
2808.399244	205.113287
2809.732698	203.160140
2811.067488	198.851049
2812.398937	198.073427
2813.733282	189.204895
2815.062729	185.908392
2816.393513	185.804196
2817.724075	192.736364
2819.052858	196.163636
2820.382978	197.364336
2821.711318	190.873427
2823.039438	188.782517
2824.365781	186.428671
2825.693459	180.819580
2827.017805	175.498601
2828.343486	171.298601
2829.667393	165.934965
2830.991079	168.396503
2832.316101	168.825874
2833.637794	171.333566
2834.959267	179.048951
2836.280522	184.085315
2837.601558	180.913986
2838.920822	182.586014
2840.241421	183.986713
2841.560248	183.327273
2842.878857	182.667133
2844.195696	181.901399
2845.512317	183.898601
2846.828720	187.962937
2848.143355	187.795105
2849.459324	188.586014
2850.771973	194.914685
2852.085958	199.418182
2853.399726	200.036364
2854.713277	202.313287
2856.025061	204.145455
2857.335080	203.199301
2858.646433	203.704196
2859.954470	203.659441
2861.263843	204.341259
2862.573000	204.368531
2863.881942	197.025874
2865.189121	192.212587
2866.494536	189.172028
2867.801286	191.430070
2869.106273	191.841259
2870.411047	194.544056
2871.714059	196.745455
2873.019953	195.218881
2874.320992	195.395105
2875.623364	195.696503
2876.923977	191.801399
2878.225924	188.134266
2879.527658	181.628671
2880.826088	175.823776
2882.125851	173.541259
2883.423857	174.100000
2884.721651	172.026573
2886.017688	168.584615
2887.315059	171.975524
2888.610674	164.777622
2889.906079	162.934965
2891.201272	165.666434
2892.493167	167.274126
2893.787939	171.253846
2895.079415	168.902797
2896.372223	173.207692
2897.664821	181.562937
2898.954124	184.561538
2900.244760	186.624476
2901.533646	187.908392
2902.823863	195.365734
2904.110789	189.529371
2905.399047	185.197902
2906.685556	186.812587
2907.971856	186.414685
2909.257948	182.284615
2910.542292	175.458741
2911.829508	175.182517
2913.111897	171.857343
2914.395618	172.133566
2915.677592	173.269930
2916.959360	178.741958
2918.239382	178.900000
2919.522274	175.844056
2920.803421	179.166434
2922.081286	186.884615
2923.362020	190.120280
2924.639473	193.742657
2925.916721	188.560839
2927.192226	182.849650
2928.470599	179.394406
2929.744157	176.755944
2931.020583	170.418182
2932.295268	168.644056
2933.568213	160.959441
2934.842488	158.776224
2936.115024	161.944056
2937.387356	161.196503
2938.656415	168.412587
2939.928339	175.547552
2941.198525	176.259441
2942.468507	184.079720
2943.738286	190.196503
2945.006328	195.318881
2946.272635	195.317483
2947.538739	199.075524
2948.806174	193.134965
2950.071873	190.939161
2951.337370	185.905594
2952.602665	183.879021
2953.864696	182.190909
2955.128056	178.285315
2956.391215	175.723077
2957.652641	176.654545
2958.915397	178.500000
2960.176422	179.823776
2961.435716	175.500000
2962.694809	172.269231
2963.953702	166.483217
2965.212395	165.784615
2966.470888	161.874126
2967.727652	163.053147
2968.984217	162.191608
2970.239053	166.486014
2971.495219	170.419580
2972.748129	174.388811
2974.002369	177.774825
2975.256410	175.563636
2976.508725	169.141958
2977.760842	163.506294
2979.011234	163.683217
2980.264481	165.276224
2981.512951	163.397203
2982.764275	163.128671
2984.012351	166.325175
2985.260229	169.867133
2986.507910	172.452448
2987.755395	172.100000
2989.001158	175.722378
2990.246724	174.106993
2991.493619	170.953147
2992.737268	177.272727
2993.982246	183.034266
2995.223981	189.497902
2996.468567	186.697902
2997.711434	187.163636
2998.951059	188.415385
3000.193536	186.867832
3001.432772	183.002098
3002.673336	179.806294
3003.912183	180.154545
3005.150836	173.774126
3006.387773	169.267832
3007.626037	172.585315
3008.862587	168.662937
3010.098943	170.359441
3011.335105	169.658741
3012.569553	174.372727
3013.803808	180.102797
3015.037870	180.571329
3016.270220	177.704196
3017.500858	177.562937
3018.734342	173.793007
3019.966115	173.351049
3021.196176	168.730070
3022.426046	168.069930
3023.654206	165.436364
3024.883693	170.044755
3026.111470	172.662937
3027.339056	175.341259
3028.567968	178.389510
3029.792138	176.454545
3031.019151	175.765035
3032.242941	176.702797
3033.468056	174.853147
3034.691465	177.262238
3035.914685	171.140559
3037.136199	167.864336
3038.360554	164.519580
3039.580174	162.890909
3040.801120	160.144755
3042.021876	157.689510
3043.240929	158.212587
3044.461308	160.936364
3045.678470	167.281818
3046.896957	169.320280
3048.113743	172.234266
3049.330340	172.322378
3050.546750	169.369231
3051.759946	168.762937
3052.975980	166.220979
3054.188802	161.364336
3055.404461	158.428671
3056.615397	155.350350
3057.827659	154.984615
3059.039733	155.761538
3060.251621	154.700699
3061.461811	152.731469
3062.671816	153.712587
3063.881634	152.455245
3065.089756	152.941958
3066.297692	154.967832
3067.503934	155.170629
3068.711500	155.668531
3069.917371	159.195105
3071.123057	164.272028
3072.328559	166.523077
3073.532367	167.900000
3074.737499	167.940559
3075.940938	171.764336
3077.142685	169.269231
3078.344249	168.736364
3079.545629	166.630070
3080.746825	161.088112
3081.946331	158.018182
3083.145653	156.910490
3084.346299	154.189510
3085.545256	154.513986
3086.741017	152.788112
3087.939608	154.642657
3089.135005	153.693007
3090.331726	153.511888
3091.525254	152.043357
3092.721610	154.522378
3093.916279	152.970629
3095.107758	152.992308
3096.303568	152.545455
3097.494685	151.481818
3098.687125	150.655245
3099.876376	153.579021
3101.068454	154.218881
3102.258848	156.788112
3103.446055	156.003497
3104.634586	157.283916
3105.824439	154.741259
3107.011107	154.530769
3108.197596	153.449650
3109.383905	153.525874
3110.571537	144.827273
3111.755986	142.429371
3112.938755	141.725175
3114.124348	144.403497
3115.308260	145.679720
3116.490494	150.338462
3117.672550	151.143357
3118.854427	150.073427
3120.036126	150.114685
3121.216148	155.401399
3122.394492	155.828671
3123.575658	155.183217
3124.753648	152.758042
3125.931461	153.245455
3127.109097	153.737063
3128.285058	155.880420
3129.460843	158.772727
3130.637948	158.177622
3131.813380	155.498601
3132.987138	158.101399
3134.159223	157.683217
3135.332629	160.246853
3136.505860	158.011189
3137.677418	157.462937
3138.850298	154.495804
3140.020010	153.090210
3141.191043	149.093706
3142.360405	149.342657
3143.528098	148.018182
3144.698606	147.032168
3145.864455	144.275524
3147.034614	146.774825
3148.200115	144.523077
3149.365443	148.362937
3150.530597	149.002797
3151.695578	149.140559
3152.861878	150.018182
3154.023525	150.269930
3155.186493	149.213986
3156.349287	147.595105
3157.511909	143.646154
3158.672866	144.796503
3159.833650	140.652448
3160.994263	141.291608
3162.153211	138.870629
3163.311987	139.058741
3164.470592	137.668531
3165.629025	136.653147
3166.787286	138.938462
3167.943885	137.565035
3169.098823	136.339161
3170.255080	132.776923
3171.409677	133.288112
3172.564102	136.460839
3173.716868	139.309091
3174.869464	139.637762
3176.021890	142.086713
3177.174145	144.516084
3178.326231	143.003497
3179.475170	143.136364
3180.626916	142.628671
3181.777005	139.830769
3182.925436	137.562238
3184.073699	138.107692
3185.221793	139.176224
3186.369717	142.675524
3187.515987	143.632168
3188.662088	144.085315
3189.806535	148.116783
3190.950813	150.036364
3192.094924	151.819580
3193.240353	155.543357
3194.382643	156.709790
3195.524765	156.885315
3196.666721	157.461538
3197.808509	152.969930
3198.950130	148.388112
3200.088615	144.782517
3201.228419	136.736364
3202.369539	130.625874
3203.507525	130.486014
3204.643862	132.840559
3205.780033	133.723776
3206.917522	137.795804
3208.053362	139.232867
3209.190518	141.716084
3210.323063	139.951049
3211.459888	138.039860
3212.592102	138.678322
3213.725634	137.006294
3214.859000	135.287413
3215.989239	133.132168
3217.122277	135.089510
3218.252187	138.610490
3219.383415	136.004895
3220.511517	136.562937
3221.642417	135.414685
3222.771672	136.851049
3223.899283	132.404895
3225.023773	136.625175
3226.152538	134.241958
3227.278181	133.070629
3228.403661	137.100699
3229.527500	139.046154
3230.654134	141.608392
3231.776169	144.676923
3232.899521	139.353147
3234.022711	137.997203
3235.145739	137.264336
3236.267127	134.367133
3237.388354	130.394406
3238.507942	130.472727
3239.627369	125.272727
3240.745159	124.938462
3241.865740	126.851049
3242.983208	128.997902
3244.100515	133.408392
3245.217661	133.569231
3246.333172	134.036364
3247.449998	132.568531
3248.563713	135.888112
3249.680219	133.595804
3250.795089	133.532168
3251.906851	133.592308
3253.018454	132.457343
3254.131372	131.953147
3255.244130	130.974126
3256.353782	132.437063
3257.464749	137.611888
3258.575557	135.740559
3259.684733	137.169231
3260.792278	135.083217
3261.901138	136.404196
3263.009839	133.839860
3264.115438	136.004895
3265.222352	136.091608
3266.327636	133.943357
3267.434234	134.370629
3268.537732	132.904895
3269.642544	135.011189
3270.747199	136.533566
3271.848756	134.015385
3272.950156	136.072727
3274.052870	139.683217
3275.155427	135.765035
3276.254889	137.818182
3277.357133	137.553846
3278.456283	135.900000
3279.553807	131.262937
3280.651176	131.695105
3281.751328	128.899301
3282.848386	129.031469
3283.945290	124.372727
3285.042038	122.263636
3286.134227	122.644056
3287.230666	120.662937
3288.325482	117.830769
3289.420143	120.237762
3290.513183	120.216783
3291.606069	120.925874
3292.697334	117.351748
3293.789912	120.986014
3294.880870	121.821678
3295.970208	120.483217
3297.059393	117.085315
3298.149890	120.174126
3299.237303	123.152448
3300.324564	128.079021
3301.413137	133.613287
3302.501557	134.853147
3303.585430	134.264336
3304.673545	133.458042
3305.758579	133.449650
3306.841997	136.481119
3307.926727	136.778322
3309.009841	130.219580
3310.094267	127.037762
3311.175615	128.786014
3312.258275	125.701399
3313.339321	130.454545
3314.420216	128.644755
3315.499498	127.102797
3316.578629	125.688811
3317.659072	131.225874
3318.736440	135.028671
3319.815120	139.997902
3320.892188	139.353846
3321.969106	137.536364
3323.044414	134.497203
3324.119572	131.506294
3325.196041	128.290909
3326.269439	134.329371
3327.342689	129.025874
3328.417250	129.206294
3329.490201	127.167133
3330.561545	129.360140
3331.634199	129.679720
3332.703786	132.955245
3333.774684	130.297902
3334.843975	131.899301
3335.914577	126.659441
3336.983572	124.223077
3338.050961	127.802797
3339.116745	128.572727
3340.186755	122.927972
3341.253702	122.588811
3342.317587	122.725874
3343.384240	127.295804
3344.449289	129.809091
3345.512734	133.132168
3346.576032	134.525874
3347.639185	136.581119
3348.702191	131.700000
3349.765050	130.666434
3350.826308	132.396503
3351.884509	129.434965
3352.946931	127.237762
3354.006296	127.090210
3355.065517	130.133566
3356.126046	131.748252
3357.182066	126.844056
3358.240851	127.291608
3359.295128	128.779720
3360.352169	128.604196
3361.407611	126.864336
3362.464362	130.088811
3363.519516	129.973427
3364.573072	130.216084
3365.625031	129.795105
3366.679752	131.459441
3367.731425	131.027273
3368.782953	131.391608
3369.835791	129.427273
3370.885581	126.614685
3371.936680	122.495105
3372.984732	122.623776
3374.035545	122.282517
3375.083312	120.563636
3376.130937	117.761538
3377.178420	119.722378
3378.224309	120.183916
3379.271508	124.480420
3380.315663	124.892308
3381.362577	130.500000
3382.407899	127.947552
3383.450181	126.769231
3384.492321	131.900000
3385.535770	135.144755
3386.579077	131.296503
3387.620794	127.622378
3388.662370	125.732867
3389.703806	128.455944
3390.743653	127.774825
3391.781911	127.142657
3392.821477	118.005594
3393.860903	112.153147
3394.898741	107.020979
3395.934992	107.813986
3396.971103	110.027273
3398.008522	109.725175
3399.042908	104.523776
3400.078602	103.813986
3401.114156	107.280420
3402.146678	116.221678
3403.181954	121.934965
3404.214199	123.206294
3405.246306	119.313287
3406.276829	116.425874
3407.308660	115.882517
3408.340352	113.602098
3409.369016	115.718881
3410.397542	115.041958
3411.427376	111.597902
3412.457072	112.016084
3413.483741	116.234965
3414.511718	123.932168
3415.536670	129.146853
3416.564372	129.994406
3417.589051	129.524476
3418.615036	128.813287
3419.639442	128.358042
3420.663710	128.524476
3421.686400	126.574126
3422.708955	124.068531
3423.732814	123.074126
3424.753654	119.585315
3425.774359	119.648851
3426.796369	120.056693
3427.815361	120.553247
3428.834218	120.882917
3429.854381	120.790110
3430.871526	120.019231
