-118.385087	6.659066
-115.715486	5.998901
-113.048821	5.601848
-110.382909	5.320879
-107.719928	5.008966
-105.055517	4.519081
-102.394037	3.704196
-99.731128	0.011888
-97.073326	-2.463636
-94.414093	-3.510490
-91.755609	-5.990909
-89.100050	-4.874126
-86.443062	-1.181818
-83.791171	1.801399
-81.137851	3.645455
-78.487451	6.390210
-75.835621	8.776224
-73.188882	9.628671
-70.540713	8.348252
-67.893288	3.989510
-65.248776	0.371329
-62.602835	-1.907692
-59.961977	-3.679720
-57.319688	-4.352448
-54.680309	-4.837762
-52.039501	-3.067832
-49.399432	-1.248951
-46.764437	1.267832
-44.128012	2.403497
-41.494491	4.133566
-38.859540	5.976224
-36.229656	6.180420
-33.596178	4.857343
-30.967763	3.241958
-28.340082	3.309091
-25.710973	1.832168
-23.086920	-10.164336
-20.459278	-41.736364
-17.836689	-95.279720
-15.214831	-97.803497
-12.593704	162.467133
-9.973308	533.846154
-7.355799	843.953846
-4.736862	1054.852448
-2.120811	1165.293007
0.494512	1176.328671
3.109108	1091.741259
5.720822	909.523077
8.333963	636.918881
10.942071	304.690909
13.553761	-12.023776
16.160420	-176.311888
18.768507	-93.834266
21.375870	-12.387413
23.978208	2.231469
26.584124	2.183916
29.185019	3.897902
31.787341	2.778322
34.384645	5.079021
36.985525	5.896503
39.581391	6.337063
42.178684	7.990909
44.775258	9.609091
47.366823	5.971329
49.959816	4.049650
52.549948	2.408392
55.141508	3.943357
57.730208	3.143357
60.320336	3.086014
62.905464	1.616783
65.492020	2.837762
68.077861	-0.037063
70.660849	1.584615
73.245264	0.583916
75.822549	2.761538
78.403401	0.214685
80.981404	2.279021
83.558697	3.502797
86.137416	3.391608
88.711154	-1.287413
91.286318	-1.840559
93.858639	-1.344755
96.430253	1.088811
98.999026	1.795105
101.569226	3.774126
104.136587	3.314685
106.705375	6.367832
109.271325	6.461538
111.834441	6.938462
114.401114	8.139161
116.958564	8.732168
119.521700	10.535664
122.079877	15.874825
124.641607	25.937762
127.198382	39.682517
129.756582	58.949650
132.309830	82.923077
134.862379	120.862937
137.418480	166.851748
139.969632	214.383916
142.520086	260.564336
145.069844	307.097203
147.616782	347.411888
150.163024	376.598601
152.710693	397.264336
155.257665	408.068531
157.799701	409.250350
160.341044	404.209790
162.881695	395.620280
165.423770	391.485315
167.963035	386.370629
170.499490	380.107692
173.035255	374.823077
175.572445	372.656643
178.108943	372.251748
180.642636	372.137762
183.173526	372.134266
185.703727	371.337063
188.235353	373.607692
190.764179	371.334965
193.290205	370.539860
195.815545	369.025175
198.342310	366.168531
200.866279	363.944056
203.389562	365.131469
205.912161	364.493706
208.431967	369.091608
210.951090	367.909091
213.469530	369.219580
215.989394	372.037063
218.502257	378.700000
221.018651	378.375524
223.534364	380.260140
226.045186	379.713287
228.557433	377.673427
231.066897	377.426573
233.575683	382.963636
236.083791	385.192308
238.593323	389.048252
241.097974	385.151748
243.601949	388.090909
246.107348	390.532867
248.607872	395.462937
251.111919	396.699301
253.608996	403.047552
256.109595	408.372727
258.607423	414.074126
261.104578	420.702098
263.601060	430.458042
266.092680	441.088811
268.587818	449.248951
271.080191	457.451049
273.571893	472.860839
276.060832	492.665734
278.551194	529.006294
281.038795	593.881119
283.523636	705.153846
286.011991	884.888811
288.493408	1129.725874
290.978338	1384.188112
293.458422	1584.020280
295.942019	1696.710490
298.420774	1708.934965
300.900951	1622.288112
303.378377	1451.175524
305.855139	1214.908392
308.331237	956.969231
310.804587	713.639161
313.277276	529.958042
315.749303	440.277622
318.220668	422.365035
320.689290	430.436364
323.157252	434.299301
325.626637	435.814685
328.091199	436.518881
330.559264	432.583916
333.022510	429.387413
335.485099	421.345455
337.947030	421.106294
340.408305	420.940559
342.866846	421.879720
345.326809	419.181818
347.784040	415.551049
350.240616	414.329371
352.696537	415.219580
355.149730	413.897902
357.604345	409.741958
360.054158	404.695804
362.507467	399.183217
364.955977	392.748252
367.403837	389.267832
369.853118	383.809790
372.297606	380.282517
374.743516	373.999301
377.188777	375.583916
379.631319	375.328671
382.073213	375.376224
384.514459	372.644755
386.952990	376.286014
389.392943	379.951748
391.830182	381.813287
394.264709	382.728671
396.702724	378.769231
399.135962	375.256643
401.570622	375.863636
404.000509	373.314685
406.433881	372.651748
408.862482	368.725175
411.290443	370.689510
413.719824	371.511888
416.144441	378.881119
418.570478	380.468531
420.995876	380.460140
423.420633	379.382517
425.840631	379.577622
428.262051	379.062238
430.680774	382.983916
433.100918	382.199301
435.518367	384.239860
437.937236	383.317483
440.353412	388.347552
442.764841	389.419580
445.179746	390.536364
447.591961	390.808392
450.003542	389.188112
452.414489	387.494406
454.822750	389.911189
457.230379	389.488811
459.637375	391.027273
462.043739	389.968531
464.447422	395.132867
466.850474	395.933566
469.252896	398.744755
471.654688	397.501399
474.053802	393.219580
476.454336	390.752448
478.854241	389.116084
481.249423	387.075524
483.648072	389.250350
486.042001	387.802797
488.435304	388.363636
490.827981	388.630769
493.220033	389.195804
495.613504	383.422378
498.002262	378.890210
500.388354	369.980420
502.775866	361.593706
505.162754	353.715385
507.546979	351.941958
509.932623	349.537762
512.315604	349.029371
514.695925	348.789510
517.077665	351.513986
519.456746	351.035664
521.837246	351.633566
524.215088	349.955245
526.590275	351.284615
528.964844	351.506294
531.340832	355.758741
533.714166	358.098601
536.088919	362.662937
538.458985	363.779720
540.828436	362.932867
543.199306	364.006294
545.565494	361.076923
547.933101	354.192308
550.298062	350.679021
552.662410	344.371329
555.026146	344.712587
557.391299	346.982517
559.751780	348.624476
562.113678	348.582517
564.472937	352.723776
566.829557	351.658042
569.189623	355.223776
571.542997	355.436364
573.899816	351.480420
576.254000	347.455944
578.607575	346.211189
580.960542	344.435664
583.310878	342.877622
585.662630	339.354545
588.007706	339.162238
590.358246	337.655245
592.702113	336.041259
595.051441	329.695105
597.396120	330.575524
599.738175	325.955245
602.081647	322.455944
604.422496	320.861538
606.762742	319.124476
609.100368	316.929371
611.441429	314.475524
613.777853	317.051049
616.115693	319.966434
618.450915	316.207692
620.783522	312.501399
623.117546	308.597203
625.448955	305.020979
627.779766	300.651049
630.109979	296.934266
632.439595	291.574126
634.764587	286.709790
637.095021	285.967832
639.420833	284.755944
641.744039	284.802098
644.068661	282.584615
646.390677	283.578322
648.712099	286.194406
651.030918	288.558042
653.351153	289.637762
655.670795	291.402797
657.987836	290.963636
660.304286	287.685315
662.618137	291.279720
664.933403	293.493706
667.246073	294.870629
669.560158	295.860140
671.869644	298.232168
674.180544	301.680420
676.488852	306.362937
678.796572	308.750350
681.105707	310.633566
683.410249	309.601399
685.714205	310.355245
688.017574	308.995105
690.322358	310.430769
692.622556	308.802098
694.924169	308.321678
697.225196	306.547552
699.521642	306.523776
701.819502	306.796503
704.116780	309.526573
706.413473	308.262238
708.705591	310.976224
711.001120	313.427273
713.292076	316.023776
715.584446	317.246853
717.874240	317.400699
720.163455	320.592308
722.452089	322.123077
724.738152	324.736364
727.025628	326.855245
729.310534	329.383217
731.594861	328.690210
733.876621	325.018182
736.159794	321.983916
738.442390	320.411189
740.720430	314.600000
742.999884	314.745455
745.278763	313.439860
747.557066	316.636364
749.830820	319.637762
752.105988	324.148252
754.380582	326.704895
756.652617	329.637063
758.926065	331.582517
761.196955	328.811888
763.465288	326.488811
765.735036	324.651748
768.002228	322.313287
770.268850	323.735664
772.534903	320.480420
774.798404	318.465035
777.063317	320.979021
779.327662	321.284615
781.587476	321.113287
783.848704	321.546853
786.109364	323.437063
788.367477	323.041958
790.623046	323.756643
792.882006	325.570629
795.134467	325.246853
797.392295	326.771329
799.645604	329.216783
801.896372	330.909091
804.148553	333.197203
806.398196	332.195804
808.649250	331.597902
810.895793	328.609790
813.143749	327.416783
815.389169	324.509091
817.636002	317.830070
819.882272	315.595804
822.124039	308.734965
824.369188	306.763636
826.607865	306.702098
828.849925	303.725175
831.087486	302.802098
833.326458	303.872028
835.562904	306.774825
837.800762	310.487413
840.036094	316.486713
842.268902	318.534266
844.503122	316.700000
846.734820	319.802797
848.965963	319.482517
851.196551	316.397203
853.426585	313.414685
855.656064	311.158741
857.881063	313.161538
860.109435	312.183916
862.333329	312.934266
864.558633	311.612587
866.779462	313.653846
869.003663	314.452448
871.223391	314.411888
873.444530	318.000000
875.665118	318.752448
877.883197	316.074825
880.102685	315.734965
882.317707	318.377622
884.532181	321.072028
886.746108	317.505594
888.959487	321.297203
891.172320	318.151748
893.384605	320.988811
895.594389	322.820280
897.803627	321.367832
900.012319	324.500699
902.218513	321.327972
904.426116	319.974825
906.631222	321.972727
908.835784	319.818881
911.037851	320.927972
913.241327	321.878322
915.442309	328.134266
917.642749	329.204196
919.844598	333.912587
922.040056	337.076923
924.238872	336.009091
926.433251	341.311189
928.630987	337.701399
930.824287	340.372727
933.018995	343.008392
935.211218	338.302797
937.402903	339.298601
939.594050	340.235664
941.782714	341.206294
943.970841	345.081818
946.156488	352.919580
948.345487	354.827273
950.530063	357.172028
952.714104	363.655245
954.901495	364.316783
957.080583	365.839860
959.263020	364.811888
961.444924	362.223776
963.624354	357.231469
965.801311	354.311888
967.979676	353.355944
970.159447	355.765734
972.332870	360.515385
974.509639	357.021678
976.682002	361.479021
978.855771	362.097203
981.025138	366.933566
983.197848	362.312587
985.368092	367.162238
987.537808	369.951049
989.706995	363.797203
991.871785	364.739161
994.039917	365.651748
996.203653	364.087413
998.368797	361.996503
1000.531481	356.886014
1002.693640	363.460140
1004.853341	365.532867
1007.012519	367.544056
1009.173103	369.169231
1011.331232	371.406993
1013.488837	371.411189
1015.645919	368.065035
1017.802478	375.420280
1019.954657	373.293007
1022.108243	374.992308
1024.261306	381.566434
1026.411922	383.946154
1028.563943	389.716084
1030.711591	396.795105
1032.862571	398.455245
1035.009181	398.826573
1037.155271	388.144755
1039.300843	393.208392
1041.447819	393.720280
1043.588508	394.937063
1045.732525	389.188811
1047.874103	389.002797
1050.015163	386.281818
1052.157628	378.527273
1054.293814	378.930769
1056.433326	379.449650
1058.568482	379.658741
1060.706963	374.395105
1062.841091	377.859441
1064.974705	387.755245
1067.109723	391.992308
1069.240392	396.074825
1071.372467	391.332168
1073.502111	385.074825
1075.631244	376.961538
1077.759866	380.193007
1079.887976	379.584615
1082.013660	376.462238
1084.138834	377.436364
1086.265411	374.353846
1088.387652	373.025175
1090.511297	367.762238
1092.630607	371.827972
1094.755146	368.288811
1096.873441	359.245455
1098.993139	349.776923
1101.110419	352.895804
1103.227193	355.568531
1105.343460	354.496503
1107.457312	356.747552
1109.572567	357.155245
1111.683500	354.336364
1113.797744	353.018182
1115.907669	354.020280
1118.018996	363.651049
1120.129820	361.060839
1122.236327	366.068531
1124.346143	365.695105
1126.451645	375.281818
1128.558551	373.512587
1130.659240	380.380420
1132.765142	380.010490
1134.866735	379.127972
1136.969731	371.396503
1139.072226	369.604196
1141.168515	361.632168
1143.270010	360.130769
1145.367203	354.591608
1147.463897	353.170629
1149.560094	351.334965
1151.655792	357.575524
1153.750993	363.993706
1155.843797	374.262238
1157.938003	377.167832
1160.026018	381.445455
1162.119231	383.815385
1164.206256	387.604196
1166.296581	386.406993
1168.382617	385.968531
1170.471951	385.152448
1172.555104	379.433566
1174.639660	380.384615
1176.725616	384.132867
1178.807291	386.445455
1180.890368	383.373427
1182.971059	380.619580
1185.051259	381.672028
1187.130967	383.629371
1189.210183	384.709091
1191.287018	384.982517
1193.361472	384.537063
1195.439218	388.518182
1197.512693	386.744755
1199.587570	384.053147
1201.658179	384.474126
1203.730189	379.005594
1205.799823	373.816783
1207.870858	370.053147
1209.941405	372.706294
1212.007691	372.534266
1214.075378	371.983916
1216.140693	373.774126
1218.207408	375.735664
1220.269867	377.474126
1222.335612	380.819580
1224.397102	379.058741
1226.459992	381.313287
1228.520515	377.613287
1230.580555	381.239161
1232.640111	382.906993
1234.697303	392.306294
1236.754012	394.723776
1238.808359	400.904895
1240.865986	403.632168
1242.921251	407.511888
1244.972275	410.748951
1247.024699	418.397902
1249.076644	420.790210
1251.126230	420.103497
1253.175337	420.978322
1255.223965	422.165035
1257.272115	426.153147
1259.319787	430.322378
1261.363228	429.088112
1263.409944	431.637762
1265.454308	433.720280
1267.498194	443.227273
1269.539730	446.813287
1271.578916	451.542657
1273.621374	456.781818
1275.659611	458.232168
1277.699245	453.100699
1279.738405	452.023077
1281.773347	452.355245
1283.809687	445.753147
1285.843682	440.831469
1287.879076	436.845455
1289.910256	439.379021
1291.942835	447.195105
1293.974941	443.839860
1296.004707	444.371329
1298.035871	446.932168
1300.062827	445.833566
1302.091181	440.427972
1304.115331	443.586014
1306.142746	443.908392
1308.165958	445.645455
1310.190568	445.844755
1312.212843	444.974126
1314.236516	450.513287
1316.257856	453.613986
1318.278729	450.093706
1320.299134	446.322378
1322.315345	442.569930
1324.332955	441.199301
1326.348236	436.162937
1328.366776	431.934965
1330.381126	426.806294
1332.393151	420.241259
1334.408434	411.114685
1336.419531	404.530070
1338.432024	402.416084
1340.440335	395.800699
1342.451902	389.897203
1344.457430	387.094406
1346.466212	386.539860
1348.470818	391.504196
1350.478677	390.478322
1352.486073	394.178322
1354.487439	394.902797
1356.490202	397.717483
1358.492505	406.510490
1360.494347	412.332867
1362.495731	417.303497
1364.494800	420.407692
1366.493411	418.671329
1368.491564	423.332168
1370.489259	421.846853
1372.482790	419.106294
1374.477718	415.600699
1376.472189	414.117483
1378.466203	411.057343
1380.457910	410.920979
1382.449161	412.768531
1384.438107	409.996503
1386.428448	407.162238
1388.418334	410.176224
1390.405917	406.696503
1392.393046	407.320280
1394.377873	403.780420
1396.364095	402.339161
1398.348016	403.631469
1400.331485	405.100699
1402.314502	401.780420
1404.295221	401.841259
1406.277334	402.291608
1408.257150	403.192308
1410.236516	404.181119
1412.211743	412.576923
1414.190208	417.218881
1416.166380	419.483916
1418.142102	425.676224
1420.117375	431.665035
1422.090357	432.417483
1424.062892	431.380420
1426.034978	427.939860
1428.006616	425.399301
1429.974127	423.779021
1431.946711	419.595105
1433.911489	413.818182
1435.881340	417.770629
1437.847066	419.551748
1439.814186	420.953147
1441.779022	425.050350
1443.739738	426.786014
1445.705522	432.013986
1447.665351	439.321678
1449.626573	443.770629
1451.589188	446.748951
1453.547688	452.883217
1455.505746	455.586014
1457.463361	454.390909
1459.420535	456.354545
1461.375433	456.312587
1463.331723	455.664336
1465.285739	458.696503
1467.239315	458.258042
1469.190618	464.316084
1471.143313	466.802797
1473.093737	463.926573
1475.043722	463.700000
1476.993267	461.104895
1478.940544	458.827972
1480.885554	451.557343
1482.831956	443.783916
1484.777920	439.651049
1486.723446	439.658042
1488.666708	438.914685
1490.609533	438.030769
1492.550095	440.372727
1494.492048	437.453846
1496.431740	436.208392
1498.370996	435.121678
1500.309818	434.313986
1502.246380	435.379021
1504.184332	433.321678
1506.120027	431.355944
1508.055288	434.429371
1509.988292	437.885315
1511.920864	440.802098
1513.853004	444.325874
1515.784712	443.704196
1517.714167	441.393706
1519.645011	442.091608
1521.575425	445.558741
1523.501766	450.290210
1525.429497	454.957343
1527.354978	455.654545
1529.280030	455.767832
1531.204653	453.700699
1533.128847	455.062238
1535.050794	454.627273
1536.974130	451.586713
1538.895221	452.060839
1540.814067	456.013287
1542.734303	457.596503
1544.652295	459.762238
1546.569861	459.557343
1548.485185	462.130070
1550.401899	458.427273
1552.314558	458.053147
1554.230421	461.795105
1556.144045	460.746853
1558.055430	465.274126
1559.968204	464.965035
1561.876929	464.869930
1563.787044	468.637762
1565.696735	467.109790
1567.606002	465.313287
1569.513036	461.254545
1571.417837	463.992308
1573.324027	460.135664
1575.227985	457.828671
1577.131523	458.184615
1579.034639	453.024476
1580.935527	453.084615
1582.837803	446.829371
1584.737850	446.838462
1586.639286	446.209091
1588.536687	449.060839
1590.433671	456.999301
1592.330236	455.861538
1594.228188	462.883217
1596.120306	459.299301
1598.015618	459.621678
1599.910511	457.460839
1601.803183	452.823077
1603.695439	448.637063
1605.585475	444.088112
1607.475095	439.772028
1609.364300	430.937063
1611.253089	434.790909
1613.139662	439.605594
1615.027621	439.122378
1616.911565	447.418881
1618.796895	452.716084
1620.681812	461.613287
1622.564515	458.858042
1624.448604	457.648951
1626.328683	454.803497
1628.210148	450.458741
1630.089403	440.893706
1631.970044	435.223776
1633.844881	436.016783
1635.724700	432.593007
1637.600513	432.429371
1639.475917	430.336364
1641.352706	428.574126
1643.223698	430.596503
1645.097872	427.410490
1646.968048	421.842657
1648.841404	417.827972
1650.712557	414.715385
1652.581508	401.895105
1654.451845	396.827972
1656.318188	394.524476
1658.185918	391.986014
1660.051448	388.188112
1661.918363	378.758042
1663.781290	374.473427
1665.645602	380.903497
1667.507719	381.628671
1669.369430	381.196503
1671.232526	389.765734
1673.093428	391.649650
1674.952136	388.397902
1676.810441	387.843357
1678.670131	393.193706
1680.524054	396.551748
1682.381149	395.313287
1684.237842	392.228671
1686.090559	388.430070
1687.946447	385.683916
1689.798361	381.795804
1691.649873	379.162238
1693.500986	377.853147
1695.351697	369.876923
1697.202008	365.686713
1699.050135	366.830769
1700.899645	366.201399
1702.743407	369.829371
1704.592119	375.953846
1706.435084	378.621678
1708.281215	382.696503
1710.123385	385.419580
1711.968719	381.763636
1713.808313	378.811189
1715.649291	370.272028
1717.491652	366.774126
1719.330057	367.074825
1721.169845	362.903497
1723.007458	357.395105
1724.844675	358.956643
1726.679719	364.662238
1728.516146	363.226573
1730.350401	369.713287
1732.184262	373.235664
1734.017728	362.802098
1735.847248	366.222378
1737.679927	363.726573
1739.508662	372.401399
1741.340555	370.420280
1743.168505	364.123077
1744.996063	367.392308
1746.823230	367.017483
1748.650004	367.323776
1750.476388	375.924476
1752.298835	380.430769
1754.124436	383.055944
1755.946103	372.264336
1757.769152	375.070629
1759.590040	367.946853
1761.410538	369.267832
1763.232418	357.392308
1765.048598	355.960140
1766.867930	356.590210
1768.683335	349.546154
1770.501891	348.983916
1772.316521	361.709091
1774.130764	360.868531
1775.944621	369.054545
1777.758091	366.901399
1779.569407	377.751748
1781.382105	379.388811
1783.194416	385.700000
1785.002810	384.566434
1786.812585	394.281119
1788.618444	392.408392
1790.427450	387.893007
1792.232542	388.717483
1794.039014	390.087413
1795.845103	384.094406
1797.647282	385.088811
1799.452604	382.546154
1801.254018	389.378322
1803.056812	381.839860
1804.855701	377.319580
1806.655969	375.015385
1808.455857	376.595804
1810.253602	376.097203
1812.050967	371.689510
1813.847951	369.004196
1815.644555	363.037063
1817.439020	361.211189
1819.234865	363.153147
1821.025054	358.234266
1822.820140	357.685315
1824.609573	342.023776
1826.402144	345.650350
1828.192579	344.360839
1829.980879	349.339161
1831.772315	355.599301
1833.558105	352.930769
1835.345275	356.284615
1837.130313	357.070629
1838.918485	365.962937
1840.702771	368.675524
1842.484928	367.725175
1844.268463	365.802797
1846.049871	357.363636
1847.832656	367.683217
1849.611562	362.702797
1851.391846	367.658741
1853.170005	367.465035
1854.949541	366.682517
1856.726953	363.688811
1858.502241	361.403497
1860.278908	368.867832
1862.053452	373.661538
1863.829373	375.788811
1865.599675	378.706993
1867.373104	373.381119
1869.144413	372.893007
1870.915351	373.532867
1872.687666	372.599301
1874.454369	373.354545
1876.224196	375.637762
1877.990160	375.072028
1879.759248	380.727972
1881.524474	388.635664
1883.289332	392.090210
1885.055566	392.634266
1886.817942	396.455944
1888.579951	392.233566
1890.341593	396.907692
1892.102867	401.301399
1893.863775	392.557343
1895.624315	390.439161
1897.382746	390.541259
1899.140812	388.335664
1900.896770	385.846853
1902.654104	377.827972
1904.411072	375.683916
1906.165935	371.090909
1907.918692	375.853846
1909.671086	371.970629
1911.424856	367.366434
1913.176522	363.079021
1914.926085	362.697902
1916.677025	369.400699
1918.427601	372.429371
1920.174339	366.661538
1921.922452	363.713287
1923.668466	362.915385
1925.415856	368.901399
1927.161147	369.137063
1928.904341	369.432867
1930.648911	359.967832
1932.391384	358.053846
1934.133497	358.010490
1935.875251	362.566084
1937.616644	365.321678
1939.355944	356.715734
1941.094885	350.051049
1942.833467	353.561189
1944.569957	357.844755
1946.306090	360.968881
1948.043597	365.895804
1949.777283	370.466084
1951.512343	372.859441
1953.245314	376.289860
1954.977929	374.317483
1956.710187	376.718531
1958.442089	369.782517
1960.171905	361.230070
1961.899637	359.858741
1963.628742	358.353147
1965.357493	356.327972
1967.084160	358.053147
1968.810473	361.565035
1970.538159	363.783916
1972.260309	366.748951
1973.985561	369.960140
1975.707005	370.103497
1977.431549	373.053147
1979.154014	370.532168
1980.872675	372.900699
1982.594435	371.260140
1984.312393	368.233566
1986.031725	364.865734
1987.747256	364.360839
1989.467609	357.993706
1991.184162	354.972727
1992.896920	352.520979
1994.612773	348.152448
1996.326554	347.131469
1998.039984	350.392308
1999.751344	351.802797
2001.464077	358.643357
2003.173018	357.913986
2004.885053	359.040559
2006.591578	357.998601
2008.301196	359.717483
2010.008746	357.405594
2011.715949	357.715385
2013.421086	351.948252
2015.125876	351.737762
2016.832038	353.501399
2018.534418	350.432168
2020.238170	348.439860
2021.939859	353.256643
2023.641202	348.372727
2025.342200	351.881119
2027.041138	352.876923
2028.741447	354.358741
2030.437980	355.762238
2032.135885	357.179720
2033.831732	360.219580
2035.530664	362.595804
2037.224110	362.306993
2038.918927	360.420979
2040.613401	358.586713
2042.304107	358.241958
2043.997897	354.827273
2045.687920	360.418881
2047.379314	362.481818
2049.068655	364.413287
2050.759366	366.301399
2052.446315	370.318182
2054.132923	368.484615
2055.820902	366.047552
2057.505121	364.320979
2059.190710	365.374825
2060.875960	360.120280
2062.559162	357.765734
2064.243734	354.372028
2065.922842	353.734266
2067.606736	354.536364
2069.285170	357.683217
2070.966681	358.767832
2072.644440	355.674126
2074.321863	354.399301
2076.000655	359.558042
2077.677404	359.046154
2079.352112	364.775524
2081.028189	364.620979
2082.702226	367.686713
2084.375927	364.521678
2086.049293	362.379021
2087.720621	360.582517
2089.391614	362.300699
2091.062273	361.091608
2092.732598	357.204895
2094.402588	359.002098
2096.070543	362.855245
2097.738165	359.927972
2099.403753	359.794406
2101.070709	357.343357
2102.735632	358.727273
2104.400222	356.586713
2106.062781	353.948951
2107.726709	352.305594
2109.388605	355.804895
2111.050170	358.852448
2112.711405	355.317483
2114.370610	359.195105
2116.029486	359.777622
2117.688031	357.997902
2119.346247	356.211189
2121.000739	358.511888
2122.658297	360.889510
2124.315524	361.174825
2125.969031	357.061538
2127.623905	356.307692
2129.275060	357.553846
2130.929278	357.074126
2132.579778	354.977622
2134.231646	355.155944
2135.878105	348.813287
2137.529318	351.761538
2139.176818	352.227273
2140.825686	352.100699
2142.472534	354.489510
2144.119056	355.165035
2145.765254	353.165035
2147.407742	350.625874
2149.053289	352.659441
2150.695129	354.564336
2152.340026	355.827273
2153.981218	354.525874
2155.622086	354.876224
2157.262631	360.950350
2158.901163	362.635664
2160.541061	362.155944
2162.177259	366.106294
2163.814823	369.606294
2165.452065	366.637762
2167.087297	367.790909
2168.722207	371.086713
2170.356796	375.643357
2171.991064	379.244056
2173.621638	380.861538
2175.255263	380.766434
2176.885197	383.001399
2178.516496	377.933566
2180.145791	373.615385
2181.774765	368.358042
2183.403421	363.843357
2185.031757	359.106993
2186.658090	362.748252
2188.284105	365.390210
2189.908119	370.279720
2191.533498	372.669930
2193.156876	373.168531
2194.781619	370.639860
2196.402680	368.704196
2198.023426	364.606294
2199.645535	362.811888
2201.265647	357.720979
2202.883763	358.041958
2204.501563	356.648252
2206.119047	356.333566
2207.736216	361.595804
2209.353070	365.639860
2210.969609	364.290909
2212.584154	363.625175
2214.196707	361.122378
2215.810625	356.927972
2217.422550	354.896503
2219.035840	351.406993
2220.647138	348.625874
2222.256448	345.495804
2223.867120	336.302098
2225.475804	335.847552
2227.084176	338.303497
2228.690560	338.530070
2230.298308	334.604895
2231.904069	335.690909
2233.509519	335.983217
2235.112985	332.037063
2236.717813	334.861538
2238.320657	333.704895
2239.921518	340.156643
2241.523742	338.762937
2243.123983	336.676923
2244.725588	341.493007
2246.323539	340.746154
2247.922853	344.754545
2249.520187	353.924476
2251.117213	362.116084
2252.715600	369.426573
2254.310339	368.390210
2255.903102	376.586014
2257.497226	375.069930
2259.092712	379.289510
2260.684554	374.155245
2262.276089	371.195105
2263.868985	369.705594
2265.456572	368.946154
2267.048856	374.058042
2268.635832	378.079720
2270.225837	382.523776
2271.810537	389.440559
2273.399931	386.311189
2274.984022	391.455245
2276.569475	387.187413
2278.152959	381.963636
2279.739468	374.632168
2281.322344	370.275524
2282.904916	365.011888
2284.487186	363.263636
2286.065825	361.951748
2287.647488	357.919580
2289.225524	358.979021
2290.806582	359.983217
2292.384013	359.956643
2293.959481	359.739860
2295.537971	356.418182
2297.112836	355.430070
2298.687401	353.683217
2300.261666	352.104196
2301.835630	352.447552
2303.409294	351.855245
2304.982657	350.364336
2306.552402	345.129371
2308.121848	335.187413
2309.694313	339.292308
2311.261503	340.891608
2312.831710	335.925175
2314.398303	337.855944
2315.966256	340.678322
2317.532254	336.097203
2319.097954	339.954545
2320.663356	341.972727
2322.226805	339.720979
2323.791613	339.887413
2325.352812	337.720280
2326.917026	335.438462
2328.475979	339.065035
2330.037945	335.304895
2331.597961	330.806993
2333.157681	328.171329
2334.715452	322.580420
2336.272929	323.118182
2337.830110	327.713986
2339.385345	322.274825
2340.940285	324.695105
2342.494932	331.173427
2344.049285	331.281818
2345.603344	338.792308
2347.157110	340.872028
2348.708931	338.809091
2350.258809	341.295804
2351.811695	340.581119
2353.359339	343.992308
2354.909990	345.801399
2356.457051	351.781818
2358.005469	349.137762
2359.553595	351.255245
2361.098134	352.585315
2362.644030	352.200000
2364.187987	355.624476
2365.733302	353.435664
2367.275032	343.161538
2368.818120	345.060140
2370.359271	338.454545
2371.900133	337.328671
2373.440706	335.219580
2374.980990	338.104196
2376.520985	327.054545
2378.057401	329.925874
2379.596819	330.556643
2381.132660	331.544755
2382.669857	330.186713
2384.203480	325.696503
2385.740102	315.456643
2387.274793	315.057343
2388.807555	317.984615
2390.340031	321.456643
2391.870578	324.555944
2393.404123	320.288811
2394.932457	318.215385
2396.462147	327.288811
2397.991552	340.235664
2399.520672	342.085315
2401.049506	346.086713
2402.573136	341.569930
2404.101401	341.860140
2405.624463	341.336364
2407.152160	340.799301
2408.673016	333.617483
2410.198506	329.936364
2411.720436	327.692308
2413.243720	323.625175
2414.765084	328.216084
2416.284528	338.353846
2417.805327	336.587413
2419.324207	337.628671
2420.842805	342.062238
2422.359486	337.269231
2423.877522	330.556643
2425.395276	331.034965
2426.909478	338.193706
2428.423400	343.264336
2429.937043	358.260140
2431.452039	363.469231
2432.963487	365.394406
2434.476290	363.400000
2435.987180	360.446154
2437.497790	351.113986
2439.006489	352.242657
2440.518175	338.350350
2442.026317	334.025874
2443.534180	333.476224
2445.041766	333.256643
2446.545812	334.335664
2448.052842	340.847552
2449.557964	339.172727
2451.062809	331.195804
2452.565747	335.193706
2454.068408	334.106993
2455.570793	340.282517
2457.071273	345.480420
2458.573106	352.917483
2460.073035	359.632168
2461.572688	367.656643
2463.072066	380.060140
2464.569541	386.722378
2466.065114	392.762238
2467.563667	390.754545
2469.058691	389.023077
2470.555069	381.335664
2472.047920	367.490210
2473.542123	360.500699
2475.036053	350.086713
2476.526460	338.936364
2478.019844	334.151049
2479.511329	333.570629
2481.000918	341.293007
2482.490236	342.962937
2483.977657	356.046154
2485.468054	354.282517
2486.954932	358.795804
2488.443162	354.430070
2489.927876	355.791608
2491.412319	357.346853
2492.898114	357.255944
2494.382016	350.793706
2495.867270	359.867133
2497.347390	365.660140
2498.830482	370.487413
2500.311684	366.454545
2501.792617	367.162238
2503.271661	356.555944
2504.750437	346.404196
2506.228944	336.923077
2507.707182	329.822378
2509.185152	322.525175
2510.659618	311.141259
2512.137052	313.761538
2513.610983	324.313287
2515.086265	328.386014
2516.561279	330.285315
2518.032792	327.647552
2519.505656	334.016084
2520.976637	336.692308
2522.448967	337.813986
2523.916185	340.960140
2525.386369	343.494406
2526.854671	337.222378
2528.322709	330.406993
2529.790482	327.989510
2531.257990	322.876923
2532.725233	317.025874
2534.188985	316.834965
2535.654086	313.975524
2537.117310	320.545455
2538.581883	319.617483
2540.042967	322.860839
2541.505402	323.032168
2542.967573	327.732867
2544.426257	322.875524
2545.889514	316.206294
2547.347674	308.340559
2548.807183	303.908392
2550.261599	308.305594
2551.720585	318.796503
2553.177698	318.027273
2554.632941	323.923077
2556.087923	323.486014
2557.541035	323.776923
2558.995496	321.100000
2560.448088	316.204895
2561.900420	307.189510
2563.350884	307.109091
2564.804304	304.323077
2566.252642	302.058042
2567.703936	312.353846
2569.153363	318.418881
2570.599319	322.566434
2572.048229	327.756643
2573.493668	334.049650
2574.940456	330.911189
2576.385380	330.159441
2577.830047	327.834266
2579.276061	330.348252
2580.718608	332.582517
2582.162503	331.153147
2583.602933	333.804196
2585.044711	335.743357
2586.484629	335.607692
2587.925894	338.220280
2589.363697	338.321678
2590.804450	335.833566
2592.240140	331.648951
2593.678780	327.599301
2595.115563	322.409091
2596.550489	320.085315
2597.988364	311.846154
2599.421181	311.971329
2600.855345	313.322378
2602.287654	311.055944
2603.721310	315.309091
2605.153113	317.762937
2606.584663	321.172727
2608.015959	313.337762
2609.445404	312.629371
2610.874596	308.537063
2612.301937	303.004895
2613.730625	300.575524
2615.159060	300.170629
2616.584049	299.318182
2618.010383	304.514685
2619.434869	306.318881
2620.860701	313.925175
2622.283089	322.499301
2623.706823	327.887413
2625.128711	324.160839
2626.550348	328.943357
2627.970140	332.975524
2629.391278	336.472028
2630.812166	336.358741
2632.229616	340.774126
2633.650005	333.211888
2635.066957	326.841259
2636.483661	321.353147
2637.900116	323.883217
2639.316323	318.227972
2640.732281	310.553147
2642.146399	301.039161
2643.560270	304.911888
2644.972301	307.987413
2646.385677	311.662937
2647.795623	314.462238
2649.208505	320.561538
2650.617958	320.060839
2652.027165	321.306294
2653.434536	326.561538
2654.844841	324.718182
2656.253310	318.846154
2657.659944	319.544755
2659.066333	314.527972
2660.470888	316.501399
2661.876787	312.630070
2663.280853	315.742657
2664.684675	314.662238
2666.088252	310.758042
2667.489997	311.315385
2668.893086	315.791608
2670.292758	316.486713
2671.693773	317.081119
2673.091371	325.212587
2674.491900	327.678322
2675.889014	329.360839
2677.287471	337.328671
2678.684100	336.377622
2680.080488	337.248252
2681.476633	323.393007
2682.870952	320.684615
2684.266614	318.666434
2685.658866	320.457343
2687.052462	319.051049
2688.444233	322.643357
2689.837346	325.658042
2691.228636	323.669231
2692.618103	328.537762
2694.007331	328.495804
2695.396318	327.782517
2696.786648	326.946154
2698.171993	315.033566
2699.560263	311.333566
2700.946712	303.672028
2702.332922	309.306993
2703.718893	308.406294
2705.101466	316.138462
2706.485380	313.855245
2707.869057	316.584615
2709.252496	316.922378
2710.632539	313.869231
2712.013924	322.295804
2713.393493	311.614685
2714.774404	299.582517
2716.153500	292.820979
2717.530781	292.245455
2718.909404	300.704196
2720.286214	298.246154
2721.662788	300.930070
2723.039126	296.786014
2724.413652	302.587413
2725.789519	303.105594
2727.161999	306.765035
2728.537396	316.756643
2729.907831	314.029371
2731.279608	317.111189
2732.651151	315.603497
2734.020885	321.515385
2735.391959	324.083217
2736.761226	322.607692
2738.130259	318.555944
2739.497485	316.804196
2740.864479	310.528671
2742.231240	312.723077
2743.597768	312.913287
2744.962492	319.288811
2746.326983	316.578322
2747.691242	315.713986
2749.055270	313.013986
2750.419065	315.347552
2751.779487	310.702797
2753.142820	310.229371
2754.501210	306.843357
2755.862510	303.483916
2757.220439	303.061538
2758.581278	301.522378
2759.940316	298.897203
2761.295986	301.482517
2762.654565	298.866434
2764.009776	297.125874
2765.364758	294.258741
2766.717943	293.981119
2768.074035	294.594406
2769.426763	297.813986
2770.779262	305.611888
2772.131533	309.209790
2773.485143	316.763636
2774.835391	314.400000
2776.183846	313.216084
2777.535205	310.330070
2778.883205	309.435664
2780.232544	302.141958
2781.580090	300.811189
2782.927409	296.080420
2784.274502	297.406294
2785.619804	297.089510
2786.964880	301.041958
2788.309730	300.516084
2789.654354	307.730769
2790.995625	302.944755
2792.338235	295.939860
2793.680620	297.697902
2795.022779	299.296503
2796.361589	294.435664
2797.703299	298.467133
2799.041660	297.898601
2800.381359	303.016783
2801.719272	303.693007
2803.055401	304.081119
2804.391307	303.581818
2805.728549	305.407692
2807.064008	298.042657
2808.399244	294.736364
2809.732698	301.283217
2811.067488	303.867133
2812.398937	303.818881
2813.733282	310.937063
2815.062729	315.781119
2816.393513	322.209091
2817.724075	322.099301
2819.052858	315.595105
2820.382978	312.109091
2821.711318	304.027972
2823.039438	296.804196
2824.365781	287.869231
2825.693459	289.537063
2827.017805	292.524476
2828.343486	290.710490
2829.667393	291.130769
2830.991079	291.044755
2832.316101	284.828671
2833.637794	276.719580
2834.959267	272.846154
2836.280522	266.460140
2837.601558	259.916783
2838.920822	260.044056
2840.241421	260.147552
2841.560248	269.667832
2842.878857	277.486014
2844.195696	275.914685
2845.512317	270.745455
2846.828720	269.418881
2848.143355	263.646154
2849.459324	266.267133
2850.771973	270.718881
2852.085958	267.166434
2853.399726	273.513986
2854.713277	280.305594
2856.025061	283.983217
2857.335080	287.208392
2858.646433	284.525175
2859.954470	276.581119
2861.263843	273.554545
2862.573000	276.146154
2863.881942	275.696503
2865.189121	276.051748
2866.494536	279.022378
2867.801286	278.429371
2869.106273	280.392308
2870.411047	279.403497
2871.714059	284.471329
2873.019953	286.897902
2874.320992	288.171329
2875.623364	286.546154
2876.923977	282.272727
2878.225924	283.000699
2879.527658	281.484615
2880.826088	277.101399
2882.125851	273.950350
2883.423857	271.867133
2884.721651	264.693706
2886.017688	261.075524
2887.315059	271.500699
2888.610674	276.904895
2889.906079	284.865035
2891.201272	283.674825
2892.493167	279.533566
2893.787939	281.801399
2895.079415	278.887413
2896.372223	272.079021
2897.664821	269.537762
2898.954124	269.783217
2900.244760	259.027972
2901.533646	256.008392
2902.823863	257.672727
2904.110789	262.067133
2905.399047	264.145455
2906.685556	260.231469
2907.971856	264.633566
2909.257948	267.467133
2910.542292	269.307692
2911.829508	269.781818
2913.111897	277.256643
2914.395618	272.488112
2915.677592	270.689510
2916.959360	270.548951
2918.239382	269.919580
2919.522274	271.595804
2920.803421	262.575524
2922.081286	260.471329
2923.362020	267.293706
2924.639473	269.420280
2925.916721	267.281818
2927.192226	265.602797
2928.470599	268.732168
2929.744157	266.671329
2931.020583	269.206993
2932.295268	268.740559
2933.568213	270.426573
2934.842488	266.911888
2936.115024	265.345455
2937.387356	269.150350
2938.656415	280.420280
2939.928339	284.490210
2941.198525	282.753147
2942.468507	287.161538
2943.738286	286.388811
2945.006328	280.999301
2946.272635	274.726573
2947.538739	268.750350
2948.806174	262.420979
2950.071873	252.749650
2951.337370	247.662937
2952.602665	242.129371
2953.864696	243.595105
2955.128056	244.231469
2956.391215	247.773427
2957.652641	255.537063
2958.915397	257.542657
2960.176422	265.652448
2961.435716	271.328671
2962.694809	271.466434
2963.953702	266.723776
2965.212395	263.748252
2966.470888	257.315385
2967.727652	256.264336
2968.984217	259.602797
2970.239053	265.540559
2971.495219	269.530769
2972.748129	268.466434
2974.002369	273.096503
2975.256410	281.193007
2976.508725	278.200699
2977.760842	280.510490
2979.011234	276.786713
2980.264481	276.117483
2981.512951	269.428671
2982.764275	271.577622
2984.012351	276.301399
2985.260229	275.521678
2986.507910	273.830070
2987.755395	268.619580
2989.001158	267.973427
2990.246724	269.559441
2991.493619	270.594406
2992.737268	276.472028
2993.982246	273.432168
2995.223981	269.774825
2996.468567	266.818182
2997.711434	267.953147
2998.951059	270.228671
3000.193536	271.516084
3001.432772	273.996503
3002.673336	272.688112
3003.912183	276.009790
3005.150836	279.894406
3006.387773	282.400699
3007.626037	280.710490
3008.862587	279.624476
3010.098943	275.717483
3011.335105	271.623077
3012.569553	270.078322
3013.803808	269.617483
3015.037870	270.220979
3016.270220	269.209790
3017.500858	268.478322
3018.734342	269.001399
3019.966115	262.724476
3021.196176	260.444755
3022.426046	255.234266
3023.654206	255.600699
3024.883693	248.767832
3026.111470	247.560140
3027.339056	247.943357
3028.567968	248.990210
3029.792138	251.969231
3031.019151	258.373427
3032.242941	263.118182
3033.468056	266.719580
3034.691465	269.912587
3035.914685	273.096503
3037.136199	272.920280
3038.360554	275.023077
3039.580174	268.772028
3040.801120	267.741958
3042.021876	262.226573
3043.240929	261.067133
3044.461308	260.117483
3045.678470	265.809790
3046.896957	261.898601
3048.113743	257.774825
3049.330340	256.404196
3050.546750	255.315385
3051.759946	256.796503
3052.975980	256.281119
3054.188802	252.747552
3055.404461	252.502098
3056.615397	249.636364
3057.827659	252.246853
3059.039733	250.493706
3060.251621	253.258042
3061.461811	247.787413
3062.671816	244.862587
3063.881634	244.156643
3065.089756	238.565385
3066.297692	236.371329
3067.503934	239.339510
3068.711500	240.420979
3069.917371	239.022727
3071.123057	239.218182
3072.328559	240.089860
3073.532367	237.429371
3074.737499	241.407343
3075.940938	243.578322
3077.142685	243.180769
3078.344249	237.704895
3079.545629	235.949650
3080.746825	233.513986
3081.946331	237.611888
3083.145653	237.238462
3084.346299	235.763636
3085.545256	235.139161
3086.741017	230.767133
3087.939608	230.234965
3089.135005	225.291608
3090.331726	227.876923
3091.525254	226.791608
3092.721610	228.561538
3093.916279	234.916783
3095.107758	230.781119
3096.303568	234.441259
3097.494685	234.444755
3098.687125	233.639161
3099.876376	230.679021
3101.068454	228.353846
3102.258848	224.503497
3103.446055	223.050350
3104.634586	223.799301
3105.824439	225.473427
3107.011107	229.391608
3108.197596	232.537762
3109.383905	232.380420
3110.571537	237.547552
3111.755986	238.667832
3112.938755	239.949650
3114.124348	234.428671
3115.308260	233.303497
3116.490494	231.170629
3117.672550	233.020979
3118.854427	230.670629
3120.036126	228.458042
3121.216148	229.128671
3122.394492	231.851748
3123.575658	237.629371
3124.753648	242.983916
3125.931461	241.736364
3127.109097	238.510490
3128.285058	228.912587
3129.460843	228.543357
3130.637948	228.963636
3131.813380	230.978322
3132.987138	229.722378
3134.159223	221.955245
3135.332629	222.274126
3136.505860	222.083217
3137.677418	224.456643
3138.850298	220.468531
3140.020010	215.355944
3141.191043	214.460839
3142.360405	210.783916
3143.528098	216.548951
3144.698606	219.844755
3145.864455	218.322378
3147.034614	216.186713
3148.200115	213.901399
3149.365443	212.118881
3150.530597	211.968531
3151.695578	214.618182
3152.861878	211.741259
3154.023525	211.382517
3155.186493	218.183217
3156.349287	216.172727
3157.511909	222.281119
3158.672866	223.711189
3159.833650	225.225175
3160.994263	225.574825
3162.153211	227.296503
3163.311987	227.713287
3164.470592	229.622378
3165.629025	226.073427
3166.787286	219.227972
3167.943885	217.868531
3169.098823	219.251748
3170.255080	214.974825
3171.409677	222.271329
3172.564102	221.526573
3173.716868	222.432867
3174.869464	218.418182
3176.021890	218.836364
3177.174145	220.177622
3178.326231	222.170629
3179.475170	218.589510
3180.626916	217.682517
3181.777005	218.138462
3182.925436	216.852448
3184.073699	221.299301
3185.221793	226.642657
3186.369717	225.409091
3187.515987	230.688811
3188.662088	227.136364
3189.806535	226.509091
3190.950813	231.496503
3192.094924	233.598601
3193.240353	231.797902
3194.382643	227.196503
3195.524765	223.179720
3196.666721	222.144056
3197.808509	224.935664
3198.950130	224.144755
3200.088615	224.733566
3201.228419	228.186713
3202.369539	224.159441
3203.507525	221.597203
3204.643862	219.419580
3205.780033	208.418182
3206.917522	202.693007
3208.053362	195.833566
3209.190518	195.002098
3210.323063	195.852448
3211.459888	194.902797
3212.592102	200.501399
3213.725634	203.961538
3214.859000	210.574126
3215.989239	210.034965
3217.122277	206.304196
3218.252187	201.823776
3219.383415	197.453846
3220.511517	197.475524
3221.642417	198.813287
3222.771672	194.591608
3223.899283	191.551049
3225.023773	192.808392
3226.152538	199.554545
3227.278181	200.907692
3228.403661	203.806294
3229.527500	200.774825
3230.654134	208.855944
3231.776169	215.082517
3232.899521	219.436364
3234.022711	214.765035
3235.145739	216.081119
3236.267127	208.538462
3237.388354	205.495105
3238.507942	201.126573
3239.627369	200.660140
3240.745159	197.653147
3241.865740	191.987413
3242.983208	188.159441
3244.100515	200.388112
3245.217661	201.693706
3246.333172	199.681818
3247.449998	196.734266
3248.563713	194.876923
3249.680219	195.267133
3250.795089	190.624476
3251.906851	191.741958
3253.018454	195.132168
3254.131372	194.604196
3255.244130	196.447552
3256.353782	197.439161
3257.464749	204.969231
3258.575557	204.028671
3259.684733	207.577622
3260.792278	202.178322
3261.901138	198.728671
3263.009839	205.945455
3264.115438	200.008392
3265.222352	205.986713
3266.327636	209.520979
3267.434234	211.927972
3268.537732	216.343357
3269.642544	217.350350
3270.747199	214.463636
3271.848756	209.076923
3272.950156	210.099301
3274.052870	200.854545
3275.155427	204.684615
3276.254889	206.327273
3277.357133	197.595105
3278.456283	199.565035
3279.553807	201.235664
3280.651176	198.332867
3281.751328	201.537063
3282.848386	202.793007
3283.945290	202.306294
3285.042038	196.309091
3286.134227	199.432867
3287.230666	192.067832
3288.325482	192.158741
3289.420143	189.822378
3290.513183	188.900000
3291.606069	193.141259
3292.697334	196.544056
3293.789912	196.500000
3294.880870	200.006993
3295.970208	204.060140
3297.059393	209.418881
3298.149890	203.387413
3299.237303	204.480420
3300.324564	198.039860
3301.413137	195.733566
3302.501557	192.981818
3303.585430	194.943357
3304.673545	194.365035
3305.758579	192.391608
3306.841997	186.868531
3307.926727	180.398601
3309.009841	180.209091
3310.094267	181.077622
3311.175615	178.241958
3312.258275	179.420280
3313.339321	185.123077
3314.420216	187.432168
3315.499498	191.506294
3316.578629	197.323077
3317.659072	197.286014
3318.736440	198.288112
3319.815120	193.541958
3320.892188	190.777622
3321.969106	187.821678
3323.044414	188.312587
3324.119572	188.417483
3325.196041	191.609091
3326.269439	194.809790
3327.342689	190.363636
3328.417250	193.741259
3329.490201	194.422378
3330.561545	191.737063
3331.634199	198.387413
3332.703786	198.816783
3333.774684	198.734965
3334.843975	196.616084
3335.914577	200.772028
3336.983572	204.306294
3338.050961	206.692308
3339.116745	203.942657
3340.186755	198.282517
3341.253702	205.525874
3342.317587	205.325874
3343.384240	202.949650
3344.449289	208.712587
3345.512734	205.770629
3346.576032	204.415385
3347.639185	200.902098
3348.702191	199.283916
3349.765050	197.197203
3350.826308	191.667832
3351.884509	187.965035
3352.946931	183.211189
3354.006296	186.241259
3355.065517	184.801399
3356.126046	178.947552
3357.182066	183.305594
3358.240851	183.597203
3359.295128	187.222378
3360.352169	190.588811
3361.407611	190.554545
3362.464362	190.260839
3363.519516	189.334266
3364.573072	189.305594
3365.625031	187.258741
3366.679752	187.306993
3367.731425	188.225874
3368.782953	186.059441
3369.835791	191.030769
3370.885581	189.889510
3371.936680	193.148252
3372.984732	193.792308
3374.035545	189.851049
3375.083312	187.809091
3376.130937	183.752448
3377.178420	178.195105
3378.224309	177.374825
3379.271508	174.202797
3380.315663	178.037762
3381.362577	177.449650
3382.407899	179.220280
3383.450181	176.981818
3384.492321	177.435664
3385.535770	176.594406
3386.579077	174.247552
3387.620794	170.312587
3388.662370	172.162937
3389.703806	175.786014
3390.743653	178.338462
3391.781911	182.398601
3392.821477	190.954545
3393.860903	189.471329
3394.898741	190.122378
3395.934992	190.423776
3396.971103	189.249650
3398.008522	182.793007
3399.042908	178.344755
3400.078602	172.522378
3401.114156	173.093007
3402.146678	167.926573
3403.181954	167.835664
3404.214199	170.752448
3405.246306	172.572727
3406.276829	175.547552
3407.308660	179.720280
3408.340352	183.718881
3409.369016	188.580420
3410.397542	187.653846
3411.427376	192.792308
3412.457072	190.306993
3413.483741	195.031469
3414.511718	196.759441
3415.536670	199.883217
3416.564372	197.764336
3417.589051	195.890210
3418.615036	198.674126
3419.639442	195.677622
3420.663710	192.699301
3421.686400	188.579720
3422.708955	179.797902
3423.732814	177.206294
3424.753654	174.039860
3425.774359	175.671628
3426.796369	178.680120
3427.815361	182.657642
3428.834218	187.196503
3429.854381	191.889011
3430.871526	196.327473
