-118.389184	1.912637
-115.719584	3.984615
-113.052919	5.465235
-110.387006	6.346454
-107.724025	6.620230
-105.059615	6.278521
-102.398135	5.313287
-99.735225	3.366434
-97.077423	-1.537063
-94.418190	-3.488112
-91.759706	-2.650350
-89.104147	-5.451748
-86.447159	-3.370629
-83.795268	0.960839
-81.141948	7.027972
-78.491548	9.352448
-75.839718	9.738462
-73.192979	6.724476
-70.544810	5.468531
-67.897385	-0.618182
-65.252873	0.062937
-62.606933	-0.117483
-59.966074	1.096503
-57.323786	-0.612587
-54.684406	1.899301
-52.043598	6.086713
-49.403530	11.983217
-46.768534	12.151049
-44.132109	11.060140
-41.498588	6.650350
-38.863638	8.746853
-36.233753	4.172028
-33.600276	7.076923
-30.971861	3.237762
-28.344179	0.405594
-25.715070	-5.113287
-23.091017	-4.099301
-20.463375	-8.068531
-17.840786	-22.095105
-15.218928	-17.492308
-12.597802	35.788811
-9.977405	116.026573
-7.359896	186.745455
-4.740959	232.215385
-2.124908	258.570629
0.490415	259.931469
3.105011	242.246154
5.716724	202.797203
8.329866	146.346853
10.937974	71.278322
13.549664	0.072727
16.156323	-34.166434
18.764410	-22.755245
21.371773	-3.081119
23.974111	1.679720
26.580027	3.511888
29.180921	4.448951
31.783243	6.914685
34.380548	7.188811
36.981428	6.703497
39.577294	6.481119
42.174587	6.290909
44.771161	4.914685
47.362726	1.534266
49.955719	-1.051748
52.545851	0.023776
55.137411	3.427972
57.726111	4.587413
60.316238	4.492308
62.901367	4.425175
65.487922	4.468531
68.073764	3.935664
70.656752	2.783217
73.241167	0.328671
75.818452	-1.401399
78.399304	-3.830769
80.977307	-4.313287
83.554600	-4.158042
86.133319	-0.581818
88.707057	1.836364
91.282221	4.289510
93.854542	3.790210
96.426155	4.405594
98.994928	4.069930
101.565128	2.689510
104.132490	3.039161
106.701277	3.057343
109.267228	1.302098
111.830344	1.286713
114.397016	-1.885315
116.954467	0.815385
119.517603	2.910490
122.075780	5.013986
124.637510	7.703497
127.194285	12.041958
129.752485	17.051748
132.305733	19.765035
134.858282	24.172028
137.414382	27.282517
139.965535	28.669930
142.515989	30.253147
145.065747	32.334266
147.612685	35.723077
150.158927	33.664336
152.706595	31.304895
155.253568	31.534266
157.795604	32.216783
160.336947	32.932867
162.877597	33.809790
165.419673	35.655944
167.958938	34.241958
170.495393	33.899301
173.031158	38.425175
175.568348	40.639161
178.104846	40.734266
180.638539	36.074126
183.169429	33.984615
185.699630	34.015385
188.231256	31.443357
190.760081	30.191608
193.286107	31.153846
195.811448	30.829371
198.338213	27.890909
200.862181	28.184615
203.385465	32.611189
205.908064	32.586014
208.427870	32.883916
210.946993	32.734266
213.465433	32.544056
215.985297	32.439161
218.498160	29.573427
221.014554	32.776224
223.530266	32.439161
226.041089	31.454545
228.553336	32.995804
231.062800	34.794406
233.571586	40.200000
236.079694	39.752448
238.589225	40.153846
241.093877	43.818182
243.597852	44.306294
246.103251	42.959441
248.603775	41.208392
251.107822	41.545455
253.604899	34.420979
256.105498	28.902098
258.603326	29.532867
261.100481	28.216783
263.596963	30.716084
266.088582	30.453147
268.583721	35.806993
271.076094	42.604196
273.567796	46.232168
276.056735	43.695105
278.547097	46.274126
281.034698	46.930070
283.519539	44.667133
286.007894	41.102098
288.489310	40.082517
290.974240	34.846154
293.454325	35.946853
295.937922	34.916084
298.416676	34.483916
300.896854	33.474126
303.374279	32.769231
305.851041	31.669930
308.327140	36.317483
310.800490	41.349650
313.273178	45.413986
315.745205	43.762238
318.216571	46.264336
320.685193	46.523077
323.153155	50.720280
325.622540	49.278322
328.087102	46.176224
330.555167	44.047552
333.018413	41.116084
335.481002	40.172028
337.942933	38.121678
340.404208	36.979021
342.862749	36.453147
345.322712	34.730070
347.779942	37.462937
350.236518	40.808392
352.692440	42.434965
355.145633	45.532867
357.600247	47.959441
360.050060	48.797203
362.503370	51.226573
364.951880	50.930070
367.399740	47.948252
369.849021	43.450350
372.293509	42.366434
374.739419	36.770629
377.184680	33.022378
379.627222	30.373427
382.069116	26.945455
384.510362	26.826573
386.948893	26.475524
389.388846	26.572028
391.826085	32.071329
394.260612	36.363636
396.698627	38.751049
399.131865	37.959441
401.566525	41.960839
403.996411	39.420979
406.429783	41.193007
408.858385	39.471329
411.286346	42.093706
413.715727	41.730070
416.140343	39.537063
418.566381	40.587413
420.991778	44.295105
423.416535	43.622378
425.836534	42.348252
428.257954	35.767832
430.676677	34.931469
433.096821	31.383217
435.514270	33.422378
437.933139	31.216783
440.349315	31.165035
442.760744	32.166434
445.175649	32.861538
447.587864	36.648951
449.999445	38.788811
452.410392	37.935664
454.818653	38.618182
457.226281	37.246154
459.633278	43.784615
462.039642	47.222378
464.443324	51.478322
466.846376	52.279720
469.248798	52.960839
471.650591	52.493706
474.049705	53.001399
476.450239	50.991608
478.850144	50.202797
481.245326	42.474126
483.643975	38.464336
486.037904	36.137063
488.431207	35.092308
490.823884	34.500699
493.215936	37.806993
495.609407	37.806993
497.998165	36.447552
500.384257	34.594406
502.771769	35.579021
505.158657	36.788811
507.542882	35.784615
509.928526	31.433566
512.311507	31.868531
514.691828	30.033566
517.073568	28.411189
519.452649	31.034965
521.833149	29.114685
524.210991	25.977622
526.586178	23.258741
528.960747	22.123077
531.336735	20.363636
533.710069	22.538462
536.084821	21.604196
538.454888	22.611189
540.824339	24.506294
543.195208	24.598601
545.561397	25.854545
547.929004	27.055944
550.293965	25.328671
552.658313	26.932867
555.022049	26.359441
557.387202	26.724476
559.747682	30.597203
562.109581	30.402797
564.468840	30.741259
566.825460	31.376224
569.185525	31.201399
571.538900	28.302098
573.895719	28.591608
576.249902	28.942657
578.603478	27.658741
580.956445	26.773427
583.306781	25.443357
585.658533	24.669930
588.003609	24.163636
590.354149	19.408392
592.698016	19.489510
595.047343	18.337063
597.392023	18.423776
599.734077	18.018182
602.077549	18.640559
604.418398	19.858741
606.758645	19.468531
609.096271	19.829371
611.437332	20.475524
613.773756	23.069930
616.111596	21.197203
618.446818	21.377622
620.779425	23.855944
623.113448	22.895105
625.444858	23.464336
627.775669	23.041958
630.105882	20.752448
632.435497	18.212587
634.760490	16.405594
637.090924	13.427972
639.416736	13.208392
641.739942	16.457343
644.064563	15.916084
646.386580	18.724476
648.708002	22.279720
651.026821	23.555245
653.347056	25.833566
655.666698	28.036364
657.983739	29.436364
660.300188	31.202797
662.614040	32.146853
664.929306	32.390210
667.241976	33.090909
669.556061	31.850350
671.865546	31.644755
674.176447	28.274126
676.484755	23.756643
678.792475	18.520280
681.101610	17.163636
683.406152	18.678322
685.710107	19.959441
688.013477	20.681119
690.318261	23.261538
692.618459	24.320280
694.920071	25.704895
697.221099	23.753846
699.517544	25.380420
701.815405	23.269930
704.112682	21.383217
706.409376	20.945455
708.701494	22.345455
710.997023	21.869930
713.287979	17.875524
715.580349	15.801399
717.870143	21.779021
720.159358	20.959441
722.447992	24.804196
724.734055	26.881119
727.021531	30.790210
729.306437	33.311888
731.590764	36.179021
733.872523	35.067133
736.155696	33.316084
738.438292	27.786014
740.716333	21.248951
742.995787	20.752448
745.274666	21.725874
747.552969	17.793007
749.826723	16.013986
752.101891	16.255944
754.376485	17.758042
756.648520	15.206993
758.921967	16.902098
761.192857	19.516084
763.461191	22.451748
765.730938	21.629371
767.998131	22.745455
770.264753	23.755245
772.530806	25.095105
774.794306	24.587413
777.059220	23.727273
779.323564	23.081119
781.583379	21.983217
783.844607	18.338462
786.105267	20.306294
788.363380	20.406993
790.618949	20.939860
792.877909	20.476923
795.130370	19.553846
797.388198	17.346853
799.641506	16.651748
801.892275	14.482517
804.144456	16.834965
806.394099	10.930070
808.645153	10.688112
810.891696	9.537063
813.139651	9.619580
815.385072	6.990210
817.631904	11.335664
819.878175	14.855944
822.119942	14.483916
824.365091	16.457343
826.603768	19.051748
828.845828	20.148252
831.083389	23.172028
833.322361	17.240559
835.558807	18.204196
837.796664	17.176224
840.031997	18.509091
842.264805	16.330070
844.499025	19.538462
846.730723	20.149650
848.961866	20.057343
851.192454	22.766434
853.422488	22.979021
855.651967	20.608392
857.876965	24.787413
860.105338	23.672727
862.329232	23.981818
864.554536	24.187413
866.775365	24.562238
868.999566	24.142657
871.219294	24.970629
873.440433	22.458741
875.661021	24.335664
877.879099	21.423776
880.098588	18.320280
882.313610	15.800000
884.528084	18.358042
886.742011	12.527273
888.955390	14.163636
891.168222	14.595804
893.380508	17.531469
895.590291	22.076923
897.799529	24.762238
900.008222	28.159441
902.214416	27.598601
904.422019	24.565035
906.627125	21.419580
908.831687	18.299301
911.033753	14.469930
913.237229	9.590210
915.438211	13.320280
917.638652	10.809790
919.840501	12.363636
922.035958	14.897902
924.234775	15.837762
926.429153	18.142657
928.626889	17.699301
930.820189	20.502098
933.014898	19.846154
935.207121	17.552448
937.398806	13.706294
939.589953	10.710490
941.778617	11.655944
943.966744	10.517483
946.152391	13.872727
948.341390	15.290909
950.525966	17.932867
952.710007	20.966434
954.897398	26.871329
957.076485	29.064336
959.258923	27.272727
961.440827	25.191608
963.620257	24.232168
965.797214	21.797203
967.975578	21.204196
970.155350	19.090909
972.328773	21.749650
974.505542	21.015385
976.677905	22.616783
978.851674	24.275524
981.021040	25.504895
983.193751	26.138462
985.363995	25.025175
987.533711	27.809790
989.702898	29.516084
991.867688	30.537063
994.035819	31.425175
996.199556	31.455944
998.364699	33.980420
1000.527384	32.674126
1002.689542	30.769231
1004.849244	30.351049
1007.008422	33.201399
1009.169006	34.379021
1011.327135	35.696503
1013.484740	36.779021
1015.641822	37.330070
1017.798381	35.798601
1019.950560	32.937063
1022.104145	29.749650
1024.257209	28.806993
1026.407825	23.605594
1028.559846	20.313287
1030.707494	21.946853
1032.858474	28.341259
1035.005083	28.841958
1037.151174	29.523077
1039.296745	27.738462
1041.443722	29.243357
1043.584411	23.579021
1045.728428	24.825175
1047.870005	27.855944
1050.011066	29.593007
1052.153531	27.813986
1054.289717	28.085315
1056.429229	31.979021
1058.564385	36.044755
1060.702866	37.804196
1062.836993	37.854545
1064.970607	35.086713
1067.105626	35.223776
1069.236295	32.481119
1071.368369	34.516084
1073.498014	31.510490
1075.627147	27.274126
1077.755768	24.809790
1079.883878	22.629371
1082.009562	20.909091
1084.134736	22.801399
1086.261314	22.586014
1088.383555	21.976224
1090.507199	19.015385
1092.626510	22.026573
1094.751049	19.328671
1096.869343	21.518881
1098.989042	19.405594
1101.106322	21.124476
1103.223096	22.405594
1105.339363	25.646154
1107.453215	27.022378
1109.568470	28.577622
1111.679403	29.360839
1113.793647	31.897902
1115.903571	33.776224
1118.014899	32.956643
1120.125722	26.745455
1122.232230	31.492308
1124.342046	27.832168
1126.447548	28.097902
1128.554453	25.998601
1130.655143	26.646154
1132.761045	19.855944
1134.862638	17.008392
1136.965634	15.137063
1139.068129	16.682517
1141.164417	19.878322
1143.265913	22.246154
1145.363106	21.040559
1147.459800	27.460140
1149.555996	28.995804
1151.651695	35.563636
1153.746896	36.004196
1155.839700	34.812587
1157.933906	31.020979
1160.021921	31.969231
1162.115134	30.065734
1164.202159	30.837762
1166.292483	32.218182
1168.378520	33.909091
1170.467854	29.723077
1172.551007	31.514685
1174.635563	30.097902
1176.721519	33.409790
1178.803194	28.062937
1180.886271	30.400000
1182.966962	31.391608
1185.047161	34.728671
1187.126869	33.353846
1189.206086	32.980420
1191.282921	31.938462
1193.357375	31.363636
1195.435121	25.018182
1197.508596	23.611189
1199.583472	20.183217
1201.654081	21.025175
1203.726092	21.197203
1205.795726	23.853147
1207.866761	26.215385
1209.937308	29.011189
1212.003594	24.716084
1214.071281	27.317483
1216.136596	28.359441
1218.203311	28.521678
1220.265770	27.106294
1222.331514	28.699301
1224.393005	27.622378
1226.455895	25.622378
1228.516418	23.556643
1230.576457	22.467133
1232.636014	21.843357
1234.693205	21.493706
1236.749915	16.742657
1238.804262	19.044755
1240.861889	22.541259
1242.917154	27.974825
1244.968178	31.348252
1247.020602	33.240559
1249.072546	29.882517
1251.122132	30.341259
1253.171239	26.569231
1255.219868	28.916084
1257.268018	27.433566
1259.315690	28.338462
1261.359131	25.737063
1263.405847	28.941259
1265.450210	30.907692
1267.494097	33.411189
1269.535633	30.616783
1271.574819	31.341259
1273.617277	28.121678
1275.655513	30.827972
1277.695148	25.104895
1279.734308	30.166434
1281.769249	29.760839
1283.805590	29.125874
1285.839585	27.676923
1287.874979	33.109091
1289.906159	34.921678
1291.938738	37.767832
1293.970844	35.650350
1296.000610	38.184615
1298.031774	38.246154
1300.058730	40.113287
1302.087084	37.816783
1304.111234	39.593007
1306.138648	37.881119
1308.161860	37.163636
1310.186470	36.723077
1312.208746	43.341259
1314.232419	43.854545
1316.253759	45.079720
1318.274631	40.461538
1320.295037	40.692308
1322.311248	38.918881
1324.328858	39.650350
1326.344139	39.086713
1328.362678	39.970629
1330.377029	43.997203
1332.389054	43.479720
1334.404336	43.558042
1336.415433	49.346853
1338.427927	49.755245
1340.436238	50.781818
1342.447805	46.744056
1344.453332	49.394406
1346.462115	47.447552
1348.466720	48.353846
1350.474579	44.819580
1352.481976	40.862937
1354.483342	37.093706
1356.486105	29.311888
1358.488407	26.738462
1360.490250	28.874126
1362.491633	24.737063
1364.490703	22.820979
1366.489314	20.546853
1368.487467	22.436364
1370.485162	20.791608
1372.478693	23.946853
1374.473621	26.148252
1376.468092	29.083916
1378.462106	29.531469
1380.453813	28.454545
1382.445064	29.953846
1384.434010	31.240559
1386.424351	31.215385
1388.414237	31.555245
1390.401820	29.244755
1392.388948	27.246154
1394.373776	24.826573
1396.359997	26.654545
1398.343919	29.797203
1400.327388	29.762238
1402.310405	26.395804
1404.291123	24.734266
1406.273237	23.304895
1408.253053	25.962238
1410.232419	28.923077
1412.207645	30.848951
1414.186111	32.032168
1416.162282	34.107692
1418.138005	33.462937
1420.113278	37.881119
1422.086260	37.802797
1424.058794	36.510490
1426.030881	30.990210
1428.002519	28.153846
1429.970029	24.864336
1431.942614	25.167832
1433.907392	21.841958
1435.877243	20.556643
1437.842969	18.728671
1439.810088	16.634965
1441.774924	15.751049
1443.735641	21.181818
1445.701425	19.976224
1447.661254	27.032168
1449.622476	26.264336
1451.585091	29.644755
1453.543591	31.131469
1455.501649	33.239161
1457.459264	33.669930
1459.416438	31.215385
1461.371336	28.759441
1463.327626	27.625175
1465.281642	27.107692
1467.235218	28.454545
1469.186521	30.186014
1471.139216	33.984615
1473.089640	28.460140
1475.039625	28.552448
1476.989170	28.292308
1478.936447	29.927273
1480.881457	25.538462
1482.827858	25.562238
1484.773823	26.139860
1486.719349	27.641958
1488.662611	26.977622
1490.605436	28.475524
1492.545998	33.678322
1494.487951	34.088112
1496.427643	33.822378
1498.366899	33.850350
1500.305720	30.327273
1502.242282	29.163636
1504.180235	24.079720
1506.115930	29.113287
1508.051191	26.851748
1509.984195	28.925874
1511.916767	27.816783
1513.848907	28.779021
1515.780615	28.307692
1517.710069	30.156643
1519.640914	28.318881
1521.571328	27.956643
1523.497668	25.783217
1525.425400	30.959441
1527.350881	31.015385
1529.275933	37.130070
1531.200556	37.337063
1533.124750	38.262937
1535.046697	35.239161
1536.970033	35.583217
1538.891124	35.909091
1540.809970	40.065734
1542.730206	39.604196
1544.648198	48.239161
1546.565764	60.145455
1548.481088	71.208392
1550.397802	82.490909
1552.310461	99.324476
1554.226324	112.650350
1556.139947	127.630769
1558.051333	140.724476
1559.964107	156.815385
1561.872832	166.471329
1563.782947	171.953846
1565.692638	173.159441
1567.601905	173.779021
1569.508939	168.949650
1571.413740	154.409790
1573.319930	140.372028
1575.223888	127.197203
1577.127426	111.118881
1579.030542	98.534266
1580.931430	84.420979
1582.833705	79.626573
1584.733753	71.327273
1586.635188	63.566434
1588.532590	59.352448
1590.429573	56.518881
1592.326138	48.282517
1594.224091	43.190210
1596.116209	39.111888
1598.011520	39.137063
1599.906414	38.423776
1601.799086	43.731469
1603.691342	44.616783
1605.581377	46.773427
1607.470998	46.179021
1609.360202	45.181818
1611.248992	42.162238
1613.135565	40.495105
1615.023524	32.380420
1616.907467	30.946853
1618.792798	26.409790
1620.677714	26.962238
1622.560417	29.114685
1624.444507	32.127273
1626.324586	30.683916
1628.206051	28.334266
1630.085306	25.689510
1631.965947	25.239161
1633.840784	22.925874
1635.720603	25.966434
1637.596416	28.917483
1639.471819	32.062937
1641.348609	26.400000
1643.219601	30.709091
1645.093775	31.832168
1646.963951	34.366434
1648.837307	33.597203
1650.708460	33.997203
1652.577411	30.605594
1654.447748	34.584615
1656.314091	36.655944
1658.181820	37.447552
1660.047351	37.041958
1661.914266	36.623776
1663.777193	28.668531
1665.641505	30.072727
1667.503621	25.290909
1669.365333	27.023776
1671.228429	25.030769
1673.089331	27.847552
1674.948039	27.139860
1676.806344	29.225175
1678.666034	25.074126
1680.519957	23.165035
1682.377052	23.521678
1684.233745	25.979021
1686.086462	22.510490
1687.942349	22.162238
1689.794263	21.069930
1691.645776	24.313287
1693.496888	22.558042
1695.347600	21.767832
1697.197911	20.253147
1699.046038	18.254545
1700.895548	16.197203
1702.739310	19.380420
1704.588021	20.725874
1706.430987	20.938462
1708.277118	19.942657
1710.119288	21.432168
1711.964622	22.334266
1713.804216	25.896503
1715.645194	22.927273
1717.487555	22.426573
1719.325960	24.625175
1721.165748	25.770629
1723.003361	24.833566
1724.840578	25.623776
1726.675622	20.601399
1728.512049	16.965035
1730.346304	14.363636
1732.180164	15.195804
1734.013631	13.539860
1735.843151	14.434965
1737.675830	9.822378
1739.504565	12.921678
1741.336458	17.825175
1743.164408	19.023776
1744.991966	21.159441
1746.819132	23.613986
1748.645907	19.697902
1750.472291	19.050350
1752.294738	19.376224
1754.120339	21.721678
1755.942006	18.801399
1757.765055	19.661538
1759.585943	16.538462
1761.406441	21.081119
1763.228321	21.788811
1765.044501	23.879720
1766.863833	28.352448
1768.679238	30.246154
1770.497793	25.050350
1772.312423	24.823776
1774.126667	21.223776
1775.940523	21.047552
1777.753993	16.827972
1779.565310	18.539860
1781.378008	15.365035
1783.190319	18.846154
1784.998713	15.876923
1786.808488	21.690909
1788.614347	24.047552
1790.423352	30.151049
1792.228444	31.250350
1794.034917	34.409790
1795.841006	29.202797
1797.643185	29.297902
1799.448507	25.997203
1801.249921	24.595804
1803.052715	18.669930
1804.851603	17.716084
1806.651872	10.432168
1808.451759	12.345455
1810.249505	13.262937
1812.046869	20.779021
1813.843854	21.962238
1815.640458	24.998601
1817.434923	24.303497
1819.230767	26.801399
1821.020957	25.296503
1822.816043	22.538462
1824.605476	20.472727
1826.398046	19.509091
1828.188481	12.244755
1829.976782	16.850350
1831.768218	17.581818
1833.554008	16.902098
1835.341178	11.630769
1837.126216	13.200000
1838.914388	15.819580
1840.698674	19.211189
1842.480831	19.193007
1844.264366	19.002797
1846.045773	19.078322
1847.828559	19.714685
1849.607465	18.078322
1851.387749	23.742657
1853.165907	20.402797
1854.945444	15.595804
1856.722856	11.286713
1858.498144	10.461538
1860.274811	14.538462
1862.049354	16.234965
1863.825276	18.387413
1865.595578	20.612587
1867.369006	20.125874
1869.140315	23.496503
1870.911254	21.057343
1872.683569	21.781818
1874.450272	15.944056
1876.220099	15.206993
1877.986063	16.324476
1879.755151	18.567832
1881.520377	20.549650
1883.285234	23.770629
1885.051469	25.953846
1886.813845	31.514685
1888.575854	30.443357
1890.337495	28.818182
1892.098770	27.222378
1893.859677	25.791608
1895.620218	21.613986
1897.378649	23.650350
1899.136715	23.121678
1900.892672	24.254545
1902.650007	19.109091
1904.406975	21.441958
1906.161838	21.793007
1907.914595	25.215385
1909.666989	20.198601
1911.420758	17.200000
1913.172424	17.918881
1914.921988	19.109091
1916.672928	20.665734
1918.423504	20.330070
1920.170241	18.869930
1921.918355	21.997203
1923.664369	19.783217
1925.411759	24.567832
1927.157050	24.955245
1928.900244	26.626573
1930.644814	24.348252
1932.387287	21.488112
1934.129400	20.239161
1935.871153	21.760140
1937.612547	22.952448
1939.351847	25.007692
1941.090787	25.976224
1942.829370	25.739161
1944.565860	23.272727
1946.301993	22.632867
1948.039500	24.102098
1949.773185	26.176923
1951.508245	22.423776
1953.241217	23.364336
1954.973832	22.165035
1956.706090	22.736364
1958.437992	23.965035
1960.167808	28.581818
1961.895540	24.650350
1963.624645	20.660140
1965.353396	16.485315
1967.080063	15.254545
1968.806376	15.825175
1970.534062	13.064336
1972.256212	8.815385
1973.981463	15.492308
1975.702908	13.081119
1977.427452	13.903497
1979.149917	15.332867
1980.868578	17.211189
1982.590338	11.823776
1984.308296	13.897902
1986.027627	17.197203
1987.743159	22.998601
1989.463512	23.408392
1991.180065	24.758042
1992.892823	24.159441
1994.608676	27.537063
1996.322456	23.840559
1998.035887	22.187413
1999.747247	18.888112
2001.459980	15.145455
2003.168921	11.461538
2004.880956	17.401399
2006.587481	18.669930
2008.297099	22.626573
2010.004649	22.825175
2011.711852	22.780420
2013.416989	19.619580
2015.121779	23.952448
2016.827941	26.425175
2018.530321	27.735664
2020.234073	29.791608
2021.935761	31.647552
2023.637105	30.595804
2025.338103	32.170629
2027.037041	26.047552
2028.737349	23.434965
2030.433883	14.626573
2032.131788	9.191608
2033.827634	8.405594
2035.526566	12.472727
2037.220012	8.612587
2038.914830	10.219580
2040.609304	11.668531
2042.300010	15.710490
2043.993800	15.552448
2045.683823	18.756643
2047.375217	14.744056
2049.064558	13.047552
2050.755269	13.116084
2052.442218	15.356643
2054.128826	16.752448
2055.816805	18.118881
2057.501024	18.230769
2059.186613	20.472727
2060.871863	23.758042
2062.555065	26.932867
2064.239636	26.397203
2065.918745	29.311888
2067.602639	26.095105
2069.281073	26.646154
2070.962583	25.949650
2072.640343	23.432168
2074.317765	21.362238
2075.996558	22.418182
2077.673307	20.057343
2079.348015	18.029371
2081.024092	16.837762
2082.698129	15.289510
2084.371830	14.988811
2086.045196	17.011189
2087.716524	15.797203
2089.387517	19.714685
2091.058176	21.215385
2092.728500	20.751049
2094.398491	22.320280
2096.066446	24.772028
2097.734068	22.883916
2099.399655	19.572028
2101.066612	14.965035
2102.731534	13.735664
2104.396125	13.822378
2106.058684	11.723077
2107.722611	11.001399
2109.384508	16.128671
2111.046073	15.320280
2112.707307	13.265734
2114.366513	17.889510
2116.025388	19.769231
2117.683934	16.657343
2119.342150	17.951049
2120.996642	19.832168
2122.654199	23.348252
2124.311427	24.373427
2125.964933	22.734266
2127.619807	21.902098
2129.270963	21.558042
2130.925180	18.549650
2132.575681	17.271329
2134.227548	18.130070
2135.874007	18.823776
2137.525221	18.576224
2139.172721	20.502098
2140.821588	20.630769
2142.468437	24.458741
2144.114959	20.130070
2145.761156	18.882517
2147.403645	16.660140
2149.049192	13.220979
2150.691032	15.892308
2152.335929	16.619580
2153.977121	17.341259
2155.617989	21.099301
2157.258533	20.958042
2158.897065	20.478322
2160.536964	24.839161
2162.173162	27.324476
2163.810726	23.739860
2165.447967	22.289510
2167.083199	21.516084
2168.718110	15.618182
2170.352699	17.909091
2171.986966	15.225175
2173.617541	16.155245
2175.251166	17.297902
2176.881100	16.696503
2178.512399	19.026573
2180.141694	23.997203
2181.770668	24.095105
2183.399324	23.476923
2185.027660	24.777622
2186.653993	22.688112
2188.280008	20.739860
2189.904022	23.110490
2191.529400	23.615385
2193.152779	20.125874
2194.777521	17.973427
2196.398583	16.027972
2198.019328	12.760839
2199.641438	11.158042
2201.261550	8.365035
2202.879665	5.830769
2204.497465	8.390210
2206.114950	5.541259
2207.732119	10.086713
2209.348973	11.703497
2210.965512	15.190210
2212.580057	14.928671
2214.192610	20.306294
2215.806527	21.913287
2217.418453	22.688112
2219.031742	19.535664
2220.643041	19.454545
2222.252350	18.685315
2223.863023	21.481119
2225.471707	17.451748
2227.080079	20.186014
2228.686463	19.209790
2230.294211	19.730070
2231.899972	24.490909
2233.505422	26.369231
2235.108887	25.363636
2236.713716	25.380420
2238.316560	22.267133
2239.917421	25.173427
2241.519645	25.187413
2243.119886	24.342657
2244.721490	22.524476
2246.319442	25.503497
2247.918756	25.062937
2249.516090	27.100699
2251.113115	30.390210
2252.711503	29.650350
2254.306242	25.881119
2255.899004	27.558042
2257.493129	27.594406
2259.088615	27.109091
2260.680457	24.892308
2262.271992	21.545455
2263.864888	24.039161
2265.452475	27.125874
2267.044759	29.555245
2268.631735	31.243357
2270.221740	26.906294
2271.806440	25.611189
2273.395834	23.411189
2274.979925	22.942657
2276.565378	20.981818
2278.148861	20.869930
2279.735371	20.909091
2281.318247	22.307692
2282.900819	26.372028
2284.483088	28.025175
2286.061728	28.297902
2287.643391	26.240559
2289.221426	19.995804
2290.802484	22.166434
2292.379916	17.931469
2293.955383	16.556643
2295.533873	12.745455
2297.108739	11.786014
2298.683304	8.939860
2300.257569	11.081119
2301.831533	10.579021
2303.405197	13.027972
2304.978560	13.937063
2306.548305	15.482517
2308.117751	18.246154
2309.690216	24.117483
2311.257405	20.486713
2312.827613	22.636364
2314.394206	16.123077
2315.962159	14.425175
2317.528156	12.107692
2319.093856	12.047552
2320.659259	12.092308
2322.222707	14.823776
2323.787515	20.274126
2325.348715	28.359441
2326.912929	34.956643
2328.471882	36.886713
2330.033848	35.145455
2331.593864	37.120280
2333.153584	29.744056
2334.711355	31.413986
2336.268831	28.911888
2337.826013	24.167832
2339.381248	22.752448
2340.936188	23.867133
2342.490835	30.490909
2344.045188	31.111888
2345.599247	27.415385
2347.153012	24.784615
2348.704834	20.855944
2350.254712	21.230769
2351.807598	18.402797
2353.355242	20.467133
2354.905893	18.078322
2356.452954	14.514685
2358.001372	13.759441
2359.549498	17.187413
2361.094036	21.106294
2362.639933	21.001399
2364.183890	20.584615
2365.729205	20.885315
2367.270935	19.716084
2368.814022	21.379021
2370.355174	22.197203
2371.896036	20.446154
2373.436609	18.401399
2374.976893	17.229371
2376.516887	15.050350
2378.053304	16.001399
2379.592722	18.504895
2381.128563	20.377622
2382.665760	16.524476
2384.199382	18.534266
2385.736005	18.997203
2387.270696	20.671329
2388.803458	24.408392
2390.335933	24.548252
2391.866481	24.825175
2393.400026	26.530070
2394.928360	23.598601
2396.458050	25.574825
2397.987455	23.248951
2399.516574	24.134266
2401.045409	16.496503
2402.569038	20.131469
2404.097304	17.717483
2405.620366	18.786014
2407.148062	18.784615
2408.668919	20.307692
2410.194409	21.524476
2411.716338	23.160839
2413.239623	24.285315
2414.760987	26.725874
2416.280431	25.457343
2417.801230	30.882517
2419.320110	26.306294
2420.838708	29.097902
2422.355389	24.755245
2423.873424	22.446154
2425.391178	18.282517
2426.905381	18.823776
2428.419303	14.767832
2429.932945	15.418182
2431.447942	13.135664
2432.959390	15.145455
2434.472193	16.627972
2435.983083	21.170629
2437.493693	20.981818
2439.002392	24.174825
2440.514078	19.808392
2442.022219	20.696503
2443.530083	21.451748
2445.037669	26.348252
2446.541714	22.637762
2448.048745	25.707692
2449.553867	24.078322
2451.058712	26.871329
2452.561650	24.539860
2454.064311	24.373427
2455.566696	23.000000
2457.067176	21.032168
2458.569009	18.118881
2460.068938	20.278322
2461.568591	18.951049
2463.067968	20.827972
2464.565443	16.507692
2466.061017	19.930070
2467.559570	19.995804
2469.054594	21.615385
2470.550972	21.044755
2472.043823	20.486713
2473.538026	19.997203
2475.031956	20.288112
2476.522363	24.043357
2478.015746	23.725874
2479.507232	23.728671
2480.996821	26.303497
2482.486138	24.820979
2483.973560	28.479720
2485.463957	29.237762
2486.950835	28.451748
2488.439065	25.930070
2489.923779	24.651748
2491.408222	24.302098
2492.894017	24.492308
2494.377919	23.127273
2495.863173	20.093706
2497.343293	23.006993
2498.826385	22.058741
2500.307587	20.759441
2501.788520	22.623776
2503.267564	21.366434
2504.746339	19.193007
2506.224846	21.469930
2507.703085	27.352448
2509.181055	26.451748
2510.655521	25.227972
2512.132955	23.127273
2513.606886	22.886713
2515.082168	23.651748
2516.557182	21.369231
2518.028695	17.977622
2519.501558	15.790210
2520.972539	12.986014
2522.444870	10.625175
2523.912088	12.695105
2525.382271	11.888112
2526.850574	9.351049
2528.318612	10.689510
2529.786385	8.296503
2531.253893	6.998601
2532.721136	6.724476
2534.184887	8.109091
2535.649988	9.313287
2537.113212	11.552448
2538.577786	14.406993
2540.038870	18.262937
2541.501304	18.979021
2542.963475	18.398601
2544.422160	22.060140
2545.885417	21.556643
2547.343577	17.369231
2548.803086	17.086713
2550.257502	17.317483
2551.716487	16.613986
2553.173601	17.549650
2554.628844	17.786014
2556.083826	20.963636
2557.536938	23.419580
2558.991399	22.300699
2560.443991	23.135664
2561.896323	23.725874
2563.346787	24.268531
2564.800207	26.538462
2566.248545	30.050350
2567.699839	32.809790
2569.149266	32.025175
2570.595221	32.353846
2572.044132	30.619580
2573.489571	28.772028
2574.936359	28.892308
2576.381283	28.675524
2577.825950	24.395804
2579.271964	23.376224
2580.714511	28.145455
2582.158406	30.110490
2583.598836	33.524476
2585.040613	32.499301
2586.480531	30.832168
2587.921796	27.311888
2589.359600	23.657343
2590.800353	17.370629
2592.236043	14.711888
2593.674683	13.481119
2595.111466	12.334266
2596.546392	14.566434
2597.984267	19.686713
2599.417083	20.130070
2600.851247	24.577622
2602.283557	23.229371
2603.717213	26.427972
2605.149016	25.488112
2606.580566	24.118881
2608.011862	20.190210
2609.441306	18.723077
2610.870499	16.629371
2612.297840	19.039161
2613.726528	18.156643
2615.154963	18.458741
2616.579951	21.008392
2618.006286	25.572028
2619.430772	24.906294
2620.856604	27.910490
2622.278992	31.033566
2623.702726	36.418182
2625.124613	41.160839
2626.546251	41.523077
2627.966043	40.998601
2629.387181	42.544056
2630.808069	39.113287
2632.225519	35.513287
2633.645908	36.613986
2635.062860	37.114685
2636.479564	36.474126
2637.896019	37.795804
2639.312226	38.190210
2640.728184	42.054545
2642.142302	41.022378
2643.556173	39.825175
2644.968204	38.669930
2646.381580	37.278322
2647.791526	32.914685
2649.204407	33.311888
2650.613861	34.836364
2652.023068	41.886713
2653.430439	46.247552
2654.840744	47.825175
2656.249213	46.841958
2657.655847	52.117483
2659.062236	52.801399
2660.466791	53.864336
2661.872690	51.724476
2663.276756	52.344056
2664.680578	53.689510
2666.084155	59.878322
2667.485900	59.503497
2668.888989	62.728671
2670.288661	60.530070
2671.689675	59.149650
2673.087274	57.369231
2674.487803	58.468531
2675.884917	54.993007
2677.283374	52.116084
2678.680003	51.123077
2680.076390	50.932867
2681.472536	51.183217
2682.866855	51.587413
2684.262517	47.019580
2685.654769	46.440559
2687.048365	43.123077
2688.440136	45.366434
2689.833249	45.328671
2691.224539	48.135664
2692.614006	48.337063
2694.003233	49.285315
2695.392221	49.690909
2696.782551	49.172028
2698.167896	46.683916
2699.556165	45.439161
2700.942614	42.539860
2702.328824	45.195804
2703.714796	47.132867
2705.097368	48.875524
2706.481283	49.331469
2707.864960	50.008392
2709.248399	47.443357
2710.628442	49.827972
2712.009827	48.213986
2713.389396	48.542657
2714.770307	45.625175
2716.149403	43.909091
2717.526684	42.349650
2718.905307	45.418182
2720.282117	44.012587
2721.658691	41.834965
2723.035029	39.633566
2724.409555	36.032168
2725.785422	32.704895
2727.157902	33.027972
2728.533298	28.220979
2729.903734	29.689510
2731.275511	28.153846
2732.647053	26.156643
2734.016787	26.812587
2735.387862	25.997203
2736.757129	25.439161
2738.126162	26.397203
2739.493388	25.104895
2740.860382	23.990210
2742.227143	23.360839
2743.593671	24.109091
2744.958394	25.956643
2746.322886	29.225175
2747.687145	28.674126
2749.051172	29.658741
2750.414968	27.247552
2751.775390	25.633566
2753.138723	23.829371
2754.497113	23.124476
2755.858413	21.826573
2757.216342	21.509091
2758.577181	16.415385
2759.936219	13.227972
2761.291889	13.928671
2762.650467	18.083916
2764.005679	19.069930
2765.360661	21.725874
2766.713846	18.697902
2768.069938	22.454545
2769.422666	22.072727
2770.775165	25.306294
2772.127436	23.400000
2773.481046	25.046154
2774.831294	20.377622
2776.179749	23.850350
2777.531108	26.064336
2778.879108	27.545455
2780.228447	27.748252
2781.575993	29.697902
2782.923312	26.981818
2784.270405	28.184615
2785.615707	24.827972
2786.960783	21.478322
2788.305633	16.090909
2789.650256	15.485315
2790.991528	14.223776
2792.334138	15.405594
2793.676522	13.374825
2795.018682	10.395804
2796.357492	12.146853
2797.699201	12.268531
2799.037563	10.534266
2800.377262	11.193007
2801.715175	8.965035
2803.051304	11.482517
2804.387209	13.695105
2805.724452	15.837762
2807.059911	20.704895
2808.395147	23.039161
2809.728600	21.791608
2811.063391	19.233566
2812.394840	19.951049
2813.729185	18.562238
2815.058632	17.899301
2816.389416	17.436364
2817.719978	10.876923
2819.048761	13.935664
2820.378880	12.958042
2821.707221	12.567832
2823.035341	17.033566
2824.361684	18.345455
2825.689362	13.896503
2827.013708	15.209790
2828.339389	17.165035
2829.663295	19.337063
2830.986982	21.121678
2832.312004	23.239161
2833.633696	18.751049
2834.955170	20.556643
2836.276425	16.067133
2837.597461	18.496503
2838.916725	21.005594
2840.237324	18.928671
2841.556151	15.669930
2842.874760	16.812587
2844.191598	14.693706
2845.508220	16.433566
2846.824623	16.202797
2848.139258	19.169231
2849.455227	15.793007
2850.767876	14.709091
2852.081861	14.619580
2853.395628	17.997203
2854.709180	19.423776
2856.020964	16.187413
2857.330982	14.668531
2858.642335	13.874126
2859.950373	10.695105
2861.259746	12.306294
2862.568903	7.307692
2863.877845	10.545455
2865.185024	8.668531
2866.490439	13.689510
2867.797189	16.051748
2869.102176	17.096503
2870.406950	18.373427
2871.709962	13.541259
2873.015856	12.218182
2874.316894	11.885315
2875.619267	13.233566
2876.919880	14.786014
2878.221827	14.427972
2879.523561	19.001399
2880.821990	19.173427
2882.121754	26.276923
2883.419759	24.806993
2884.717553	25.539860
2886.013591	26.640559
2887.310962	20.089510
2888.606577	13.506294
2889.901981	12.804196
2891.197175	12.759441
2892.489070	13.013986
2893.783842	14.935664
2895.075317	15.861538
2896.368125	15.352448
2897.660723	17.395804
2898.950027	18.834965
2900.240663	21.951049
2901.529548	22.878322
2902.819766	20.546853
2904.106692	14.788811
2905.394950	17.155245
2906.681458	13.991608
2907.967759	15.627972
2909.253851	14.465734
2910.538195	14.162238
2911.825411	14.588811
2913.107799	16.075524
2914.391520	20.218182
2915.673495	19.595804
2916.955263	17.311888
2918.235285	17.198601
2919.518177	10.241958
2920.799324	10.724476
2922.077189	6.394406
2923.357923	4.668531
2924.635376	0.878322
2925.912623	4.468531
2927.188129	7.762238
2928.466502	10.095105
2929.740060	12.500699
2931.016486	14.148252
2932.291171	10.949650
2933.564116	13.602797
2934.838391	17.318881
2936.110927	21.311888
2937.383259	24.205594
2938.652317	25.507692
2939.924241	25.581818
2941.194427	26.381818
2942.464410	22.593007
2943.734189	21.552448
2945.002231	17.890909
2946.268538	17.117483
2947.534642	11.725874
2948.802076	12.786014
2950.067776	12.958042
2951.333273	12.420979
2952.598568	9.655944
2953.860598	10.269930
2955.123959	8.100699
2956.387117	8.173427
2957.648544	7.257343
2958.911300	8.441958
2960.172325	9.500699
2961.431618	15.683916
2962.690712	15.679720
2963.949605	17.184615
2965.208298	16.471329
2966.466791	16.916084
2967.723555	11.156643
2968.980119	11.219580
2970.234956	8.780420
2971.491122	8.247552
2972.744032	7.061538
2973.998272	6.490909
2975.252313	7.390210
2976.504628	8.565035
2977.756745	6.008392
2979.007137	8.493706
2980.260384	8.869930
2981.508854	10.229371
2982.760178	7.581818
2984.008254	10.025175
2985.256132	10.486713
2986.503813	9.745455
2987.751298	13.039161
2988.997061	16.163636
2990.242627	16.700699
2991.489521	18.089510
2992.733171	17.559441
2993.978149	22.455944
2995.219884	21.088112
2996.464470	23.604196
2997.707336	23.411189
2998.946962	23.068531
3000.189438	18.809790
3001.428675	17.634965
3002.669239	19.338462
3003.908086	16.748252
3005.146739	15.332867
3006.383676	15.089510
3007.621940	13.370629
3008.858490	14.746853
3010.094845	13.261538
3011.331007	15.001399
3012.565456	13.986014
3013.799711	11.187413
3015.033773	13.000000
3016.266123	16.703497
3017.496761	17.606993
3018.730245	16.379021
3019.962017	20.145455
3021.192079	21.699301
3022.421949	22.939860
3023.650109	24.232168
3024.879595	24.269930
3026.107373	21.806993
3027.334959	17.848951
3028.563871	16.819580
3029.788041	17.674126
3031.015054	15.200000
3032.238843	12.285315
3033.463959	10.713287
3034.687368	11.061538
3035.910588	10.334266
3037.132102	7.388811
3038.356457	8.531469
3039.576077	10.640559
3040.797022	11.758042
3042.017779	10.591608
3043.236832	13.618182
3044.457211	12.405594
3045.674373	10.576224
3046.892860	10.518881
3048.109646	13.328671
3049.326243	15.402797
3050.542652	17.381818
3051.755849	15.345455
3052.971883	19.804196
3054.184705	22.696503
3055.400364	23.377622
3056.611300	21.875524
3057.823561	16.562238
3059.035636	11.197203
3060.247524	8.006993
3061.457714	7.299301
3062.667718	8.615385
3063.877537	9.408392
3065.085659	14.637762
3066.293595	12.804196
3067.499837	15.830769
3068.707402	17.595804
3069.913274	18.800000
3071.118960	16.488112
3072.324461	11.977622
3073.528269	9.594406
3074.733401	7.341259
3075.936841	8.272727
3077.138588	6.349650
3078.340152	8.220979
3079.541532	11.198601
3080.742728	6.640559
3081.942234	12.222378
3083.141556	11.867133
3084.342202	11.949650
3085.541158	9.265734
3086.736920	9.468531
3087.935511	7.841958
3089.130908	7.752448
3090.327628	12.567832
3091.521156	11.700699
3092.717513	15.163636
3093.912182	18.672727
3095.103661	18.777622
3096.299471	21.902098
3097.490588	18.507692
3098.683027	17.913287
3099.872279	16.269930
3101.064357	15.713287
3102.254750	14.148252
3103.441958	12.809790
3104.630489	14.976224
3105.820342	16.274126
3107.007010	21.674126
3108.193499	24.605594
3109.379808	21.871329
3110.567439	17.518881
3111.751889	16.198601
3112.934658	18.258741
3114.120251	16.960839
3115.304163	16.688112
3116.486397	16.998601
3117.668452	15.783217
3118.850330	14.918881
3120.032029	17.036364
3121.212050	17.485315
3122.390395	17.264336
3123.571561	15.597203
3124.749551	14.637762
3125.927364	17.170629
3127.105000	21.655944
3128.280961	19.244755
3129.456745	19.720280
3130.633851	16.765035
3131.809282	13.241958
3132.983040	10.125874
3134.155126	13.377622
3135.328532	12.187413
3136.501763	15.951049
3137.673321	16.200000
3138.846201	21.528671
3140.015913	23.450350
3141.186946	23.558042
3142.356308	19.802797
3143.524001	13.826573
3144.694509	9.948252
3145.860358	9.836364
3147.030517	7.864336
3148.196018	11.528671
3149.361346	9.945455
3150.526500	12.606993
3151.691480	14.004196
3152.857781	18.123077
3154.019428	16.344056
3155.182396	12.381818
3156.345190	7.117483
3157.507812	3.616783
3158.668769	3.664336
3159.829553	5.426573
3160.990165	3.586014
3162.149114	8.969231
3163.307890	10.176224
3164.466495	12.216783
3165.624928	14.198601
3166.783189	16.569231
3167.939788	16.190210
3169.094726	17.089510
3170.250983	15.995804
3171.405580	18.123077
3172.560005	19.825175
3173.712771	22.058741
3174.865367	20.131469
3176.017792	21.318881
3177.170048	19.009790
3178.322134	14.871329
3179.471073	12.534266
3180.622819	13.871329
3181.772907	10.096503
3182.921339	9.613986
3184.069602	7.615385
3185.217695	7.808392
3186.365620	8.344056
3187.511890	9.472727
3188.657991	10.483916
3189.802437	10.874126
3190.946716	10.714685
3192.090827	10.874126
3193.236256	13.005594
3194.378545	18.328671
3195.520668	15.507692
3196.662623	18.279720
3197.804412	19.932867
3198.946033	22.888112
3200.084518	23.711888
3201.224321	28.058741
3202.365442	25.502098
3203.503428	19.005594
3204.639765	15.033566
3205.775936	15.650350
3206.913425	13.216783
3208.049264	10.883916
3209.186421	7.581818
3210.318965	7.636364
3211.455791	11.938462
3212.588005	16.584615
3213.721537	16.709091
3214.854903	19.819580
3215.985142	14.489510
3217.118179	11.243357
3218.248090	11.689510
3219.379318	12.405594
3220.507420	10.093706
3221.638319	5.206993
3222.767575	2.093706
3223.895186	1.372028
3225.019676	3.043357
3226.148441	4.970629
3227.274084	6.527273
3228.399564	9.128671
3229.523403	7.142657
3230.650036	10.318881
3231.772072	14.952448
3232.895424	18.801399
3234.018614	20.535664
3235.141642	16.153846
3236.263030	11.820979
3237.384257	11.008392
3238.503845	7.153846
3239.623272	7.841958
3240.741061	6.833566
3241.861643	6.576224
3242.979110	4.636364
3244.096418	8.657343
3245.213564	11.107692
3246.329075	14.015385
3247.445901	12.121678
3248.559616	9.118881
3249.676122	5.531469
3250.790992	4.994406
3251.902754	2.215385
3253.014357	-0.765035
3254.127274	-1.251748
3255.240033	-0.331469
3256.349685	-1.518881
3257.460652	3.158042
3258.571459	4.627972
3259.680636	8.742657
3260.788181	6.393007
3261.897041	7.476923
3263.005742	7.662937
3264.111341	9.727273
3265.218254	9.951049
3266.323539	12.513287
3267.430137	12.083916
3268.533635	15.972028
3269.638447	17.048951
3270.743102	20.937063
3271.844658	20.457343
3272.946059	21.647552
3274.048773	15.946853
3275.151330	13.006993
3276.250792	11.468531
3277.353036	12.528671
3278.452185	12.746853
3279.549710	13.125874
3280.647079	4.569231
3281.747231	3.355245
3282.844289	-0.724476
3283.941192	0.356643
3285.037941	-3.688112
3286.130130	-3.450350
3287.226568	-6.013986
3288.321385	-3.121678
3289.416046	3.237762
3290.509086	12.704895
3291.601972	18.655944
3292.693237	23.288112
3293.785815	22.717483
3294.876772	27.230769
3295.966110	25.100699
3297.055295	24.008392
3298.145793	16.542657
3299.233206	13.246154
3300.320467	6.998601
3301.409040	5.806993
3302.497460	0.444755
3303.581333	-1.886713
3304.669448	-1.304895
3305.754482	1.374825
3306.837899	1.682517
3307.922629	3.753846
3309.005744	-0.212587
3310.090170	3.302098
3311.171518	0.804196
3312.254178	3.344056
3313.335224	4.906294
3314.416119	7.009790
3315.495401	3.187413
3316.574532	6.103497
3317.654974	8.966434
3318.732343	10.325874
3319.811022	10.050350
3320.888091	9.674126
3321.965009	8.979021
3323.040316	10.965035
3324.115474	9.124476
3325.191943	16.349650
3326.265342	14.244755
3327.338592	14.395804
3328.413153	13.853147
3329.486104	16.767832
3330.557448	12.081119
3331.630102	11.760839
3332.699689	11.341259
3333.770587	10.204196
3334.839878	9.472727
3335.910480	6.034965
3336.979475	9.159441
3338.046864	10.297902
3339.112648	6.500699
3340.182658	7.476923
3341.249605	7.279720
3342.313490	8.290909
3343.380143	9.393007
3344.445191	14.800000
3345.508636	16.362238
3346.571935	13.138462
3347.635088	12.574825
3348.698094	10.973427
3349.760953	17.657343
3350.822211	18.725874
3351.880412	16.278322
3352.942834	16.822378
3354.002199	16.689510
3355.061419	16.819580
3356.121949	17.222378
3357.177969	16.151049
3358.236754	12.240559
3359.291031	7.689510
3360.348071	9.525874
3361.403514	14.193007
3362.460265	16.065734
3363.515419	14.057343
3364.568975	10.634965
3365.620934	11.683916
3366.675655	10.131469
3367.727327	7.819580
3368.778856	3.685315
3369.831694	3.667133
3370.881484	1.900699
3371.932582	5.567832
3372.980635	7.839161
3374.031448	13.885315
3375.079215	7.005594
3376.126840	5.928671
3377.174322	5.840559
3378.220212	4.946853
3379.267410	4.013986
3380.311566	3.299301
3381.358480	-1.597203
3382.403802	1.882517
3383.446084	1.324476
3384.488224	7.102098
3385.531672	7.358042
3386.574980	11.071329
3387.616697	8.111888
3388.658273	10.227972
3389.699709	11.646154
3390.739555	13.402797
3391.777814	12.798601
3392.817380	12.218182
3393.856805	9.253147
3394.894643	10.209790
3395.930895	9.878322
3396.967006	12.180420
3398.004425	10.872727
3399.038811	15.116084
3400.074504	17.613986
3401.110058	18.984615
3402.142581	19.341259
3403.177857	17.836364
3404.210102	11.746853
3405.242209	8.190210
3406.272732	4.895105
3407.304563	2.643357
3408.336254	0.829371
3409.364919	-0.661538
3410.393445	-1.113287
3411.423279	2.285315
3412.452974	4.076923
3413.479644	5.707692
3414.507621	3.216783
3415.532573	4.560839
3416.560275	2.558042
3417.584954	5.819580
3418.610939	6.829371
3419.635344	6.630769
3420.659613	6.593007
3421.682303	8.608392
3422.704857	6.283916
3423.728717	6.481119
3424.749557	2.583217
3425.770262	-0.479920
3426.792272	-2.575674
3427.811264	-2.991808
3428.830121	-1.016084
3429.850283	4.063736
3430.867429	12.959890
