-118.389184	7.400000
-115.719584	-4.800000
-113.052919	-3.600000
-110.387006	14.000000
-107.724025	-15.800000
-105.059615	13.800000
-102.398135	4.400000
-99.735225	-7.200000
-97.077423	-29.600000
-94.418190	13.400000
-91.759706	-22.600000
-89.104147	-13.600000
-86.447159	13.400000
-83.795268	14.000000
-81.141948	5.200000
-78.491548	7.000000
-75.839718	7.000000
-73.192979	18.000000
-70.544810	13.200000
-67.897385	9.000000
-65.252873	-11.200000
-62.606933	-21.600000
-59.966074	9.200000
-57.323786	2.600000
-54.684406	-1.800000
-52.043598	21.800000
-49.403530	2.800000
-46.768534	-3.800000
-44.132109	-1.800000
-41.498588	-4.600000
-38.863638	14.400000
-36.233753	22.200000
-33.600276	-12.800000
-30.971861	-20.000000
-28.344179	-18.200000
-25.715070	-6.200000
-23.091017	-12.600000
-20.463375	3.200000
-17.840786	-2.400000
-15.218928	6.400000
-12.597802	32.000000
-9.977405	42.000000
-7.359896	35.800000
-4.740959	161.600000
-2.124908	413.600000
0.490415	526.200000
3.105011	309.200000
5.716724	32.200000
8.329866	23.200000
10.937974	5.600000
13.549664	-9.400000
16.156323	-12.600000
18.764410	-14.400000
21.371773	-4.000000
23.974111	-7.200000
26.580027	13.200000
29.180921	15.800000
31.783243	4.200000
34.380548	21.200000
36.981428	10.200000
39.577294	-6.000000
42.174587	7.800000
44.771161	3.400000
47.362726	-6.000000
49.955719	20.000000
52.545851	1.600000
55.137411	9.800000
57.726111	-5.200000
60.316238	21.000000
62.901367	1.800000
65.487922	18.800000
68.073764	15.600000
70.656752	1.400000
73.241167	4.600000
75.818452	10.200000
78.399304	2.600000
80.977307	-12.400000
83.554600	-20.800000
86.133319	18.000000
88.707057	3.400000
91.282221	-1.800000
93.854542	2.000000
96.426155	15.200000
98.994928	35.000000
101.565128	17.000000
104.132490	-2.000000
106.701277	1.600000
109.267228	26.200000
111.830344	18.000000
114.397016	-1.200000
116.954467	5.200000
119.517603	-7.200000
122.075780	3.400000
124.637510	-4.200000
127.194285	0.200000
129.752485	14.600000
132.305733	15.200000
134.858282	25.200000
137.414382	23.200000
139.965535	28.200000
142.515989	47.200000
145.065747	41.400000
147.612685	15.600000
150.158927	25.200000
152.706595	42.400000
155.253568	54.000000
157.795604	39.600000
160.336947	28.000000
162.877597	31.600000
165.419673	30.800000
167.958938	64.600000
170.495393	38.800000
173.031158	34.000000
175.568348	47.200000
178.104846	43.600000
180.638539	24.600000
183.169429	47.600000
185.699630	52.400000
188.231256	28.400000
190.760081	32.200000
193.286107	44.000000
195.811448	49.000000
198.338213	26.600000
200.862181	50.600000
203.385465	50.800000
205.908064	39.200000
208.427870	58.000000
210.946993	24.400000
213.465433	47.800000
215.985297	39.600000
218.498160	32.600000
221.014554	34.800000
223.530266	19.600000
226.041089	40.400000
228.553336	33.400000
231.062800	34.200000
233.571586	56.600000
236.079694	31.400000
238.589225	37.400000
241.093877	42.400000
243.597852	40.000000
246.103251	32.200000
248.603775	39.800000
251.107822	53.400000
253.604899	41.000000
256.105498	19.800000
258.603326	18.000000
261.100481	54.200000
263.596963	43.200000
266.088582	16.400000
268.583721	30.800000
271.076094	39.200000
273.567796	36.000000
276.056735	53.800000
278.547097	49.400000
281.034698	51.400000
283.519539	45.600000
286.007894	58.600000
288.489310	41.200000
290.974240	52.400000
293.454325	45.000000
295.937922	9.000000
298.416676	35.600000
300.896854	32.000000
303.374279	56.400000
305.851041	61.800000
308.327140	35.400000
310.800490	36.800000
313.273178	39.600000
315.745205	52.000000
318.216571	46.800000
320.685193	57.200000
323.153155	73.600000
325.622540	44.000000
328.087102	59.400000
330.555167	69.000000
333.018413	58.000000
335.481002	39.000000
337.942933	50.800000
340.404208	56.400000
342.862749	44.800000
345.322712	61.200000
347.779942	19.800000
350.236518	45.000000
352.692440	57.800000
355.145633	63.000000
357.600247	47.600000
360.050060	46.200000
362.503370	33.600000
364.951880	34.400000
367.399740	45.200000
369.849021	51.400000
372.293509	37.800000
374.739419	16.400000
377.184680	44.200000
379.627222	18.400000
382.069116	55.600000
384.510362	47.400000
386.948893	28.200000
389.388846	20.000000
391.826085	32.400000
394.260612	52.400000
396.698627	44.000000
399.131865	33.600000
401.566525	32.800000
403.996411	31.000000
406.429783	33.200000
408.858385	35.600000
411.286346	35.600000
413.715727	42.400000
416.140343	51.600000
418.566381	56.400000
420.991778	42.800000
423.416535	52.600000
425.836534	51.600000
428.257954	42.800000
430.676677	83.000000
433.096821	31.800000
435.514270	37.800000
437.933139	42.400000
440.349315	27.200000
442.760744	50.400000
445.175649	45.600000
447.587864	37.400000
449.999445	54.200000
452.410392	32.000000
454.818653	49.800000
457.226281	48.600000
459.633278	36.200000
462.039642	54.000000
464.443324	32.000000
466.846376	22.400000
469.248798	70.600000
471.650591	48.000000
474.049705	24.200000
476.450239	45.800000
478.850144	50.600000
481.245326	43.600000
483.643975	35.400000
486.037904	63.400000
488.431207	37.200000
490.823884	23.400000
493.215936	30.000000
495.609407	24.600000
497.998165	20.600000
500.384257	56.600000
502.771769	12.400000
505.158657	47.600000
507.542882	34.600000
509.928526	28.800000
512.311507	9.200000
514.691828	28.600000
517.073568	47.600000
519.452649	26.200000
521.833149	26.800000
524.210991	12.400000
526.586178	42.000000
528.960747	24.800000
531.336735	46.800000
533.710069	13.800000
536.084821	23.400000
538.454888	35.200000
540.824339	24.200000
543.195208	-1.600000
545.561397	21.600000
547.929004	45.400000
550.293965	7.800000
552.658313	30.600000
555.022049	19.200000
557.387202	29.800000
559.747682	21.000000
562.109581	50.000000
564.468840	43.000000
566.825460	36.000000
569.185525	30.600000
571.538900	41.400000
573.895719	23.600000
576.249902	25.600000
578.603478	57.200000
580.956445	30.800000
583.306781	35.400000
585.658533	54.600000
588.003609	23.600000
590.354149	34.800000
592.698016	36.600000
595.047343	45.800000
597.392023	9.000000
599.734077	30.000000
602.077549	23.200000
604.418398	16.600000
606.758645	29.200000
609.096271	25.600000
611.437332	39.800000
613.773756	8.800000
616.111596	25.800000
618.446818	31.000000
620.779425	12.000000
623.113448	18.800000
625.444858	43.000000
627.775669	10.200000
630.105882	43.600000
632.435497	10.400000
634.760490	9.200000
637.090924	44.200000
639.416736	24.200000
641.739942	20.600000
644.064563	41.800000
646.386580	28.600000
648.708002	15.200000
651.026821	24.200000
653.347056	16.800000
655.666698	57.200000
657.983739	29.800000
660.300188	30.400000
662.614040	45.800000
664.929306	20.800000
667.241976	26.400000
669.556061	11.200000
671.865546	26.200000
674.176447	24.600000
676.484755	28.200000
678.792475	25.000000
681.101610	38.200000
683.406152	-7.000000
685.710107	13.600000
688.013477	18.200000
690.318261	16.000000
692.618459	23.800000
694.920071	27.000000
697.221099	16.800000
699.517544	5.600000
701.815405	17.200000
704.112682	-2.000000
706.409376	6.800000
708.701494	16.600000
710.997023	32.400000
713.287979	40.400000
715.580349	30.200000
717.870143	30.200000
720.159358	4.600000
722.447992	20.400000
724.734055	21.800000
727.021531	44.400000
729.306437	34.800000
731.590764	4.200000
733.872523	35.200000
736.155696	20.800000
738.438292	10.800000
740.716333	26.800000
742.995787	39.800000
745.274666	25.000000
747.552969	34.400000
749.826723	2.000000
752.101891	19.400000
754.376485	20.200000
756.648520	35.200000
758.921967	51.200000
761.192857	38.800000
763.461191	22.200000
765.730938	18.000000
767.998131	0.000000
770.264753	43.800000
772.530806	31.600000
774.794306	7.600000
777.059220	41.600000
779.323564	27.200000
781.583379	16.200000
783.844607	20.000000
786.105267	25.000000
788.363380	31.400000
790.618949	30.600000
792.877909	29.800000
795.130370	19.200000
797.388198	34.400000
799.641506	32.400000
801.892275	28.000000
804.144456	16.000000
806.394099	12.800000
808.645153	18.800000
810.891696	30.600000
813.139651	25.600000
815.385072	-1.600000
817.631904	17.000000
819.878175	10.400000
822.119942	32.600000
824.365091	20.000000
826.603768	-14.400000
828.845828	21.200000
831.083389	35.600000
833.322361	8.800000
835.558807	25.200000
837.796664	16.000000
840.031997	1.600000
842.264805	10.800000
844.499025	17.200000
846.730723	16.600000
848.961866	28.000000
851.192454	31.200000
853.422488	18.200000
855.651967	16.800000
857.876965	16.600000
860.105338	45.400000
862.329232	31.000000
864.554536	21.600000
866.775365	10.600000
868.999566	32.800000
871.219294	0.000000
873.440433	7.800000
875.661021	24.200000
877.879099	9.800000
880.098588	29.400000
882.313610	23.600000
884.528084	22.200000
886.742011	20.800000
888.955390	18.600000
891.168222	6.000000
893.380508	5.800000
895.590291	34.600000
897.799529	30.200000
900.008222	35.200000
902.214416	33.400000
904.422019	16.400000
906.627125	24.000000
908.831687	4.400000
911.033753	15.600000
913.237229	17.400000
915.438211	28.200000
917.638652	8.600000
919.840501	38.600000
922.035958	2.800000
924.234775	25.200000
926.429153	5.800000
928.626889	4.600000
930.820189	9.800000
933.014898	33.400000
935.207121	19.800000
937.398806	37.200000
939.589953	11.800000
941.778617	15.600000
943.966744	8.400000
946.152391	20.000000
948.341390	19.400000
950.525966	25.000000
952.710007	48.600000
954.897398	19.400000
957.076485	32.200000
959.258923	31.400000
961.440827	26.600000
963.620257	2.400000
965.797214	1.800000
967.975578	-3.000000
970.155350	47.400000
972.328773	26.400000
974.505542	0.800000
976.677905	22.800000
978.851674	21.400000
981.021040	27.400000
983.193751	39.200000
985.363995	18.400000
987.533711	17.600000
989.702898	45.200000
991.867688	12.000000
994.035819	57.200000
996.199556	28.600000
998.364699	42.000000
1000.527384	3.400000
1002.689542	44.200000
1004.849244	39.200000
1007.008422	16.600000
1009.169006	26.000000
1011.327135	17.200000
1013.484740	12.400000
1015.641822	29.800000
1017.798381	37.800000
1019.950560	11.600000
1022.104145	49.800000
1024.257209	-2.400000
1026.407825	35.800000
1028.559846	30.400000
1030.707494	2.800000
1032.858474	26.800000
1035.005083	25.000000
1037.151174	13.000000
1039.296745	38.000000
1041.443722	40.200000
1043.584411	39.400000
1045.728428	7.800000
1047.870005	29.800000
1050.011066	12.200000
1052.153531	9.200000
1054.289717	29.800000
1056.429229	40.600000
1058.564385	36.600000
1060.702866	24.600000
1062.836993	31.200000
1064.970607	34.200000
1067.105626	43.000000
1069.236295	54.000000
1071.368369	54.000000
1073.498014	29.400000
1075.627147	33.600000
1077.755768	38.400000
1079.883878	25.600000
1082.009562	29.000000
1084.134736	34.400000
1086.261314	40.400000
1088.383555	35.000000
1090.507199	11.200000
1092.626510	2.400000
1094.751049	40.400000
1096.869343	35.000000
1098.989042	23.000000
1101.106322	49.000000
1103.223096	22.000000
1105.339363	19.200000
1107.453215	25.600000
1109.568470	6.400000
1111.679403	25.200000
1113.793647	28.600000
1115.903571	26.800000
1118.014899	28.000000
1120.125722	16.400000
1122.232230	33.000000
1124.342046	21.200000
1126.447548	8.400000
1128.554453	15.000000
1130.655143	49.400000
1132.761045	17.600000
1134.862638	30.600000
1136.965634	32.400000
1139.068129	26.200000
1141.164417	12.200000
1143.265913	38.800000
1145.363106	53.400000
1147.459800	29.600000
1149.555996	27.800000
1151.651695	39.600000
1153.746896	13.800000
1155.839700	19.400000
1157.933906	32.800000
1160.021921	37.600000
1162.115134	59.200000
1164.202159	3.800000
1166.292483	16.200000
1168.378520	41.600000
1170.467854	46.800000
1172.551007	25.800000
1174.635563	32.000000
1176.721519	20.800000
1178.803194	36.800000
1180.886271	42.600000
1182.966962	34.600000
1185.047161	20.400000
1187.126869	45.600000
1189.206086	19.000000
1191.282921	40.000000
1193.357375	34.800000
1195.435121	22.200000
1197.508596	32.400000
1199.583472	36.200000
1201.654081	35.800000
1203.726092	15.200000
1205.795726	46.000000
1207.866761	30.600000
1209.937308	30.400000
1212.003594	23.400000
1214.071281	40.600000
1216.136596	19.000000
1218.203311	39.400000
1220.265770	7.200000
1222.331514	25.800000
1224.393005	45.400000
1226.455895	41.600000
1228.516418	11.800000
1230.576457	44.200000
1232.636014	14.200000
1234.693205	0.600000
1236.749915	26.400000
1238.804262	33.800000
1240.861889	36.000000
1242.917154	1.800000
1244.968178	14.200000
1247.020602	13.800000
1249.072546	12.000000
1251.122132	23.600000
1253.171239	28.000000
1255.219868	10.200000
1257.268018	8.600000
1259.315690	26.600000
1261.359131	25.000000
1263.405847	18.600000
1265.450210	41.800000
1267.494097	25.400000
1269.535633	27.200000
1271.574819	27.000000
1273.617277	26.400000
1275.655513	20.600000
1277.695148	17.000000
1279.734308	31.800000
1281.769249	20.600000
1283.805590	20.600000
1285.839585	25.000000
1287.874979	24.400000
1289.906159	23.600000
1291.938738	12.000000
1293.970844	9.400000
1296.000610	30.800000
1298.031774	55.400000
1300.058730	51.200000
1302.087084	31.000000
1304.111234	26.800000
1306.138648	36.400000
1308.161860	40.600000
1310.186470	46.400000
1312.208746	17.800000
1314.232419	38.600000
1316.253759	57.000000
1318.274631	30.600000
1320.295037	31.200000
1322.311248	45.200000
1324.328858	45.600000
1326.344139	49.200000
1328.362678	48.600000
1330.377029	52.800000
1332.389054	38.000000
1334.404336	57.000000
1336.415433	67.200000
1338.427927	38.200000
1340.436238	46.200000
1342.447805	39.400000
1344.453332	29.200000
1346.462115	75.000000
1348.466720	61.600000
1350.474579	57.600000
1352.481976	36.200000
1354.483342	56.800000
1356.486105	50.800000
1358.488407	26.400000
1360.490250	32.400000
1362.491633	41.200000
1364.490703	40.000000
1366.489314	28.600000
1368.487467	34.400000
1370.485162	30.000000
1372.478693	30.400000
1374.473621	21.600000
1376.468092	27.000000
1378.462106	28.400000
1380.453813	30.600000
1382.445064	32.600000
1384.434010	15.400000
1386.424351	15.800000
1388.414237	13.200000
1390.401820	27.600000
1392.388948	57.200000
1394.373776	30.800000
1396.359997	29.400000
1398.343919	25.200000
1400.327388	13.400000
1402.310405	15.800000
1404.291123	1.000000
1406.273237	34.400000
1408.253053	29.400000
1410.232419	28.600000
1412.207645	36.600000
1414.186111	31.200000
1416.162282	32.400000
1418.138005	54.000000
1420.113278	33.600000
1422.086260	30.000000
1424.058794	48.400000
1426.030881	36.400000
1428.002519	28.400000
1429.970029	24.000000
1431.942614	46.400000
1433.907392	25.000000
1435.877243	38.000000
1437.842969	19.600000
1439.810088	12.000000
1441.774924	28.800000
1443.735641	23.200000
1445.701425	30.800000
1447.661254	32.000000
1449.622476	23.000000
1451.585091	32.200000
1453.543591	38.800000
1455.501649	34.800000
1457.459264	26.200000
1459.416438	16.400000
1461.371336	30.600000
1463.327626	35.800000
1465.281642	43.600000
1467.235218	31.400000
1469.186521	35.600000
1471.139216	34.200000
1473.089640	30.400000
1475.039625	34.600000
1476.989170	19.400000
1478.936447	42.200000
1480.881457	44.800000
1482.827858	11.200000
1484.773823	38.800000
1486.719349	37.000000
1488.662611	24.000000
1490.605436	17.800000
1492.545998	45.400000
1494.487951	26.800000
1496.427643	30.400000
1498.366899	32.400000
1500.305720	31.600000
1502.242282	40.600000
1504.180235	36.200000
1506.115930	19.400000
1508.051191	32.400000
1509.984195	29.800000
1511.916767	38.600000
1513.848907	36.400000
1515.780615	40.600000
1517.710069	7.600000
1519.640914	45.200000
1521.571328	28.800000
1523.497668	29.000000
1525.425400	29.600000
1527.350881	23.400000
1529.275933	55.600000
1531.200556	53.600000
1533.124750	33.200000
1535.046697	53.600000
1536.970033	42.600000
1538.891124	59.000000
1540.809970	46.400000
1542.730206	42.000000
1544.648198	58.800000
1546.565764	41.400000
1548.481088	81.600000
1550.397802	81.000000
1552.310461	91.800000
1554.226324	119.600000
1556.139947	146.600000
1558.051333	150.800000
1559.964107	178.000000
1561.872832	177.200000
1563.782947	190.800000
1565.692638	177.000000
1567.601905	180.200000
1569.508939	194.200000
1571.413740	162.400000
1573.319930	163.200000
1575.223888	139.200000
1577.127426	114.400000
1579.030542	88.800000
1580.931430	98.200000
1582.833705	83.000000
1584.733753	71.800000
1586.635188	45.200000
1588.532590	95.000000
1590.429573	76.200000
1592.326138	55.400000
1594.224091	37.800000
1596.116209	55.200000
1598.011520	46.200000
1599.906414	31.400000
1601.799086	38.200000
1603.691342	30.200000
1605.581377	36.600000
1607.470998	41.800000
1609.360202	44.400000
1611.248992	25.400000
1613.135565	35.600000
1615.023524	49.000000
1616.907467	42.400000
1618.792798	28.400000
1620.677714	14.200000
1622.560417	32.600000
1624.444507	23.200000
1626.324586	32.200000
1628.206051	24.800000
1630.085306	26.800000
1631.965947	17.000000
1633.840784	26.600000
1635.720603	12.200000
1637.596416	15.000000
1639.471819	28.200000
1641.348609	44.000000
1643.219601	24.000000
1645.093775	28.800000
1646.963951	23.000000
1648.837307	18.800000
1650.708460	36.400000
1652.577411	44.800000
1654.447748	23.200000
1656.314091	43.000000
1658.181820	34.400000
1660.047351	36.000000
1661.914266	30.600000
1663.777193	7.000000
1665.641505	42.200000
1667.503621	21.600000
1669.365333	52.400000
1671.228429	45.600000
1673.089331	49.400000
1674.948039	25.800000
1676.806344	24.800000
1678.666034	30.000000
1680.519957	15.400000
1682.377052	15.800000
1684.233745	17.600000
1686.086462	1.400000
1687.942349	22.000000
1689.794263	19.200000
1691.645776	46.600000
1693.496888	11.800000
1695.347600	37.400000
1697.197911	19.400000
1699.046038	37.800000
1700.895548	14.800000
1702.739310	13.000000
1704.588021	20.200000
1706.430987	27.200000
1708.277118	31.400000
1710.119288	34.000000
1711.964622	27.800000
1713.804216	38.800000
1715.645194	15.800000
1717.487555	17.000000
1719.325960	30.600000
1721.165748	39.000000
1723.003361	27.400000
1724.840578	23.400000
1726.675622	18.800000
1728.512049	28.800000
1730.346304	22.400000
1732.180164	24.200000
1734.013631	8.600000
1735.843151	26.400000
1737.675830	20.800000
1739.504565	38.200000
1741.336458	-1.800000
1743.164408	9.400000
1744.991966	-9.600000
1746.819132	-7.000000
1748.645907	32.400000
1750.472291	18.800000
1752.294738	14.600000
1754.120339	40.000000
1755.942006	-6.600000
1757.765055	12.600000
1759.585943	34.200000
1761.406441	37.400000
1763.228321	13.200000
1765.044501	16.200000
1766.863833	41.800000
1768.679238	18.400000
1770.497793	31.800000
1772.312423	38.800000
1774.126667	33.400000
1775.940523	35.000000
1777.753993	-9.800000
1779.565310	7.800000
1781.378008	37.000000
1783.190319	27.200000
1784.998713	17.000000
1786.808488	24.200000
1788.614347	28.600000
1790.423352	17.800000
1792.228444	36.000000
1794.034917	50.600000
1795.841006	26.200000
1797.643185	43.000000
1799.448507	49.400000
1801.249921	19.000000
1803.052715	3.800000
1804.851603	11.000000
1806.651872	30.800000
1808.451759	3.800000
1810.249505	12.000000
1812.046869	22.800000
1813.843854	43.400000
1815.640458	14.200000
1817.434923	46.200000
1819.230767	43.800000
1821.020957	30.000000
1822.816043	13.200000
1824.605476	40.800000
1826.398046	23.400000
1828.188481	10.200000
1829.976782	31.400000
1831.768218	0.200000
1833.554008	38.200000
1835.341178	28.000000
1837.126216	27.600000
1838.914388	39.200000
1840.698674	11.000000
1842.480831	10.400000
1844.264366	12.600000
1846.045773	31.000000
1847.828559	15.800000
1849.607465	31.400000
1851.387749	42.200000
1853.165907	13.600000
1854.945444	11.200000
1856.722856	31.800000
1858.498144	14.200000
1860.274811	11.400000
1862.049354	16.800000
1863.825276	17.000000
1865.595578	10.400000
1867.369006	11.800000
1869.140315	12.000000
1870.911254	6.400000
1872.683569	12.200000
1874.450272	27.000000
1876.220099	18.000000
1877.986063	15.800000
1879.755151	29.600000
1881.520377	6.400000
1883.285234	-13.200000
1885.051469	51.200000
1886.813845	20.800000
1888.575854	4.800000
1890.337495	35.000000
1892.098770	27.800000
1893.859677	24.000000
1895.620218	19.200000
1897.378649	6.000000
1899.136715	21.800000
1900.892672	39.600000
1902.650007	12.800000
1904.406975	15.600000
1906.161838	27.400000
1907.914595	11.200000
1909.666989	30.400000
1911.420758	26.200000
1913.172424	36.600000
1914.921988	19.400000
1916.672928	-6.800000
1918.423504	24.400000
1920.170241	29.200000
1921.918355	22.800000
1923.664369	26.400000
1925.411759	45.400000
1927.157050	21.600000
1928.900244	32.800000
1930.644814	26.600000
1932.387287	27.800000
1934.129400	35.000000
1935.871153	37.600000
1937.612547	40.600000
1939.351847	7.800000
1941.090787	28.800000
1942.829370	10.000000
1944.565860	10.200000
1946.301993	21.700000
1948.039500	33.200000
1949.773185	5.000000
1951.508245	5.800000
1953.241217	17.600000
1954.973832	22.600000
1956.706090	36.000000
1958.437992	15.400000
1960.167808	18.600000
1961.895540	33.200000
1963.624645	18.000000
1965.353396	32.000000
1967.080063	27.000000
1968.806376	11.600000
1970.534062	5.200000
1972.256212	-0.600000
1973.981463	7.200000
1975.702908	17.200000
1977.427452	30.200000
1979.149917	8.000000
1980.868578	5.200000
1982.590338	38.000000
1984.308296	-2.400000
1986.027627	18.000000
1987.743159	36.600000
1989.463512	6.400000
1991.180065	6.600000
1992.892823	28.000000
1994.608676	38.400000
1996.322456	19.000000
1998.035887	31.000000
1999.747247	31.600000
2001.459980	11.600000
2003.168921	29.000000
2004.880956	28.000000
2006.587481	17.600000
2008.297099	32.600000
2010.004649	14.800000
2011.711852	22.200000
2013.416989	24.000000
2015.121779	-6.600000
2016.827941	38.000000
2018.530321	11.000000
2020.234073	7.000000
2021.935761	47.800000
2023.637105	58.000000
2025.338103	22.000000
2027.037041	10.800000
2028.737349	19.200000
2030.433883	17.800000
2032.131788	3.000000
2033.827634	15.600000
2035.526566	24.000000
2037.220012	5.200000
2038.914830	22.800000
2040.609304	38.800000
2042.300010	21.400000
2043.993800	17.200000
2045.683823	24.600000
2047.375217	28.800000
2049.064558	18.400000
2050.755269	27.400000
2052.442218	4.400000
2054.128826	28.200000
2055.816805	21.600000
2057.501024	10.400000
2059.186613	32.400000
2060.871863	34.200000
2062.555065	27.600000
2064.239636	29.400000
2065.918745	23.800000
2067.602639	13.800000
2069.281073	36.400000
2070.962583	18.400000
2072.640343	20.400000
2074.317765	30.200000
2075.996558	9.800000
2077.673307	21.200000
2079.348015	25.200000
2081.024092	16.400000
2082.698129	24.000000
2084.371830	9.400000
2086.045196	-9.000000
2087.716524	22.800000
2089.387517	13.800000
2091.058176	38.600000
2092.728500	28.800000
2094.398491	26.400000
2096.066446	5.200000
2097.734068	27.000000
2099.399655	17.800000
2101.066612	21.400000
2102.731534	26.200000
2104.396125	15.800000
2106.058684	-3.600000
2107.722611	34.200000
2109.384508	27.200000
2111.046073	9.800000
2112.707307	44.400000
2114.366513	21.600000
2116.025388	18.800000
2117.683934	17.000000
2119.342150	4.200000
2120.996642	29.400000
2122.654199	12.400000
2124.311427	11.200000
2125.964933	11.000000
2127.619807	14.800000
2129.270963	30.200000
2130.925180	24.200000
2132.575681	26.800000
2134.227548	37.800000
2135.874007	31.200000
2137.525221	37.400000
2139.172721	27.800000
2140.821588	19.200000
2142.468437	11.200000
2144.114959	6.000000
2145.761156	31.600000
2147.403645	6.200000
2149.049192	34.800000
2150.691032	8.800000
2152.335929	35.200000
2153.977121	22.600000
2155.617989	4.800000
2157.258533	10.600000
2158.897065	51.600000
2160.536964	1.000000
2162.173162	5.400000
2163.810726	16.800000
2165.447967	23.600000
2167.083199	15.200000
2168.718110	29.000000
2170.352699	8.000000
2171.986966	15.200000
2173.617541	-2.200000
2175.251166	32.600000
2176.881100	4.000000
2178.512399	38.400000
2180.141694	3.400000
2181.770668	27.000000
2183.399324	17.800000
2185.027660	35.400000
2186.653993	20.400000
2188.280008	40.400000
2189.904022	14.200000
2191.529400	20.200000
2193.152779	22.200000
2194.777521	10.400000
2196.398583	34.600000
2198.019328	14.200000
2199.641438	16.800000
2201.261550	2.400000
2202.879665	13.400000
2204.497465	32.400000
2206.114950	-16.000000
2207.732119	39.000000
2209.348973	12.800000
2210.965512	-9.200000
2212.580057	21.600000
2214.192610	32.000000
2215.806527	18.400000
2217.418453	4.800000
2219.031742	25.800000
2220.643041	24.600000
2222.252350	31.000000
2223.863023	3.600000
2225.471707	14.800000
2227.080079	37.600000
2228.686463	32.600000
2230.294211	30.000000
2231.899972	19.200000
2233.505422	37.000000
2235.108887	41.600000
2236.713716	13.600000
2238.316560	23.600000
2239.917421	45.000000
2241.519645	-0.400000
2243.119886	31.800000
2244.721490	6.000000
2246.319442	15.000000
2247.918756	21.400000
2249.516090	35.000000
2251.113115	22.000000
2252.711503	37.400000
2254.306242	22.200000
2255.899004	24.000000
2257.493129	34.200000
2259.088615	13.200000
2260.680457	37.000000
2262.271992	-5.600000
2263.864888	42.200000
2265.452475	25.400000
2267.044759	12.000000
2268.631735	16.600000
2270.221740	12.800000
2271.806440	23.800000
2273.395834	13.400000
2274.979925	21.600000
2276.565378	3.200000
2278.148861	8.800000
2279.735371	25.400000
2281.318247	43.600000
2282.900819	13.600000
2284.483088	26.800000
2286.061728	1.400000
2287.643391	26.200000
2289.221426	37.200000
2290.802484	22.200000
2292.379916	15.100000
2293.955383	8.000000
2295.533873	11.800000
2297.108739	21.200000
2298.683304	23.400000
2300.257569	22.200000
2301.831533	35.600000
2303.405197	9.800000
2304.978560	25.000000
2306.548305	14.000000
2308.117751	36.000000
2309.690216	22.200000
2311.257405	40.200000
2312.827613	14.800000
2314.394206	35.000000
2315.962159	14.200000
2317.528156	13.600000
2319.093856	6.800000
2320.659259	24.600000
2322.222707	7.600000
2323.787515	30.800000
2325.348715	19.000000
2326.912929	4.600000
2328.471882	69.000000
2330.033848	46.800000
2331.593864	30.600000
2333.153584	24.600000
2334.711355	10.200000
2336.268831	27.200000
2337.826013	37.800000
2339.381248	24.400000
2340.936188	20.200000
2342.490835	37.000000
2344.045188	14.200000
2345.599247	28.600000
2347.153012	30.600000
2348.704834	-3.600000
2350.254712	23.400000
2351.807598	16.800000
2353.355242	16.000000
2354.905893	48.400000
2356.452954	41.800000
2358.001372	15.600000
2359.549498	2.200000
2361.094036	17.000000
2362.639933	19.200000
2364.183890	20.600000
2365.729205	37.400000
2367.270935	26.400000
2368.814022	33.200000
2370.355174	5.000000
2371.896036	31.800000
2373.436609	4.200000
2374.976893	29.200000
2376.516887	26.000000
2378.053304	10.000000
2379.592722	5.600000
2381.128563	26.600000
2382.665760	26.600000
2384.199382	3.000000
2385.736005	19.000000
2387.270696	28.200000
2388.803458	13.000000
2390.335933	9.200000
2391.866481	42.400000
2393.400026	26.400000
2394.928360	28.400000
2396.458050	17.400000
2397.987455	38.800000
2399.516574	22.200000
2401.045409	46.400000
2402.569038	36.800000
2404.097304	42.000000
2405.620366	27.600000
2407.148062	31.400000
2408.668919	1.200000
2410.194409	41.800000
2411.716338	16.400000
2413.239623	26.800000
2414.760987	30.000000
2416.280431	42.600000
2417.801230	33.200000
2419.320110	51.600000
2420.838708	43.800000
2422.355389	24.800000
2423.873424	28.000000
2425.391178	23.000000
2426.905381	12.000000
2428.419303	21.600000
2429.932945	5.200000
2431.447942	7.200000
2432.959390	22.000000
2434.472193	30.200000
2435.983083	5.000000
2437.493693	7.000000
2439.002392	22.200000
2440.514078	34.200000
2442.022219	12.200000
2443.530083	27.800000
2445.037669	26.800000
2446.541714	32.000000
2448.048745	13.600000
2449.553867	21.400000
2451.058712	19.800000
2452.561650	24.800000
2454.064311	9.800000
2455.566696	43.200000
2457.067176	18.600000
2458.569009	21.600000
2460.068938	11.800000
2461.568591	25.600000
2463.067968	28.800000
2464.565443	29.200000
2466.061017	26.600000
2467.559570	12.200000
2469.054594	2.400000
2470.550972	48.200000
2472.043823	37.000000
2473.538026	16.000000
2475.031956	32.600000
2476.522363	24.800000
2478.015746	32.800000
2479.507232	27.800000
2480.996821	42.000000
2482.486138	30.200000
2483.973560	21.600000
2485.463957	17.600000
2486.950835	22.200000
2488.439065	32.600000
2489.923779	16.400000
2491.408222	37.000000
2492.894017	49.600000
2494.377919	15.400000
2495.863173	31.400000
2497.343293	17.400000
2498.826385	17.200000
2500.307587	1.800000
2501.788520	16.600000
2503.267564	29.600000
2504.746339	45.000000
2506.224846	9.600000
2507.703085	27.400000
2509.181055	-10.600000
2510.655521	23.000000
2512.132955	14.400000
2513.606886	40.600000
2515.082168	-5.000000
2516.557182	14.000000
2518.028695	20.400000
2519.501558	17.000000
2520.972539	21.000000
2522.444870	15.800000
2523.912088	11.600000
2525.382271	16.000000
2526.850574	23.800000
2528.318612	3.000000
2529.786385	11.000000
2531.253893	19.600000
2532.721136	22.800000
2534.184887	35.000000
2535.649988	24.000000
2537.113212	10.600000
2538.577786	40.600000
2540.038870	13.200000
2541.501304	18.800000
2542.963475	29.600000
2544.422160	16.600000
2545.885417	37.800000
2547.343577	27.200000
2548.803086	11.800000
2550.257502	18.600000
2551.716487	31.000000
2553.173601	17.400000
2554.628844	21.200000
2556.083826	29.400000
2557.536938	14.400000
2558.991399	6.000000
2560.443991	45.200000
2561.896323	5.000000
2563.346787	36.400000
2564.800207	25.800000
2566.248545	19.400000
2567.699839	39.200000
2569.149266	30.800000
2570.595221	33.600000
2572.044132	29.000000
2573.489571	22.200000
2574.936359	14.000000
2576.381283	27.000000
2577.825950	37.600000
2579.271964	24.800000
2580.714511	59.000000
2582.158406	40.000000
2583.598836	30.400000
2585.040613	14.800000
2586.480531	42.400000
2587.921796	20.800000
2589.359600	19.200000
2590.800353	27.600000
2592.236043	11.200000
2593.674683	13.400000
2595.111466	0.600000
2596.546392	22.200000
2597.984267	22.600000
2599.417083	28.800000
2600.851247	19.600000
2602.283557	17.000000
2603.717213	29.600000
2605.149016	15.000000
2606.580566	11.400000
2608.011862	16.400000
2609.441306	39.200000
2610.870499	45.200000
2612.297840	28.200000
2613.726528	14.000000
2615.154963	39.800000
2616.579951	30.600000
2618.006286	25.400000
2619.430772	45.600000
2620.856604	31.000000
2622.278992	19.600000
2623.702726	33.000000
2625.124613	11.000000
2626.546251	33.600000
2627.966043	33.000000
2629.387181	35.800000
2630.808069	25.800000
2632.225519	40.800000
2633.645908	27.600000
2635.062860	52.200000
2636.479564	49.000000
2637.896019	44.600000
2639.312226	34.400000
2640.728184	60.800000
2642.142302	46.200000
2643.556173	42.000000
2644.968204	53.200000
2646.381580	48.000000
2647.791526	36.000000
2649.204407	26.000000
2650.613861	21.400000
2652.023068	49.400000
2653.430439	39.000000
2654.840744	51.600000
2656.249213	57.200000
2657.655847	53.800000
2659.062236	46.800000
2660.466791	57.000000
2661.872690	33.000000
2663.276756	57.600000
2664.680578	61.000000
2666.084155	51.800000
2667.485900	50.200000
2668.888989	74.400000
2670.288661	72.200000
2671.689675	65.600000
2673.087274	41.600000
2674.487803	25.000000
2675.884917	60.800000
2677.283374	28.000000
2678.680003	55.600000
2680.076390	56.200000
2681.472536	42.200000
2682.866855	60.400000
2684.262517	66.200000
2685.654769	46.800000
2687.048365	33.000000
2688.440136	47.400000
2689.833249	48.000000
2691.224539	57.600000
2692.614006	88.000000
2694.003233	58.600000
2695.392221	54.800000
2696.782551	44.600000
2698.167896	49.400000
2699.556165	53.200000
2700.942614	36.400000
2702.328824	52.400000
2703.714796	45.200000
2705.097368	53.400000
2706.481283	22.800000
2707.864960	53.400000
2709.248399	32.600000
2710.628442	43.600000
2712.009827	39.400000
2713.389396	48.200000
2714.770307	61.600000
2716.149403	59.600000
2717.526684	54.600000
2718.905307	46.200000
2720.282117	42.000000
2721.658691	49.200000
2723.035029	43.000000
2724.409555	53.600000
2725.785422	17.200000
2727.157902	21.200000
2728.533298	34.400000
2729.903734	15.400000
2731.275511	4.600000
2732.647053	18.000000
2734.016787	30.800000
2735.387862	36.400000
2736.757129	30.000000
2738.126162	17.200000
2739.493388	26.800000
2740.860382	42.200000
2742.227143	24.400000
2743.593671	33.000000
2744.958394	37.600000
2746.322886	36.800000
2747.687145	47.200000
2749.051172	31.200000
2750.414968	40.000000
2751.775390	34.800000
2753.138723	9.600000
2754.497113	27.400000
2755.858413	-6.000000
2757.216342	9.200000
2758.577181	52.800000
2759.936219	11.200000
2761.291889	19.800000
2762.650467	17.400000
2764.005679	25.800000
2765.360661	25.600000
2766.713846	10.400000
2768.069938	37.400000
2769.422666	1.600000
2770.775165	2.000000
2772.127436	25.600000
2773.481046	3.600000
2774.831294	16.600000
2776.179749	23.800000
2777.531108	39.800000
2778.879108	32.600000
2780.228447	32.800000
2781.575993	45.000000
2782.923312	40.400000
2784.270405	17.200000
2785.615707	21.200000
2786.960783	45.800000
2788.305633	27.000000
2789.650256	14.200000
2790.991528	36.600000
2792.334138	-5.200000
2793.676522	-5.800000
2795.018682	26.800000
2796.357492	23.800000
2797.699201	13.400000
2799.037563	16.000000
2800.377262	20.600000
2801.715175	23.400000
2803.051304	23.000000
2804.387209	19.800000
2805.724452	8.400000
2807.059911	16.200000
2808.395147	27.000000
2809.728600	18.600000
2811.063391	29.000000
2812.394840	4.600000
2813.729185	2.200000
2815.058632	25.800000
2816.389416	35.600000
2817.719978	11.800000
2819.048761	28.800000
2820.378880	9.200000
2821.707221	18.800000
2823.035341	1.200000
2824.361684	6.400000
2825.689362	40.600000
2827.013708	20.600000
2828.339389	28.000000
2829.663295	25.800000
2830.986982	5.600000
2832.312004	10.400000
2833.633696	17.200000
2834.955170	12.400000
2836.276425	31.600000
2837.597461	17.400000
2838.916725	19.000000
2840.237324	-3.000000
2841.556151	28.800000
2842.874760	24.200000
2844.191598	16.800000
2845.508220	30.800000
2846.824623	4.000000
2848.139258	18.400000
2849.455227	15.200000
2850.767876	-0.800000
2852.081861	23.600000
2853.395628	11.400000
2854.709180	9.400000
2856.020964	28.400000
2857.330982	42.800000
2858.642335	24.600000
2859.950373	11.800000
2861.259746	4.600000
2862.568903	8.200000
2863.877845	21.400000
2865.185024	20.800000
2866.490439	12.800000
2867.797189	31.400000
2869.102176	15.200000
2870.406950	18.600000
2871.709962	0.600000
2873.015856	19.800000
2874.316894	-0.200000
2875.619267	18.600000
2876.919880	34.600000
2878.221827	6.800000
2879.523561	33.800000
2880.821990	18.000000
2882.121754	30.400000
2883.419759	15.400000
2884.717553	13.800000
2886.013591	18.600000
2887.310962	36.200000
2888.606577	30.600000
2889.901981	18.400000
2891.197175	34.400000
2892.489070	16.600000
2893.783842	1.000000
2895.075317	21.600000
2896.368125	34.000000
2897.660723	40.600000
2898.950027	19.800000
2900.240663	23.800000
2901.529548	17.800000
2902.819766	10.600000
2904.106692	20.400000
2905.394950	31.400000
2906.681458	17.000000
2907.967759	33.400000
2909.253851	3.000000
2910.538195	4.200000
2911.825411	37.200000
2913.107799	42.000000
2914.391520	39.000000
2915.673495	20.600000
2916.955263	33.200000
2918.235285	14.400000
2919.518177	3.800000
2920.799324	0.600000
2922.077189	17.400000
2923.357923	20.200000
2924.635376	12.600000
2925.912623	-2.600000
2927.188129	12.600000
2928.466502	28.800000
2929.740060	32.400000
2931.016486	6.200000
2932.291171	37.000000
2933.564116	37.000000
2934.838391	6.800000
2936.110927	13.200000
2937.383259	21.200000
2938.652317	21.400000
2939.924241	27.800000
2941.194427	19.200000
2942.464410	15.600000
2943.734189	8.800000
2945.002231	-2.800000
2946.268538	12.800000
2947.534642	30.400000
2948.802076	30.400000
2950.067776	26.600000
2951.333273	6.600000
2952.598568	20.000000
2953.860598	4.600000
2955.123959	7.600000
2956.387117	11.600000
2957.648544	20.600000
2958.911300	8.600000
2960.172325	26.600000
2961.431618	10.000000
2962.690712	31.400000
2963.949605	7.600000
2965.208298	14.600000
2966.466791	16.000000
2967.723555	5.000000
2968.980119	8.600000
2970.234956	35.000000
2971.491122	14.400000
2972.744032	13.200000
2973.998272	12.600000
2975.252313	25.200000
2976.504628	-0.600000
2977.756745	8.200000
2979.007137	34.400000
2980.260384	25.600000
2981.508854	15.400000
2982.760178	2.200000
2984.008254	15.800000
2985.256132	24.000000
2986.503813	16.000000
2987.751298	24.600000
2988.997061	1.600000
2990.242627	23.200000
2991.489521	-3.600000
2992.733171	20.200000
2993.978149	29.600000
2995.219884	15.800000
2996.464470	13.800000
2997.707336	13.400000
2998.946962	10.000000
3000.189438	44.600000
3001.428675	11.400000
3002.669239	14.000000
3003.908086	20.800000
3005.146739	19.200000
3006.383676	13.800000
3007.621940	3.400000
3008.858490	0.200000
3010.094845	11.400000
3011.331007	34.400000
3012.565456	5.800000
3013.799711	16.000000
3015.033773	25.200000
3016.266123	15.400000
3017.496761	2.400000
3018.730245	-1.200000
3019.962017	16.200000
3021.192079	38.200000
3022.421949	11.400000
3023.650109	23.000000
3024.879595	32.200000
3026.107373	44.800000
3027.334959	22.000000
3028.563871	18.600000
3029.788041	16.000000
3031.015054	9.600000
3032.238843	6.600000
3033.463959	19.600000
3034.687368	11.000000
3035.910588	15.200000
3037.132102	7.600000
3038.356457	28.400000
3039.576077	14.800000
3040.797022	3.200000
3042.017779	6.400000
3043.236832	5.800000
3044.457211	20.000000
3045.674373	36.200000
3046.892860	13.200000
3048.109646	8.400000
3049.326243	22.600000
3050.542652	-20.600000
3051.755849	16.000000
3052.971883	22.800000
3054.184705	20.600000
3055.400364	1.000000
3056.611300	20.800000
3057.823561	-18.600000
3059.035636	14.000000
3060.247524	6.200000
3061.457714	0.600000
3062.667718	4.400000
3063.877537	-6.400000
3065.085659	31.600000
3066.293595	9.200000
3067.499837	21.000000
3068.707402	19.200000
3069.913274	23.800000
3071.118960	28.400000
3072.324461	-14.000000
3073.528269	12.600000
3074.733401	11.400000
3075.936841	12.800000
3077.138588	34.800000
3078.340152	6.800000
3079.541532	1.600000
3080.742728	20.400000
3081.942234	-0.400000
3083.141556	-5.200000
3084.342202	5.400000
3085.541158	-7.000000
3086.736920	18.800000
3087.935511	10.400000
3089.130908	-18.600000
3090.327628	5.400000
3091.521156	12.800000
3092.717513	6.800000
3093.912182	24.400000
3095.103661	26.000000
3096.299471	39.000000
3097.490588	14.600000
3098.683027	25.400000
3099.872279	14.200000
3101.064357	15.600000
3102.254750	0.400000
3103.441958	25.200000
3104.630489	30.600000
3105.820342	11.400000
3107.007010	28.000000
3108.193499	7.000000
3109.379808	5.200000
3110.567439	14.000000
3111.751889	17.000000
3112.934658	1.400000
3114.120251	18.600000
3115.304163	13.800000
3116.486397	24.200000
3117.668452	17.800000
3118.850330	31.000000
3120.032029	24.800000
3121.212050	2.800000
3122.390395	-2.000000
3123.571561	11.800000
3124.749551	17.200000
3125.927364	28.000000
3127.105000	16.000000
3128.280961	23.400000
3129.456745	8.800000
3130.633851	19.800000
3131.809282	12.800000
3132.983040	8.000000
3134.155126	18.200000
3135.328532	3.800000
3136.501763	13.400000
3137.673321	23.200000
3138.846201	28.400000
3140.015913	50.200000
3141.186946	15.800000
3142.356308	52.400000
3143.524001	28.600000
3144.694509	14.400000
3145.860358	-2.400000
3147.030517	0.600000
3148.196018	3.200000
3149.361346	-9.000000
3150.526500	19.800000
3151.691480	-16.800000
3152.857781	-7.200000
3154.019428	15.800000
3155.182396	15.800000
3156.345190	29.000000
3157.507812	16.400000
3158.668769	11.200000
3159.829553	8.600000
3160.990165	0.600000
3162.149114	34.800000
3163.307890	8.600000
3164.466495	14.400000
3165.624928	18.800000
3166.783189	26.000000
3167.939788	14.400000
3169.094726	18.200000
3170.250983	8.200000
3171.405580	15.000000
3172.560005	13.600000
3173.712771	17.800000
3174.865367	20.600000
3176.017792	7.800000
3177.170048	16.800000
3178.322134	1.200000
3179.471073	-4.400000
3180.622819	12.000000
3181.772907	16.600000
3182.921339	14.400000
3184.069602	8.600000
3185.217695	23.400000
3186.365620	29.800000
3187.511890	21.000000
3188.657991	33.200000
3189.802437	16.800000
3190.946716	-1.200000
3192.090827	9.200000
3193.236256	30.400000
3194.378545	23.200000
3195.520668	24.600000
3196.662623	10.400000
3197.804412	20.600000
3198.946033	35.000000
3200.084518	27.200000
3201.224321	24.000000
3202.365442	32.200000
3203.503428	24.800000
3204.639765	27.800000
3205.775936	0.600000
3206.913425	1.400000
3208.049264	-9.400000
3209.186421	16.200000
3210.318965	37.800000
3211.455791	18.200000
3212.588005	-3.400000
3213.721537	13.000000
3214.854903	37.600000
3215.985142	-2.200000
3217.118179	33.000000
3218.248090	3.600000
3219.379318	0.200000
3220.507420	9.000000
3221.638319	7.000000
3222.767575	9.000000
3223.895186	19.000000
3225.019676	3.600000
3226.148441	20.400000
3227.274084	-8.400000
3228.399564	-9.000000
3229.523403	-1.800000
3230.650036	5.400000
3231.772072	25.000000
3232.895424	8.600000
3234.018614	26.000000
3235.141642	7.400000
3236.263030	7.200000
3237.384257	13.800000
3238.503845	0.400000
3239.623272	-4.000000
3240.741061	11.200000
3241.861643	-2.200000
3242.979110	32.800000
3244.096418	13.000000
3245.213564	4.400000
3246.329075	29.600000
3247.445901	22.800000
3248.559616	7.400000
3249.676122	1.800000
3250.790992	15.200000
3251.902754	17.400000
3253.014357	-2.000000
3254.127274	22.200000
3255.240033	12.800000
3256.349685	16.000000
3257.460652	27.400000
3258.571459	7.800000
3259.680636	21.400000
3260.788181	4.200000
3261.897041	20.800000
3263.005742	19.400000
3264.111341	-15.000000
3265.218254	12.600000
3266.323539	-7.200000
3267.430137	10.000000
3268.533635	23.600000
3269.638447	30.200000
3270.743102	13.800000
3271.844658	25.800000
3272.946059	1.600000
3274.048773	23.800000
3275.151330	2.200000
3276.250792	20.000000
3277.353036	16.000000
3278.452185	25.000000
3279.549710	9.600000
3280.647079	-0.400000
3281.747231	41.000000
3282.844289	9.000000
3283.941192	-4.000000
3285.037941	5.200000
3286.130130	9.200000
3287.226568	-10.000000
3288.321385	41.800000
3289.416046	12.600000
3290.509086	-14.800000
3291.601972	7.800000
3292.693237	11.600000
3293.785815	33.000000
3294.876772	34.400000
3295.966110	4.200000
3297.055295	23.600000
3298.145793	17.200000
3299.233206	15.400000
3300.320467	-7.200000
3301.409040	-15.600000
3302.497460	24.800000
3303.581333	15.400000
3304.669448	15.200000
3305.754482	5.000000
3306.837899	18.600000
3307.922629	2.600000
3309.005744	-4.200000
3310.090170	26.000000
3311.171518	7.600000
3312.254178	12.000000
3313.335224	7.800000
3314.416119	26.600000
3315.495401	27.200000
3316.574532	9.600000
3317.654974	5.000000
3318.732343	10.000000
3319.811022	-8.200000
3320.888091	-8.800000
3321.965009	9.600000
3323.040316	4.600000
3324.115474	-6.800000
3325.191943	11.000000
3326.265342	3.800000
3327.338592	12.000000
3328.413153	4.800000
3329.486104	-1.200000
3330.557448	26.000000
3331.630102	-3.600000
3332.699689	16.800000
3333.770587	28.000000
3334.839878	17.000000
3335.910480	-10.000000
3336.979475	22.600000
3338.046864	7.600000
3339.112648	11.600000
3340.182658	17.200000
3341.249605	7.200000
3342.313490	27.800000
3343.380143	6.200000
3344.445191	14.400000
3345.508636	7.600000
3346.571935	-13.000000
3347.635088	12.800000
3348.698094	3.200000
3349.760953	24.800000
3350.822211	19.000000
3351.880412	9.800000
3352.942834	26.800000
3354.002199	2.800000
3355.061419	16.200000
3356.121949	-2.800000
3357.177969	4.200000
3358.236754	35.400000
3359.291031	7.000000
3360.348071	4.600000
3361.403514	14.400000
3362.460265	14.800000
3363.515419	18.400000
3364.568975	25.600000
3365.620934	21.600000
3366.675655	1.800000
3367.727327	5.800000
3368.778856	7.400000
3369.831694	22.200000
3370.881484	-10.000000
3371.932582	0.200000
3372.980635	5.400000
3374.031448	9.200000
3375.079215	13.400000
3376.126840	27.800000
3377.174322	30.200000
3378.220212	-4.600000
3379.267410	7.600000
3380.311566	11.600000
3381.358480	3.200000
3382.403802	16.000000
3383.446084	-10.000000
3384.488224	20.800000
3385.531672	13.400000
3386.574980	15.200000
3387.616697	25.200000
3388.658273	29.000000
3389.699709	-0.600000
3390.739555	13.200000
3391.777814	20.600000
3392.817380	29.400000
3393.856805	12.200000
3394.894643	13.000000
3395.930895	3.600000
3396.967006	7.000000
3398.004425	12.400000
3399.038811	1.800000
3400.074504	11.400000
3401.110058	-0.600000
3402.142581	16.600000
3403.177857	18.800000
3404.210102	27.400000
3405.242209	16.600000
3406.272732	-4.800000
3407.304563	3.000000
3408.336254	-2.200000
3409.364919	-7.400000
3410.393445	20.400000
3411.423279	16.600000
3412.452974	3.800000
3413.479644	5.400000
3414.507621	21.200000
3415.532573	6.600000
3416.560275	22.200000
3417.584954	12.600000
3418.610939	15.000000
3419.635344	15.400000
3420.659613	15.400000
3421.682303	-1.200000
3422.704857	11.200000
3423.728717	6.400000
3424.749557	2.400000
3425.770262	6.400000
3426.792272	3.600000
3427.811264	-12.200000
3428.830121	10.400000
3429.850283	3.000000
3430.867429	26.400000
