-118.155753	-6.371978
-115.486152	-4.160440
-112.819487	-1.926573
-110.153575	0.196404
-107.490594	2.075275
-104.826183	3.576823
-102.164703	4.567832
-99.501794	5.406993
-96.843992	0.483916
-94.184759	0.938462
-91.526275	0.216783
-88.870716	0.565035
-86.213728	2.869930
-83.561837	5.134266
-80.908517	6.447552
-78.258117	8.587413
-75.606287	6.812587
-72.959548	4.657343
-70.311379	5.290909
-67.663954	2.015385
-65.019442	1.058741
-62.373501	1.882517
-59.732643	2.693706
-57.090354	2.892308
-54.450975	6.062937
-51.810167	4.815385
-49.170098	5.815385
-46.535103	5.454545
-43.898678	3.430769
-41.265157	1.539860
-38.630206	2.369231
-36.000322	0.318881
-33.366844	2.183217
-30.738429	1.195804
-28.110748	2.613986
-25.481639	4.141259
-22.857586	-1.309091
-20.229944	-23.033566
-17.607355	-75.655944
-14.985497	-50.829371
-12.364370	109.153846
-9.743974	342.121678
-7.126465	530.398601
-4.507528	656.855944
-1.891477	723.562238
0.723846	729.739860
3.338442	673.475524
5.950156	556.011189
8.563297	379.549650
11.171405	166.749650
13.783095	-39.899301
16.389754	-106.209790
18.997841	-65.381818
21.605204	-7.644755
24.207542	-0.450350
26.813458	3.278322
29.414353	6.367832
32.016675	7.215385
34.613979	4.882517
37.214859	5.903497
39.810725	3.327273
42.408018	4.327273
45.004592	3.132867
47.596157	6.360839
50.189150	0.318881
52.779282	-1.597203
55.370842	-5.658741
57.959542	-4.441958
60.549670	-5.523077
63.134798	-4.486713
65.721354	-3.653147
68.307195	-0.206993
70.890183	-1.969231
73.474598	-2.062937
76.051883	-1.348252
78.632735	3.427972
81.210738	2.951049
83.788031	5.618182
86.366750	2.913287
88.940488	4.979021
91.515652	3.123077
94.087973	1.646154
96.659587	-0.391608
99.228360	-4.520280
101.798560	-8.496503
104.365921	-9.787413
106.934709	-7.194406
109.500659	-1.447552
112.063775	0.730070
114.630448	6.412587
117.187898	5.749650
119.751034	10.812587
122.309211	10.092308
124.870942	9.868531
127.427716	12.148252
129.985916	15.832168
132.539164	23.474126
135.091713	35.544056
137.647814	48.499301
140.198966	62.369231
142.749420	77.527273
145.299178	94.309091
147.846116	103.146853
150.392358	115.352448
152.940027	118.195804
155.486999	117.930070
158.029035	117.309091
160.570378	116.832168
163.111029	116.388811
165.653104	113.967832
168.192369	110.369231
170.728824	111.924476
173.264589	115.890909
175.801779	117.902098
178.338277	118.088112
180.871971	119.748252
183.402860	116.423776
185.933061	115.662937
188.464687	114.867133
190.993513	114.927273
193.519539	111.041958
196.044879	107.220979
198.571644	107.426573
201.095613	109.064336
203.618896	107.454545
206.141495	107.311888
208.661301	107.156643
211.180424	108.622378
213.698864	108.616783
216.218728	110.760839
218.731591	110.629371
221.247985	111.409790
223.763698	112.793007
226.274520	116.490909
228.786767	116.843357
231.296231	117.822378
233.805017	114.619580
236.313125	112.448951
238.822657	107.271329
241.327308	109.839161
243.831283	108.397203
246.336682	114.418182
248.837206	116.909091
251.341253	117.890909
253.838330	120.790210
256.338929	121.900699
258.836757	120.376224
261.333912	122.865734
263.830394	116.355245
266.322014	111.605594
268.817152	111.184615
271.309525	115.546853
273.801227	113.542657
276.290166	120.931469
278.780528	119.509091
281.268129	121.169231
283.752970	123.053147
286.241325	126.986014
288.722742	127.172028
291.207672	131.710490
293.687756	130.825175
296.171353	136.113287
298.650108	138.211189
301.130285	139.229371
303.607711	134.932867
306.084473	137.257343
308.560571	134.433566
311.033921	141.577622
313.506610	142.720280
315.978637	145.486713
318.450002	147.072727
320.918624	151.289510
323.386586	150.758042
325.855971	151.461538
328.320533	144.801399
330.788598	142.576224
333.251844	136.376224
335.714433	133.160839
338.176364	130.051748
340.637639	133.523077
343.096180	136.058741
345.556143	140.851748
348.013374	146.130070
350.469950	149.806993
352.925871	150.422378
355.379064	149.216783
357.833679	145.177622
360.283492	146.107692
362.736801	139.827972
365.185311	139.325874
367.633171	134.945455
370.082452	132.615385
372.526940	132.490909
374.972850	133.186014
377.418111	133.632168
379.860653	136.907692
382.302547	136.415385
384.743793	138.608392
387.182324	139.082517
389.622277	144.156643
392.059516	142.116084
394.494043	145.159441
396.932058	142.436364
399.365296	142.177622
401.799956	139.303497
404.229843	139.316084
406.663215	139.769231
409.091816	138.925874
411.519777	135.200000
413.949158	136.808392
416.373775	136.023776
418.799812	136.418182
421.225210	135.441958
423.649967	134.886713
426.069965	135.394406
428.491385	138.513287
430.910108	137.682517
433.330252	139.531469
435.747701	139.467133
438.166570	140.611189
440.582746	137.548252
442.994175	134.388811
445.409080	136.123077
447.821295	131.725874
450.232876	130.072727
452.643823	129.092308
455.052084	130.404196
457.459713	129.890909
459.866709	128.763636
462.273073	132.124476
464.676756	131.467133
467.079808	137.398601
469.482230	135.050350
471.884022	134.022378
474.283136	135.780420
476.683670	137.076923
479.083575	139.549650
481.478757	141.548252
483.877406	139.176224
486.271335	136.183217
488.664638	135.602797
491.057315	134.488112
493.449367	127.457343
495.842838	123.969231
498.231596	114.334266
500.617688	107.074126
503.005200	101.395804
505.392088	103.653147
507.776313	101.881119
510.161957	96.121678
512.544938	92.535664
514.925259	91.212587
517.306999	91.447552
519.686080	90.023776
522.066580	88.777622
524.444422	86.195804
526.819609	83.951049
529.194178	82.534266
531.570166	82.215385
533.943500	82.745455
536.318253	80.379021
538.688319	77.806993
541.057770	80.720280
543.428640	83.148252
545.794828	83.425175
548.162435	83.193007
550.527396	83.848951
552.891744	84.493706
555.255480	80.156643
557.620633	76.951049
559.981114	77.495105
562.343012	74.565035
564.702271	77.209790
567.058891	80.493706
569.418957	84.469930
571.772331	87.441958
574.129150	87.587413
576.483334	92.461538
578.836909	88.612587
581.189876	86.356643
583.540212	81.857343
585.891964	78.040559
588.237040	77.732867
590.587580	78.779021
592.931447	77.762238
595.280775	77.380420
597.625454	74.057343
599.967509	75.993007
602.310981	76.605594
604.651830	75.788811
606.992076	70.496503
609.329702	72.359441
611.670763	73.725874
614.007187	73.601399
616.345027	74.222378
618.680249	76.818182
621.012856	74.467133
623.346880	75.867133
625.678289	75.437762
628.009100	76.448951
630.339313	75.086713
632.668929	74.348252
634.993921	73.641958
637.324355	73.986014
639.650167	70.528671
641.973373	67.745455
644.297995	63.704895
646.620011	66.300699
648.941433	70.626573
651.260252	70.847552
653.580487	70.394406
655.900129	69.925874
658.217170	70.511888
660.533620	69.251748
662.847471	66.586014
665.162737	65.344056
667.475407	59.460140
669.789492	55.124476
672.098978	55.469930
674.409878	59.162238
676.718186	59.640559
679.025906	55.910490
681.335041	55.180420
683.639583	61.303497
685.943539	61.545455
688.246908	63.353846
690.551692	65.478322
692.851890	68.216783
695.153503	65.811189
697.454530	62.830769
699.750976	61.597203
702.048836	62.819580
704.346114	60.625175
706.642807	57.451748
708.934925	57.004196
711.230454	61.370629
713.521410	57.686713
715.813780	58.321678
718.103574	58.837762
720.392789	60.746853
722.681423	57.549650
724.967486	56.654545
727.254962	54.644755
729.539868	56.861538
731.824195	56.090909
734.105955	55.272727
736.389128	58.955245
738.671724	63.400000
740.949764	62.787413
743.229218	64.527273
745.508097	65.232168
747.786400	66.934266
750.060154	64.711888
752.335322	65.588811
754.609916	60.339860
756.881951	57.626573
759.155399	57.594406
761.426289	59.118881
763.694622	59.188811
765.964370	60.527273
768.231562	61.092308
770.498184	62.717483
772.764237	65.169231
775.027738	67.661538
777.292651	68.510490
779.556996	69.735664
781.816810	65.780420
784.078038	69.261538
786.338698	71.500699
788.596811	71.819580
790.852380	71.338462
793.111340	69.993007
795.363801	67.227972
797.621629	69.297902
799.874938	69.090909
802.125706	69.765035
804.377887	69.732867
806.627530	70.264336
808.878584	70.170629
811.125127	73.655944
813.373083	69.246154
815.618503	67.205594
817.865336	64.227972
820.111606	60.690909
822.353373	52.913287
824.598522	54.025175
826.837199	49.390210
829.079259	49.037762
831.316820	47.962238
833.555792	54.464336
835.792238	55.801399
838.030096	60.141259
840.265428	60.093706
842.498236	62.742657
844.732456	64.591608
846.964154	66.486713
849.195297	59.976224
851.425885	62.443357
853.655919	57.769231
855.885398	56.335664
858.110397	55.832168
860.338769	59.018182
862.562663	58.676923
864.787967	59.033566
867.008796	56.963636
869.232997	58.120280
871.452725	59.576224
873.673864	60.841958
875.894452	58.352448
878.112531	61.653147
880.332019	59.766434
882.547041	60.795804
884.761515	60.120280
886.975442	60.510490
889.188821	60.560839
891.401654	58.993007
893.613939	60.777622
895.823723	64.064336
898.032961	64.190210
900.241653	65.830769
902.447847	62.616783
904.655450	60.506294
906.860556	58.549650
909.065118	56.318881
911.267185	55.286713
913.470661	58.595804
915.671643	58.851748
917.872083	62.686713
920.073932	67.899301
922.269390	71.580420
924.468206	67.169231
926.662585	69.353846
928.860321	67.869930
931.053621	65.809790
933.248329	65.809790
935.440552	64.527273
937.632237	64.794406
939.823384	66.303497
942.012048	65.190210
944.200175	66.170629
946.385822	64.548252
948.574821	67.613986
950.759397	63.808392
952.943438	66.482517
955.130829	68.987413
957.309917	72.783217
959.492354	77.152448
961.674258	77.412587
963.853688	78.874126
966.030645	78.011189
968.209010	76.903497
970.388781	73.686713
972.562204	75.335664
974.738973	79.537063
976.911336	75.489510
979.085106	75.033566
981.254472	75.837762
983.427182	78.843357
985.597426	79.253147
987.767142	81.068531
989.936329	82.702098
992.101119	82.247552
994.269251	81.237762
996.432987	79.454545
998.598131	81.215385
1000.760815	81.988811
1002.922974	82.402797
1005.082675	82.394406
1007.241853	81.075524
1009.402437	81.948252
1011.560566	82.902098
1013.718171	86.448951
1015.875253	88.327273
1018.031812	90.875524
1020.183991	89.674126
1022.337577	90.030769
1024.490640	89.481119
1026.641256	92.521678
1028.793277	96.107692
1030.940925	94.616783
1033.091905	94.060140
1035.238515	97.405594
1037.384605	98.658741
1039.530177	98.419580
1041.677153	99.878322
1043.817842	99.439161
1045.961859	98.467133
1048.103437	99.387413
1050.244497	95.843357
1052.386962	97.286713
1054.523148	98.135664
1056.662660	97.837762
1058.797816	99.279720
1060.936297	102.482517
1063.070425	100.661538
1065.204039	100.730070
1067.339057	100.288112
1069.469726	97.349650
1071.601801	95.774825
1073.731445	97.117483
1075.860578	93.923077
1077.989200	93.746853
1080.117310	91.745455
1082.242994	91.855944
1084.368168	91.622378
1086.494745	92.665734
1088.616986	90.131469
1090.740631	92.015385
1092.859941	90.973427
1094.984480	89.832168
1097.102775	91.405594
1099.222473	93.492308
1101.339753	89.039161
1103.456527	88.216783
1105.572794	87.567832
1107.686646	85.293706
1109.801901	82.001399
1111.912834	80.716084
1114.027078	77.069930
1116.137003	79.679720
1118.248330	78.448951
1120.359154	79.745455
1122.465661	78.433566
1124.575477	80.986014
1126.680979	80.566434
1128.787885	84.012587
1130.888574	87.400000
1132.994476	86.216783
1135.096069	82.183217
1137.199065	86.209790
1139.301560	86.358042
1141.397849	86.820979
1143.499344	83.359441
1145.596537	85.586014
1147.693231	82.093706
1149.789428	83.372028
1151.885126	77.958042
1153.980327	73.427972
1156.073131	70.965035
1158.167337	69.868531
1160.255352	66.086713
1162.348565	70.429371
1164.435590	69.433566
1166.525915	68.246154
1168.611951	68.711888
1170.701285	69.956643
1172.784438	71.218182
1174.868994	70.514685
1176.954950	66.920280
1179.036625	67.769231
1181.119702	68.209790
1183.200393	73.767832
1185.280593	75.702098
1187.360301	81.069930
1189.439518	81.546853
1191.516352	84.062937
1193.590806	85.904895
1195.668552	83.026573
1197.742027	85.563636
1199.816904	83.993007
1201.887513	84.815385
1203.959523	87.609790
1206.029157	82.169231
1208.100192	80.229371
1210.170739	78.409790
1212.237025	78.186014
1214.304712	76.886713
1216.370027	81.321678
1218.436742	82.029371
1220.499201	79.793007
1222.564946	79.841958
1224.626436	80.868531
1226.689326	82.156643
1228.749849	84.088112
1230.809889	76.039161
1232.869445	77.060140
1234.926637	76.316084
1236.983346	76.476923
1239.037693	79.058741
1241.095320	83.534266
1243.150585	82.949650
1245.201609	81.177622
1247.254033	75.044755
1249.305978	74.120280
1251.355564	72.246154
1253.404671	73.555245
1255.453299	72.489510
1257.501449	75.738462
1259.549121	74.830769
1261.592562	77.341259
1263.639278	81.281119
1265.683642	83.083916
1267.727528	82.229371
1269.769064	84.076923
1271.808250	78.699301
1273.850708	76.482517
1275.888945	76.672727
1277.928579	79.413986
1279.967739	80.462937
1282.002681	80.800000
1284.039021	83.251748
1286.073016	86.290909
1288.108410	87.834965
1290.139590	94.565035
1292.172169	93.739860
1294.204275	100.114685
1296.234041	102.397203
1298.265205	104.011189
1300.292161	106.794406
1302.320515	109.874126
1304.344665	110.397203
1306.372080	115.972028
1308.395292	117.246154
1310.419902	119.250350
1312.442177	119.506294
1314.465850	123.071329
1316.487190	120.504895
1318.508063	129.843357
1320.528468	132.478322
1322.544679	133.328671
1324.562289	132.802797
1326.577570	136.738462
1328.596110	141.706294
1330.610460	148.159441
1332.622485	147.306294
1334.637768	149.516084
1336.648865	148.755245
1338.661358	147.349650
1340.669669	145.432168
1342.681236	145.825175
1344.686764	138.735664
1346.695546	132.269930
1348.700152	125.395804
1350.708011	122.395804
1352.715407	116.303497
1354.716773	110.412587
1356.719536	104.756643
1358.721839	104.232168
1360.723681	98.404196
1362.725065	95.065734
1364.724134	96.148252
1366.722745	97.046154
1368.720898	96.372028
1370.718593	94.532867
1372.712124	94.391608
1374.707052	95.097902
1376.701523	91.457343
1378.695537	88.558042
1380.687244	85.381818
1382.678495	85.935664
1384.667441	77.773427
1386.657782	75.043357
1388.647668	77.304895
1390.635251	79.706294
1392.622380	81.106294
1394.607207	84.660140
1396.593429	82.844755
1398.577350	87.577622
1400.560819	83.404196
1402.543836	80.089510
1404.524555	80.030769
1406.506668	81.020979
1408.486484	76.791608
1410.465850	72.855944
1412.441077	72.674126
1414.419542	76.400000
1416.395714	76.721678
1418.371436	80.965035
1420.346709	80.241958
1422.319691	86.338462
1424.292226	84.997203
1426.264312	84.745455
1428.235950	85.953846
1430.203461	85.201399
1432.176045	79.400000
1434.140823	76.213986
1436.110674	71.883916
1438.076400	74.973427
1440.043520	71.921678
1442.008356	76.142657
1443.969072	77.236364
1445.934856	80.104895
1447.894685	81.697902
1449.855907	81.181818
1451.818522	79.706294
1453.777022	77.864336
1455.735080	74.749650
1457.692695	77.427972
1459.649869	74.917483
1461.604767	76.899301
1463.561057	72.686713
1465.515073	74.544056
1467.468649	72.941259
1469.419952	77.285315
1471.372647	75.551049
1473.323071	79.509091
1475.273056	76.125874
1477.222601	79.206993
1479.169878	79.675524
1481.114888	78.674126
1483.061290	75.497902
1485.007254	74.794406
1486.952780	68.455944
1488.896042	72.788811
1490.838867	72.148252
1492.779429	72.383217
1494.721382	68.205594
1496.661074	72.290909
1498.600330	69.363636
1500.539152	73.040559
1502.475714	70.323077
1504.413666	68.455944
1506.349361	69.292308
1508.284622	71.714685
1510.217626	69.697902
1512.150198	74.846154
1514.082338	71.672727
1516.014046	73.537063
1517.943501	72.504895
1519.874345	70.006993
1521.804759	70.644755
1523.731100	73.730070
1525.658831	75.485315
1527.584312	81.117483
1529.509364	83.068531
1531.433987	87.090909
1533.358181	87.650350
1535.280128	92.820979
1537.203464	93.959441
1539.124555	98.591608
1541.043401	96.613986
1542.963637	96.892308
1544.881629	101.089510
1546.799195	110.500699
1548.714519	114.492308
1550.631233	117.384615
1552.543892	117.029371
1554.459755	116.917483
1556.373379	119.376224
1558.284764	120.282517
1560.197538	118.344056
1562.106263	121.860140
1564.016378	123.001399
1565.926069	127.976224
1567.835336	129.500699
1569.742370	131.897902
1571.647171	126.650350
1573.553361	124.406993
1575.457319	121.998601
1577.360857	118.229371
1579.263973	119.732867
1581.164861	113.314685
1583.067137	113.930070
1584.967184	117.381818
1586.868620	118.131469
1588.766021	122.257343
1590.663005	117.160839
1592.559570	112.338462
1594.457522	105.476923
1596.349640	105.556643
1598.244952	102.679720
1600.139845	98.865734
1602.032517	94.914685
1603.924773	93.679720
1605.814809	93.348252
1607.704429	96.117483
1609.593634	97.383217
1611.482423	96.676923
1613.368996	92.316084
1615.256955	95.523077
1617.140899	94.120280
1619.026229	97.555245
1620.911146	92.648951
1622.793849	89.426573
1624.677938	86.061538
1626.558017	86.330070
1628.439482	77.756643
1630.318737	76.854545
1632.199378	71.026573
1634.074215	68.233566
1635.954034	65.974825
1637.829847	67.910490
1639.705251	65.121678
1641.582040	67.250350
1643.453032	63.786014
1645.327206	65.216783
1647.197382	65.400000
1649.070738	68.465734
1650.941891	61.518881
1652.810842	65.467133
1654.681179	68.067133
1656.547522	70.180420
1658.415252	66.850350
1660.280782	63.774825
1662.147697	60.991608
1664.010624	62.977622
1665.874936	60.565035
1667.737053	64.032168
1669.598764	63.538462
1671.461860	65.303497
1673.322762	63.916084
1675.181470	72.413986
1677.039775	72.924476
1678.899465	69.537063
1680.753388	68.057343
1682.610483	63.125874
1684.467176	62.602797
1686.319893	59.727273
1688.175781	58.037762
1690.027695	54.633566
1691.879208	49.974825
1693.730320	52.323077
1695.581031	53.327273
1697.431342	59.062937
1699.279469	55.397203
1701.128979	56.338462
1702.972741	54.226573
1704.821453	54.120280
1706.664418	56.946853
1708.510549	55.338462
1710.352719	54.006993
1712.198053	53.668531
1714.037647	55.039161
1715.878625	56.309091
1717.720986	58.916084
1719.559391	64.744056
1721.399179	63.151049
1723.236792	65.626573
1725.074009	63.432168
1726.909053	66.776224
1728.745480	68.167832
1730.579735	70.104895
1732.413596	70.513287
1734.247062	70.857343
1736.076582	69.549650
1737.909261	68.292308
1739.737996	67.113287
1741.569889	67.569231
1743.397839	64.537063
1745.225397	64.730070
1747.052564	61.260140
1748.879338	58.106294
1750.705722	60.812587
1752.528169	64.306294
1754.353770	65.367832
1756.175437	67.467133
1757.998486	66.248951
1759.819374	66.878322
1761.639872	63.868531
1763.461752	65.220979
1765.277932	62.738462
1767.097264	62.823776
1768.912669	57.551049
1770.731225	54.483916
1772.545855	56.271329
1774.360098	56.441958
1776.173955	57.953846
1777.987425	59.567832
1779.798741	57.766434
1781.611439	61.481119
1783.423750	60.644755
1785.232144	63.892308
1787.041919	65.676923
1788.847778	67.783217
1790.656784	63.671329
1792.461876	64.037762
1794.268348	63.180420
1796.074437	63.520280
1797.876616	61.304895
1799.681938	63.402797
1801.483352	64.390210
1803.286146	64.128671
1805.085035	64.881119
1806.885303	68.551049
1808.685191	66.780420
1810.482936	68.874126
1812.280301	66.683916
1814.077285	67.689510
1815.873889	66.851748
1817.668354	69.572028
1819.464199	71.967832
1821.254388	72.457343
1823.049474	73.801399
1824.838907	72.600000
1826.631478	73.381818
1828.421913	71.069930
1830.210213	68.167832
1832.001649	68.172028
1833.787440	62.725874
1835.574609	61.551049
1837.359647	57.082517
1839.147819	59.116084
1840.932105	55.373427
1842.714262	55.734266
1844.497797	57.100699
1846.279205	59.138462
1848.061990	58.553846
1849.840896	60.285315
1851.621180	62.655944
1853.399339	64.499301
1855.178875	64.497902
1856.956287	65.258741
1858.731575	65.067133
1860.508242	67.995804
1862.282786	67.062937
1864.058707	73.302098
1865.829009	72.695105
1867.602438	75.233566
1869.373747	68.267133
1871.144685	70.702098
1872.917000	68.816783
1874.683703	70.220979
1876.453530	66.241958
1878.219494	63.490909
1879.988582	61.061538
1881.753808	56.767832
1883.518666	54.546853
1885.284900	54.023776
1887.047276	50.125874
1888.809285	47.513287
1890.570927	44.868531
1892.332201	51.723077
1894.093109	53.451748
1895.853649	55.988811
1897.612080	54.702098
1899.370146	58.906294
1901.126104	60.920280
1902.883438	61.939860
1904.640406	62.704895
1906.395269	61.783217
1908.148026	61.669930
1909.900420	62.097902
1911.654190	64.676923
1913.405856	64.553846
1915.155419	59.956643
1916.906359	54.969231
1918.656935	51.204196
1920.403673	56.390210
1922.151786	54.924476
1923.897800	51.836364
1925.645190	50.079720
1927.390481	50.819580
1929.133675	52.324476
1930.878245	52.018182
1932.620718	51.627972
1934.362831	50.179021
1936.104585	48.808392
1937.845978	47.995804
1939.585278	46.542657
1941.324219	50.469930
1943.062801	49.518881
1944.799291	53.485315
1946.535424	56.876923
1948.272931	64.644755
1950.006617	64.132867
1951.741677	64.462937
1953.474648	62.572028
1955.207263	66.774825
1956.939521	64.535664
1958.671423	62.488112
1960.401239	57.683916
1962.128971	52.281119
1963.858077	51.882517
1965.586827	54.120280
1967.313494	56.667133
1969.039807	57.089510
1970.767493	53.297902
1972.489643	50.720280
1974.214895	50.594406
1975.936339	54.517483
1977.660883	53.174825
1979.383348	57.808392
1981.102009	57.990210
1982.823769	57.254545
1984.541727	62.009790
1986.261059	65.434965
1987.976590	67.911888
1989.696943	66.907692
1991.413496	61.297902
1993.126254	55.334266
1994.842107	51.868531
1996.555888	53.209790
1998.269318	54.741259
1999.980678	57.802797
2001.693411	61.942657
2003.402352	64.104895
2005.114387	68.808392
2006.820912	74.433566
2008.530530	75.751049
2010.238080	75.450350
2011.945283	70.419580
2013.650420	68.921678
2015.355210	63.324476
2017.061372	65.909091
2018.763752	66.423776
2020.467504	66.366434
2022.169193	66.072727
2023.870536	67.952448
2025.571534	68.430769
2027.270472	70.974825
2028.970781	71.180420
2030.667314	69.820979
2032.365219	67.193007
2034.061066	68.766434
2035.759998	65.076923
2037.453444	62.405594
2039.148261	62.226573
2040.842735	64.400000
2042.533441	63.934266
2044.227231	68.867133
2045.917254	67.288112
2047.608648	72.125874
2049.297989	72.223776
2050.988700	71.132867
2052.675649	66.878322
2054.362257	65.675524
2056.050236	56.934266
2057.734455	48.788811
2059.420044	50.076923
2061.105294	52.467133
2062.788496	54.626573
2064.473068	55.457343
2066.152176	55.913287
2067.836070	61.579021
2069.514504	62.475524
2071.196015	61.542657
2072.873774	60.044755
2074.551197	58.593007
2076.229989	54.394406
2077.906738	51.839161
2079.581446	54.862937
2081.257523	55.758042
2082.931560	55.956643
2084.605261	53.692308
2086.278627	54.137063
2087.949955	58.565035
2089.620948	56.430769
2091.291607	55.693706
2092.961932	57.082517
2094.631922	58.043357
2096.299877	58.264336
2097.967499	60.700699
2099.633087	61.745455
2101.300043	64.565035
2102.964966	62.427972
2104.629556	63.935664
2106.292115	59.208392
2107.956043	57.516084
2109.617939	55.646154
2111.279504	56.110490
2112.940739	54.784615
2114.599944	55.762238
2116.258820	57.542657
2117.917365	59.289510
2119.575581	57.689510
2121.230074	61.295105
2122.887631	58.560839
2124.544858	60.965035
2126.198365	52.763636
2127.853239	55.454545
2129.504394	56.819580
2131.158612	59.451748
2132.809112	60.209790
2134.460980	60.330070
2136.107439	63.953846
2137.758652	63.930070
2139.406153	61.511888
2141.055020	65.525874
2142.701868	67.479720
2144.348391	68.510490
2145.994588	65.576224
2147.637076	69.633566
2149.282623	68.239161
2150.924463	70.979021
2152.569360	67.471329
2154.210552	63.200000
2155.851420	62.864336
2157.491965	62.993007
2159.130497	61.777622
2160.770395	64.748252
2162.406593	64.134266
2164.044157	68.086713
2165.681399	67.700699
2167.316631	70.088112
2168.951541	72.039161
2170.586130	71.690909
2172.220398	69.937063
2173.850972	71.914685
2175.484597	72.991608
2177.114531	72.012587
2178.745830	70.229371
2180.375125	69.721678
2182.004099	66.187413
2183.632755	65.089510
2185.261091	61.127273
2186.887424	59.927273
2188.513439	59.034965
2190.137453	59.130070
2191.762832	62.758042
2193.386210	68.474126
2195.010953	65.464336
2196.632014	65.188811
2198.252760	65.197203
2199.874869	63.751049
2201.494981	60.037762
2203.113097	56.036364
2204.730897	54.763636
2206.348381	55.412587
2207.965550	54.867133
2209.582404	57.823776
2211.198943	61.972028
2212.813488	65.682517
2214.426042	62.784615
2216.039959	61.497902
2217.651884	58.065734
2219.265174	58.025175
2220.876472	55.142657
2222.485782	55.562238
2224.096454	59.372028
2225.705138	63.159441
2227.313510	62.316084
2228.919894	62.109091
2230.527642	62.241958
2232.133403	62.613986
2233.738853	60.446154
2235.342319	60.363636
2236.947147	58.675524
2238.549991	56.415385
2240.150852	54.089510
2241.753076	60.220979
2243.353317	64.447552
2244.954922	66.588811
2246.552873	68.503497
2248.152187	71.742657
2249.749521	72.641958
2251.346547	76.257343
2252.944934	75.513287
2254.539673	73.627972
2256.132436	67.177622
2257.726560	64.955245
2259.322046	63.923077
2260.913888	64.037762
2262.505423	62.619580
2264.098319	66.025175
2265.685906	66.774825
2267.278190	69.370629
2268.865166	67.206993
2270.455171	66.850350
2272.039871	62.808392
2273.629265	60.286713
2275.213356	56.453147
2276.798809	57.583217
2278.382293	54.521678
2279.968802	53.653147
2281.551678	54.011189
2283.134250	55.999301
2284.716520	53.622378
2286.295159	54.421678
2287.876822	53.460140
2289.454858	55.656643
2291.035916	59.874126
2292.613347	61.396503
2294.188815	60.082517
2295.767305	60.367133
2297.342170	57.639161
2298.916735	61.416084
2300.491000	58.941259
2302.064964	56.834266
2303.638628	53.598601
2305.211991	52.172028
2306.781736	52.836364
2308.351182	57.869930
2309.923647	58.906294
2311.490837	57.920280
2313.061044	59.627972
2314.627637	61.408392
2316.195590	58.931469
2317.761588	63.078322
2319.327288	63.130070
2320.892690	68.760839
2322.456139	70.132867
2324.020947	74.569231
2325.582146	75.525874
2327.146360	74.121678
2328.705313	70.552448
2330.267279	70.499301
2331.827295	68.637762
2333.387015	66.819580
2334.944786	62.426573
2336.502263	63.567832
2338.059444	65.844755
2339.614679	71.444755
2341.169619	67.865734
2342.724266	68.079720
2344.278619	62.706294
2345.832678	59.879720
2347.386444	58.527273
2348.938265	56.475524
2350.488143	55.047552
2352.041029	57.194406
2353.588673	58.370629
2355.139324	59.134266
2356.686385	62.786014
2358.234803	66.369231
2359.782929	62.264336
2361.327468	64.278322
2362.873364	63.331469
2364.417321	61.903497
2365.962636	58.040559
2367.504366	56.741259
2369.047454	57.960839
2370.588605	59.043357
2372.129467	57.780420
2373.670040	57.928671
2375.210324	57.976224
2376.750319	60.043357
2378.286735	58.195804
2379.826153	61.934266
2381.361994	61.146853
2382.899191	62.131469
2384.432814	58.510490
2385.969436	60.050350
2387.504127	61.710490
2389.036889	58.580420
2390.569365	55.225175
2392.099912	56.883916
2393.633457	56.570629
2395.161791	58.254545
2396.691481	58.763636
2398.220886	64.096503
2399.750006	64.067133
2401.278840	68.205594
2402.802470	62.359441
2404.330735	65.314685
2405.853797	64.630769
2407.381494	62.763636
2408.902350	61.436364
2410.427840	60.829371
2411.949770	65.036364
2413.473054	72.720280
2414.994418	74.488112
2416.513862	79.805594
2418.034661	81.253147
2419.553541	83.646154
2421.072139	81.528671
2422.588820	81.889510
2424.106856	77.804196
2425.624610	74.721678
2427.138812	68.046154
2428.652734	62.748252
2430.166377	64.626573
2431.681373	64.237762
2433.192821	59.468531
2434.705624	58.458741
2436.216514	55.977622
2437.727124	56.197203
2439.235823	54.260140
2440.747509	50.483916
2442.255651	48.188811
2443.763514	49.897902
2445.271100	50.504895
2446.775146	54.899301
2448.282176	56.165035
2449.787298	59.869930
2451.292143	65.486713
2452.795081	63.685315
2454.297742	64.257343
2455.800127	66.402797
2457.300607	63.058741
2458.802440	62.469930
2460.302369	59.219580
2461.802022	62.934266
2463.301400	63.328671
2464.798875	64.198601
2466.294448	63.338462
2467.793001	66.546853
2469.288026	66.111888
2470.784403	63.155245
2472.277254	61.457343
2473.771457	62.790210
2475.265387	58.316084
2476.755794	57.037762
2478.249178	54.832168
2479.740663	56.337063
2481.230252	56.594406
2482.719570	53.394406
2484.206991	54.173427
2485.697388	60.027972
2487.184266	64.664336
2488.672496	68.293706
2490.157210	66.218182
2491.641653	69.363636
2493.127448	66.735664
2494.611350	63.709091
2496.096604	61.426573
2497.576724	58.851748
2499.059816	57.069930
2500.541018	50.475524
2502.021951	51.216783
2503.500995	55.479720
2504.979771	56.633566
2506.458278	54.640559
2507.936516	54.184615
2509.414486	54.566434
2510.888952	54.444755
2512.366386	52.355245
2513.840317	53.187413
2515.315599	55.324476
2516.790613	57.464336
2518.262126	56.209790
2519.734990	57.009790
2521.205971	59.131469
2522.678301	59.619580
2524.145519	61.998601
2525.615703	61.365035
2527.084005	61.145455
2528.552043	63.688112
2530.019816	62.802797
2531.487324	63.506294
2532.954567	66.527273
2534.418319	64.941259
2535.883420	63.549650
2537.346644	62.032168
2538.811217	61.970629
2540.272301	59.904895
2541.734736	58.916084
2543.196907	55.275524
2544.655591	57.780420
2546.118848	58.665734
2547.577008	60.109091
2549.036517	63.033566
2550.490933	67.177622
2551.949919	67.400000
2553.407032	70.172028
2554.862275	68.000000
2556.317257	66.931469
2557.770369	68.096503
2559.224830	69.644755
2560.677422	65.225175
2562.129754	62.124476
2563.580218	60.212587
2565.033638	59.567832
2566.481976	57.453147
2567.933270	55.535664
2569.382697	55.829371
2570.828653	58.423776
2572.277563	55.574825
2573.723002	58.283916
2575.169790	60.029371
2576.614714	61.476923
2578.059381	57.841958
2579.505395	60.186014
2580.947942	62.674126
2582.391837	62.527273
2583.832267	60.949650
2585.274045	63.772028
2586.713963	68.388811
2588.155228	70.816783
2589.593031	70.883916
2591.033784	70.613986
2592.469474	67.876923
2593.908114	70.446154
2595.344897	69.868531
2596.779823	72.061538
2598.217698	69.135664
2599.650515	68.300699
2601.084679	66.426573
2602.516988	69.170629
2603.950644	67.932867
2605.382447	71.723077
2606.813997	70.780420
2608.245293	66.102098
2609.674738	65.717483
2611.103930	66.412587
2612.531271	63.737063
2613.959959	63.100699
2615.388394	61.535664
2616.813383	63.586014
2618.239717	63.948252
2619.664203	67.888112
2621.090035	73.176224
2622.512423	80.366434
2623.936157	75.952448
2625.358045	76.128671
2626.779682	79.707692
2628.199474	78.703497
2629.620612	74.104895
2631.041500	75.697902
2632.458950	71.383217
2633.879339	67.096503
2635.296291	65.797203
2636.712995	66.386014
2638.129450	68.437762
2639.545657	68.271329
2640.961615	66.276923
2642.375733	71.560839
2643.789604	75.206993
2645.201635	75.225175
2646.615011	74.949650
2648.024957	81.016783
2649.437839	75.972028
2650.847292	75.391608
2652.256499	74.728671
2653.663870	74.405594
2655.074175	74.500699
2656.482644	74.763636
2657.889278	76.258741
2659.295667	77.034965
2660.700222	78.739860
2662.106121	82.937063
2663.510187	88.380420
2664.914009	90.853147
2666.317586	91.097902
2667.719331	92.696503
2669.122420	89.995804
2670.522092	87.787413
2671.923107	88.072727
2673.320705	85.323077
2674.721234	80.885315
2676.118348	79.341259
2677.516805	75.819580
2678.913434	77.542657
2680.309822	77.328671
2681.705967	75.629371
2683.100286	74.086713
2684.495948	77.805594
2685.888200	74.524476
2687.281796	74.520280
2688.673567	76.854545
2690.066680	76.496503
2691.457970	71.344056
2692.847437	71.253147
2694.236665	66.867133
2695.625652	69.225175
2697.015982	67.827972
2698.401327	70.213986
2699.789597	71.181818
2701.176046	76.545455
2702.562256	73.890909
2703.948227	74.450350
2705.330800	76.751049
2706.714714	79.012587
2708.098391	75.609790
2709.481830	73.881119
2710.861873	73.232168
2712.243258	75.788811
2713.622827	73.931469
2715.003738	75.225175
2716.382834	70.467133
2717.760115	68.443357
2719.138738	64.889510
2720.515548	65.027972
2721.892122	63.822378
2723.268460	65.337063
2724.642986	62.535664
2726.018853	62.030769
2727.391333	62.938462
2728.766730	67.337063
2730.137165	64.921678
2731.508942	65.493706
2732.880485	60.801399
2734.250219	61.790210
2735.621293	61.198601
2736.990560	66.311888
2738.359593	65.478322
2739.726819	67.548252
2741.093813	65.548252
2742.460574	69.931469
2743.827102	67.636364
2745.191826	69.009790
2746.556317	66.060140
2747.920576	61.109091
2749.284604	51.723077
2750.648399	49.669930
2752.008821	47.924476
2753.372154	50.311888
2754.730544	51.130070
2756.091844	50.718881
2757.449773	50.644755
2758.810612	55.530070
2760.169650	55.791608
2761.525320	56.539860
2762.883899	51.679720
2764.239110	48.089510
2765.594092	44.991608
2766.947277	47.755245
2768.303369	49.475524
2769.656097	55.606993
2771.008596	59.253147
2772.360867	60.613986
2773.714477	60.633566
2775.064725	61.107692
2776.413180	62.274126
2777.764539	59.048951
2779.112539	54.067133
2780.461878	56.117483
2781.809424	53.945455
2783.156743	52.330070
2784.503836	51.420979
2785.849138	54.714685
2787.194214	55.594406
2788.539064	57.875524
2789.883688	56.239161
2791.224959	58.069930
2792.567569	60.650350
2793.909954	63.471329
2795.252113	65.179021
2796.590923	66.096503
2797.932633	62.006993
2799.270994	59.819580
2800.610693	57.103497
2801.948606	58.118881
2803.284735	56.290909
2804.620641	56.714685
2805.957883	53.825175
2807.293342	56.425175
2808.628578	54.128671
2809.962032	58.988811
2811.296822	58.314685
2812.628271	55.928671
2813.962616	55.879720
2815.292063	59.741259
2816.622847	59.367832
2817.953409	59.711888
2819.282192	56.489510
2820.612312	55.352448
2821.940652	53.678322
2823.268772	53.051748
2824.595115	48.893706
2825.922793	53.262937
2827.247139	50.963636
2828.572820	53.800000
2829.896727	53.983217
2831.220413	59.794406
2832.545435	59.195804
2833.867128	60.695105
2835.188601	59.753846
2836.509856	60.376224
2837.830892	66.006993
2839.150156	64.275524
2840.470755	62.406993
2841.789582	66.304895
2843.108191	63.212587
2844.425030	63.226573
2845.741651	56.941259
2847.058054	55.937063
2848.372689	50.110490
2849.688658	49.018182
2851.001307	45.132867
2852.315292	47.234965
2853.629060	46.179021
2854.942611	43.420979
2856.254395	44.071329
2857.564414	46.709091
2858.875767	47.053147
2860.183804	52.124476
2861.493177	55.297902
2862.802334	56.565035
2864.111276	55.979021
2865.418455	59.089510
2866.723870	57.507692
2868.030620	58.601399
2869.335607	53.191608
2870.640381	54.816783
2871.943393	54.732867
2873.249287	56.219580
2874.550326	56.200000
2875.852698	59.668531
2877.153311	59.113287
2878.455258	58.181818
2879.756992	57.310490
2881.055422	57.897902
2882.355185	55.717483
2883.653191	52.893706
2884.950985	52.109091
2886.247022	56.106294
2887.544393	59.646154
2888.840008	62.493706
2890.135413	63.453147
2891.430606	65.269930
2892.722501	63.907692
2894.017273	66.942657
2895.308749	66.349650
2896.601557	66.145455
2897.894155	65.372028
2899.183458	64.149650
2900.474094	62.987413
2901.762980	62.509091
2903.053197	58.311888
2904.340123	57.907692
2905.628381	58.373427
2906.914890	57.793007
2908.201190	60.674126
2909.487282	62.290909
2910.771626	62.151049
2912.058842	61.903497
2913.341231	63.271329
2914.624952	64.211189
2915.906926	61.485315
2917.188694	59.678322
2918.468716	55.405594
2919.751608	58.117483
2921.032755	58.496503
2922.310620	59.566434
2923.591354	62.682517
2924.868807	62.135664
2926.146055	62.896503
2927.421560	64.939860
2928.699933	66.153846
2929.973491	64.209790
2931.249917	61.672727
2932.524602	60.286713
2933.797547	53.668531
2935.071822	54.386014
2936.344358	50.223776
2937.616690	50.735664
2938.885749	48.055944
2940.157673	48.735664
2941.427859	46.275524
2942.697841	47.393007
2943.967620	42.454545
2945.235662	42.103497
2946.501969	40.917483
2947.768073	43.942657
2949.035508	44.239161
2950.301207	50.716084
2951.566704	52.408392
2952.831999	59.662937
2954.094030	59.033566
2955.357390	61.240559
2956.620549	56.451748
2957.881975	56.646154
2959.144731	51.174825
2960.405756	51.577622
2961.665050	46.032168
2962.924143	49.758042
2964.183036	49.813986
2965.441729	50.047552
2966.700222	50.469930
2967.956986	57.159441
2969.213551	56.398601
2970.468387	58.958042
2971.724553	58.471329
2972.977463	61.345455
2974.231703	57.104895
2975.485744	55.939860
2976.738059	50.009790
2977.990176	47.727273
2979.240568	45.668531
2980.493815	44.082517
2981.742285	44.205594
2982.993609	48.713287
2984.241685	49.423776
2985.489563	55.868531
2986.737244	59.727273
2987.984729	63.043357
2989.230492	60.748252
2990.476058	60.145455
2991.722953	54.434965
2992.966602	52.089510
2994.211580	50.854545
2995.453315	48.048951
2996.697901	47.248951
2997.940768	47.765035
2999.180393	44.800000
3000.422870	44.503497
3001.662106	43.195804
3002.902670	45.114685
3004.141517	42.913287
3005.380170	48.422378
3006.617107	49.574825
3007.855371	53.808392
3009.091921	55.227972
3010.328277	57.367832
3011.564439	54.759441
3012.798887	53.345455
3014.033142	50.079720
3015.267204	43.721678
3016.499554	41.629371
3017.730192	40.979021
3018.963676	35.626573
3020.195449	41.177622
3021.425510	43.383217
3022.655380	47.257343
3023.883540	49.430769
3025.113027	51.241958
3026.340804	50.560839
3027.568390	53.949650
3028.797302	52.885315
3030.021472	48.598601
3031.248485	49.822378
3032.472275	47.899301
3033.697390	44.426573
3034.920799	50.172028
3036.144019	51.499301
3037.365533	55.836364
3038.589888	58.696503
3039.809508	60.359441
3041.030454	65.109091
3042.251210	63.903497
3043.470263	60.558042
3044.690642	59.174825
3045.907804	56.027972
3047.126291	55.765035
3048.343077	48.731469
3049.559674	49.318881
3050.776084	44.583217
3051.989280	47.306294
3053.205314	46.867133
3054.418136	46.517483
3055.633795	50.935664
3056.844731	51.552448
3058.056993	51.430769
3059.269067	51.513287
3060.480955	50.949650
3061.691145	55.047552
3062.901150	51.069231
3064.110968	50.281119
3065.319090	44.424476
3066.527026	42.223776
3067.733268	40.087413
3068.940834	39.779021
3070.146705	38.725175
3071.352391	40.075524
3072.557893	39.344755
3073.761701	41.102098
3074.966833	44.776923
3076.170272	48.039161
3077.372019	46.332168
3078.573583	46.872727
3079.774963	40.146853
3080.976159	39.490909
3082.175665	41.640559
3083.374987	41.646154
3084.575633	39.067133
3085.774590	42.316084
3086.970351	44.910490
3088.168942	48.197203
3089.364339	50.710490
3090.561060	49.346853
3091.754588	52.629371
3092.950944	52.482517
3094.145613	48.524476
3095.337092	53.331469
3096.532902	52.875524
3097.724019	49.584615
3098.916459	47.839161
3100.105710	52.188811
3101.297788	50.468531
3102.488182	52.897902
3103.675389	54.082517
3104.863920	52.861538
3106.053773	53.229371
3107.240441	51.135664
3108.426930	52.625175
3109.613239	51.439161
3110.800871	45.794406
3111.985320	43.946853
3113.168089	43.918881
3114.353682	44.717483
3115.537594	40.344056
3116.719828	45.276923
3117.901884	45.151049
3119.083761	43.328671
3120.265460	40.889510
3121.445482	44.834965
3122.623826	43.741259
3123.804992	41.464336
3124.982982	40.510490
3126.160795	40.439161
3127.338431	41.158042
3128.514392	39.144056
3129.690177	39.846154
3130.867282	44.567832
3132.042714	41.813986
3133.216472	40.665734
3134.388557	40.781818
3135.561963	45.478322
3136.735194	42.949650
3137.906752	46.503497
3139.079632	46.384615
3140.249344	47.847552
3141.420377	49.135664
3142.589739	48.881119
3143.757432	46.027972
3144.927940	44.474126
3146.093789	41.855944
3147.263948	41.850350
3148.429449	42.616783
3149.594777	46.223776
3150.759931	45.988811
3151.924912	49.860140
3153.091212	48.904895
3154.252859	50.050350
3155.415827	51.633566
3156.578621	53.117483
3157.741243	49.265734
3158.902200	54.580420
3160.062984	54.941259
3161.223597	55.604196
3162.382545	54.233566
3163.541321	55.096503
3164.699926	52.486713
3165.858359	50.958042
3167.016620	46.573427
3168.173219	44.674126
3169.328157	44.082517
3170.484414	47.516084
3171.639011	46.510490
3172.793436	56.794406
3173.946202	55.865734
3175.098798	55.728671
3176.251224	50.303497
3177.403479	48.377622
3178.555565	47.257343
3179.704504	47.430769
3180.856250	42.142657
3182.006339	39.302098
3183.154770	38.060140
3184.303033	41.779021
3185.451127	43.697902
3186.599052	51.895105
3187.745321	51.476923
3188.891422	49.804196
3190.035869	47.984615
3191.180147	47.724476
3192.324258	49.275524
3193.469687	47.551049
3194.611977	46.788811
3195.754099	48.071329
3196.896055	51.025175
3198.037843	49.955245
3199.179464	50.019580
3200.317949	49.619580
3201.457753	44.829371
3202.598873	44.627972
3203.736859	43.833566
3204.873196	40.927273
3206.009367	38.511888
3207.146856	37.998601
3208.282696	42.730070
3209.419852	45.478322
3210.552397	46.756643
3211.689222	44.521678
3212.821436	44.360839
3213.954968	46.102098
3215.088334	44.981818
3216.218573	49.107692
3217.351611	48.632168
3218.481521	52.896503
3219.612749	54.846154
3220.740851	59.848951
3221.871751	59.675524
3223.001006	59.623776
3224.128617	56.569231
3225.253107	52.953846
3226.381872	48.384615
3227.507515	45.650350
3228.632995	39.497902
3229.756834	37.718881
3230.883468	35.044755
3232.005503	39.285315
3233.128855	37.511888
3234.252045	41.001399
3235.375073	39.913287
3236.496461	42.422378
3237.617688	42.695105
3238.737276	44.611189
3239.856703	45.746853
3240.974493	47.344056
3242.095074	48.043357
3243.212542	53.149650
3244.329849	51.120280
3245.446995	53.011189
3246.562506	50.160839
3247.679332	51.584615
3248.793047	47.816783
3249.909553	48.062937
3251.024423	45.745455
3252.136185	45.742657
3253.247788	42.820979
3254.360706	42.972028
3255.473464	44.874126
3256.583116	49.497902
3257.694083	47.180420
3258.804891	47.686713
3259.914067	49.752448
3261.021612	52.419580
3262.130472	53.123077
3263.239173	53.202797
3264.344772	49.257343
3265.451686	48.594406
3266.556970	44.749650
3267.663568	44.612587
3268.767066	43.734266
3269.871878	42.289510
3270.976533	37.760839
3272.078090	36.247552
3273.179490	39.731469
3274.282204	43.067133
3275.384761	40.644755
3276.484223	36.626573
3277.586467	37.734266
3278.685617	39.932867
3279.783141	40.300699
3280.880510	42.275524
3281.980662	43.212587
3283.077720	43.090909
3284.174624	42.148252
3285.271372	42.401399
3286.363561	42.004196
3287.460000	42.886713
3288.554816	33.970629
3289.649477	32.320280
3290.742517	34.721678
3291.835403	32.019580
3292.926668	30.429371
3294.019246	33.141259
3295.110204	34.683916
3296.199542	36.869930
3297.288727	39.786014
3298.379224	45.855944
3299.466637	46.763636
3300.553898	48.169231
3301.642471	44.121678
3302.730891	45.846154
3303.814764	44.241958
3304.902879	43.062937
3305.987913	44.180420
3307.071331	48.461538
3308.156061	46.513287
3309.239175	48.208392
3310.323601	51.069930
3311.404949	52.658741
3312.487609	50.632168
3313.568655	51.713287
3314.649550	49.865734
3315.728832	47.896503
3316.807963	47.367832
3317.888406	49.542657
3318.965774	49.813986
3320.044454	49.541259
3321.121522	45.883916
3322.198440	44.314685
3323.273748	43.090909
3324.348906	41.696503
3325.425375	41.583217
3326.498773	42.675524
3327.572023	41.633566
3328.646584	41.921678
3329.719535	40.728671
3330.790879	42.411189
3331.863533	39.260140
3332.933120	39.738462
3334.004018	39.777622
3335.073309	37.019580
3336.143911	37.386014
3337.212906	37.945455
3338.280295	36.485315
3339.346079	34.272727
3340.416089	32.960839
3341.483036	35.616783
3342.546921	34.697902
3343.613574	37.383217
3344.678623	34.976224
3345.742068	39.109091
3346.805366	41.913287
3347.868519	43.819580
3348.931525	46.208392
3349.994384	45.846154
3351.055642	44.356643
3352.113843	42.286713
3353.176265	37.247552
3354.235630	40.339860
3355.294851	36.790210
3356.355380	37.813986
3357.411400	34.753846
3358.470185	38.885315
3359.524462	35.297902
3360.581503	37.517483
3361.636945	35.784615
3362.693696	36.393007
3363.748850	38.721678
3364.802406	39.130070
3365.854365	36.142657
3366.909086	40.012587
3367.960759	40.173427
3369.012287	39.945455
3370.065125	37.069930
3371.114915	39.809790
3372.166014	36.033566
3373.214066	41.330070
3374.264879	39.577622
3375.312646	41.243357
3376.360271	44.461538
3377.407754	46.613986
3378.453643	44.514685
3379.500842	46.786014
3380.544997	44.741259
3381.591911	40.888112
3382.637233	41.276923
3383.679515	43.514685
3384.721655	40.882517
3385.765104	40.433566
3386.808411	38.194406
3387.850128	41.349650
3388.891704	45.274126
3389.933140	46.632168
3390.972987	44.307692
3392.011245	45.172028
3393.050811	43.300699
3394.090237	44.706294
3395.128075	42.426573
3396.164326	43.377622
3397.200437	37.935664
3398.237856	39.236364
3399.272242	40.893706
3400.307936	43.969231
3401.343490	44.440559
3402.376012	45.206993
3403.411288	43.307692
3404.443533	43.264336
3405.475640	42.130070
3406.506163	41.826573
3407.537994	38.330070
3408.569686	40.506294
3409.598350	39.009790
3410.626877	39.427972
3411.656710	37.883916
3412.686406	39.275524
3413.713075	40.006993
3414.741052	39.627972
3415.766004	36.218182
3416.793706	34.500699
3417.818385	33.234965
3418.844370	35.102098
3419.868776	33.816783
3420.893044	35.759441
3421.915734	34.302098
3422.938289	34.549650
3423.962148	34.583217
3424.982989	37.209790
3426.003693	36.615984
3427.025703	36.082517
3428.044695	35.943656
3429.063552	36.533666
3430.083715	38.186813
3431.100860	41.237363
