-118.155753	-13.800000
-115.486152	-4.000000
-112.819487	15.800000
-110.153575	-3.400000
-107.490594	-2.400000
-104.826183	1.000000
-102.164703	0.000000
-99.501794	12.600000
-96.843992	6.000000
-94.184759	2.400000
-91.526275	22.200000
-88.870716	11.400000
-86.213728	3.200000
-83.561837	-13.600000
-80.908517	-1.000000
-78.258117	0.000000
-75.606287	14.600000
-72.959548	18.000000
-70.311379	22.000000
-67.663954	18.000000
-65.019442	-2.200000
-62.373501	-1.000000
-59.732643	17.200000
-57.090354	8.200000
-54.450975	20.400000
-51.810167	13.000000
-49.170098	-11.000000
-46.535103	11.400000
-43.898678	3.200000
-41.265157	-6.400000
-38.630206	10.400000
-36.000322	-7.800000
-33.366844	8.200000
-30.738429	14.800000
-28.110748	1.400000
-25.481639	18.000000
-22.857586	12.600000
-20.229944	23.800000
-17.607355	5.200000
-14.985497	10.800000
-12.364370	18.600000
-9.743974	39.200000
-7.126465	186.400000
-4.507528	500.000000
-1.891477	1237.800000
0.723846	1389.800000
3.338442	839.600000
5.950156	101.200000
8.563297	31.400000
11.171405	8.400000
13.783095	1.600000
16.389754	4.000000
18.997841	-16.800000
21.605204	23.600000
24.207542	40.400000
26.813458	16.600000
29.414353	30.200000
32.016675	-11.200000
34.613979	6.000000
37.214859	27.800000
39.810725	1.400000
42.408018	14.000000
45.004592	-11.800000
47.596157	19.400000
50.189150	-0.600000
52.779282	14.400000
55.370842	8.800000
57.959542	14.400000
60.549670	13.000000
63.134798	6.000000
65.721354	-0.600000
68.307195	6.600000
70.890183	8.600000
73.474598	11.600000
76.051883	6.600000
78.632735	-3.000000
81.210738	11.000000
83.788031	-2.400000
86.366750	17.600000
88.940488	9.000000
91.515652	33.200000
94.087973	-8.200000
96.659587	-13.600000
99.228360	-8.200000
101.798560	2.600000
104.365921	-11.000000
106.934709	9.600000
109.500659	14.800000
112.063775	-6.800000
114.630448	28.400000
117.187898	-4.400000
119.751034	15.800000
122.309211	7.200000
124.870942	27.400000
127.427716	-15.200000
129.985916	15.600000
132.539164	33.800000
135.091713	30.200000
137.647814	68.800000
140.198966	59.200000
142.749420	112.800000
145.299178	78.200000
147.846116	115.400000
150.392358	112.800000
152.940027	111.600000
155.486999	129.600000
158.029035	125.800000
160.570378	97.600000
163.111029	121.600000
165.653104	108.800000
168.192369	119.600000
170.728824	117.400000
173.264589	117.400000
175.801779	124.400000
178.338277	107.000000
180.871971	120.000000
183.402860	138.400000
185.933061	107.400000
188.464687	119.800000
190.993513	141.200000
193.519539	115.800000
196.044879	107.600000
198.571644	125.200000
201.095613	124.800000
203.618896	139.600000
206.141495	116.600000
208.661301	126.800000
211.180424	107.600000
213.698864	109.600000
216.218728	121.000000
218.731591	108.600000
221.247985	119.200000
223.763698	134.200000
226.274520	115.200000
228.786767	134.800000
231.296231	105.800000
233.805017	120.200000
236.313125	120.800000
238.822657	115.000000
241.327308	99.400000
243.831283	126.400000
246.336682	99.400000
248.837206	108.600000
251.341253	149.600000
253.838330	114.200000
256.338929	138.800000
258.836757	143.000000
261.333912	100.000000
263.830394	115.000000
266.322014	120.600000
268.817152	106.000000
271.309525	112.400000
273.801227	120.000000
276.290166	114.200000
278.780528	135.400000
281.268129	144.000000
283.752970	131.800000
286.241325	114.200000
288.722742	159.200000
291.207672	129.000000
293.687756	159.800000
296.171353	137.800000
298.650108	147.000000
301.130285	117.400000
303.607711	147.800000
306.084473	155.800000
308.560571	116.200000
311.033921	119.200000
313.506610	136.000000
315.978637	133.600000
318.450002	196.400000
320.918624	200.600000
323.386586	180.200000
325.855971	152.000000
328.320533	172.800000
330.788598	171.600000
333.251844	140.800000
335.714433	126.200000
338.176364	125.800000
340.637639	157.000000
343.096180	151.400000
345.556143	148.200000
348.013374	133.000000
350.469950	161.200000
352.925871	136.600000
355.379064	158.200000
357.833679	131.400000
360.283492	141.000000
362.736801	135.000000
365.185311	145.200000
367.633171	124.000000
370.082452	146.400000
372.526940	150.200000
374.972850	91.200000
377.418111	122.400000
379.860653	117.400000
382.302547	132.000000
384.743793	122.000000
387.182324	145.000000
389.622277	148.000000
392.059516	148.000000
394.494043	120.000000
396.932058	161.800000
399.365296	135.800000
401.799956	133.800000
404.229843	144.000000
406.663215	121.800000
409.091816	124.600000
411.519777	158.800000
413.949158	129.000000
416.373775	156.200000
418.799812	150.800000
421.225210	147.600000
423.649967	144.400000
426.069965	132.800000
428.491385	124.200000
430.910108	140.600000
433.330252	138.600000
435.747701	173.000000
438.166570	150.600000
440.582746	149.400000
442.994175	141.400000
445.409080	144.200000
447.821295	136.000000
450.232876	158.000000
452.643823	134.800000
455.052084	146.400000
457.459713	158.400000
459.866709	124.600000
462.273073	155.000000
464.676756	157.800000
467.079808	103.800000
469.482230	133.400000
471.884022	149.800000
474.283136	144.000000
476.683670	119.200000
479.083575	155.800000
481.478757	118.800000
483.877406	129.200000
486.271335	130.000000
488.664638	149.400000
491.057315	139.000000
493.449367	130.600000
495.842838	112.600000
498.231596	132.200000
500.617688	130.000000
503.005200	117.600000
505.392088	94.800000
507.776313	112.600000
510.161957	86.600000
512.544938	114.800000
514.925259	101.200000
517.306999	108.000000
519.686080	99.800000
522.066580	71.400000
524.444422	111.400000
526.819609	65.600000
529.194178	90.000000
531.570166	83.400000
533.943500	96.600000
536.318253	87.400000
538.688319	87.600000
541.057770	67.600000
543.428640	99.200000
545.794828	77.200000
548.162435	88.200000
550.527396	101.000000
552.891744	106.800000
555.255480	60.000000
557.620633	83.600000
559.981114	82.800000
562.343012	92.400000
564.702271	74.600000
567.058891	59.600000
569.418957	112.800000
571.772331	90.800000
574.129150	75.600000
576.483334	82.400000
578.836909	60.400000
581.189876	80.000000
583.540212	74.200000
585.891964	104.800000
588.237040	82.000000
590.587580	75.600000
592.931447	104.800000
595.280775	70.800000
597.625454	66.200000
599.967509	97.200000
602.310981	100.000000
604.651830	64.200000
606.992076	60.400000
609.329702	46.800000
611.670763	79.400000
614.007187	68.600000
616.345027	79.600000
618.680249	68.600000
621.012856	78.200000
623.346880	100.800000
625.678289	67.800000
628.009100	66.200000
630.339313	84.200000
632.668929	62.600000
634.993921	87.600000
637.324355	82.200000
639.650167	44.600000
641.973373	86.800000
644.297995	84.600000
646.620011	58.200000
648.941433	74.800000
651.260252	58.600000
653.580487	87.400000
655.900129	75.400000
658.217170	76.600000
660.533620	82.200000
662.847471	37.800000
665.162737	76.800000
667.475407	59.800000
669.789492	55.400000
672.098978	67.400000
674.409878	71.800000
676.718186	48.600000
679.025906	50.600000
681.335041	63.200000
683.639583	90.200000
685.943539	48.400000
688.246908	65.000000
690.551692	85.000000
692.851890	65.800000
695.153503	64.200000
697.454530	54.600000
699.750976	83.400000
702.048836	63.000000
704.346114	68.200000
706.642807	57.600000
708.934925	67.800000
711.230454	68.600000
713.521410	69.800000
715.813780	34.800000
718.103574	44.600000
720.392789	56.200000
722.681423	53.600000
724.967486	50.600000
727.254962	64.600000
729.539868	59.800000
731.824195	74.400000
734.105955	53.000000
736.389128	41.600000
738.671724	45.600000
740.949764	76.600000
743.229218	46.800000
745.508097	65.800000
747.786400	65.400000
750.060154	67.800000
752.335322	45.400000
754.609916	73.800000
756.881951	73.200000
759.155399	55.000000
761.426289	51.400000
763.694622	66.000000
765.964370	58.400000
768.231562	88.600000
770.498184	72.200000
772.764237	72.200000
775.027738	74.200000
777.292651	61.800000
779.556996	76.000000
781.816810	88.000000
784.078038	81.800000
786.338698	63.600000
788.596811	51.000000
790.852380	76.600000
793.111340	75.400000
795.363801	90.800000
797.621629	49.800000
799.874938	70.400000
802.125706	70.200000
804.377887	73.400000
806.627530	67.200000
808.878584	92.200000
811.125127	93.000000
813.373083	71.400000
815.618503	63.600000
817.865336	63.800000
820.111606	74.800000
822.353373	68.800000
824.598522	65.400000
826.837199	81.800000
829.079259	56.000000
831.316820	65.200000
833.555792	30.600000
835.792238	68.600000
838.030096	60.400000
840.265428	63.400000
842.498236	64.800000
844.732456	78.000000
846.964154	53.000000
849.195297	61.200000
851.425885	38.800000
853.655919	68.600000
855.885398	72.600000
858.110397	41.000000
860.338769	51.800000
862.562663	83.600000
864.787967	48.400000
867.008796	83.000000
869.232997	70.400000
871.452725	67.800000
873.673864	60.200000
875.894452	37.600000
878.112531	69.000000
880.332019	54.000000
882.547041	69.000000
884.761515	70.400000
886.975442	50.600000
889.188821	82.200000
891.401654	61.200000
893.613939	53.400000
895.823723	49.000000
898.032961	79.400000
900.241653	42.200000
902.447847	95.000000
904.655450	49.200000
906.860556	76.400000
909.065118	51.800000
911.267185	82.000000
913.470661	38.400000
915.671643	77.000000
917.872083	70.600000
920.073932	58.400000
922.269390	63.400000
924.468206	71.800000
926.662585	59.800000
928.860321	82.400000
931.053621	64.800000
933.248329	62.000000
935.440552	63.200000
937.632237	85.800000
939.823384	60.600000
942.012048	60.600000
944.200175	64.600000
946.385822	76.000000
948.574821	68.600000
950.759397	60.200000
952.943438	67.600000
955.130829	64.400000
957.309917	88.200000
959.492354	80.200000
961.674258	59.400000
963.853688	72.200000
966.030645	67.600000
968.209010	93.800000
970.388781	68.200000
972.562204	89.000000
974.738973	79.600000
976.911336	68.800000
979.085106	47.600000
981.254472	88.800000
983.427182	86.600000
985.597426	72.400000
987.767142	63.600000
989.936329	85.600000
992.101119	82.200000
994.269251	71.200000
996.432987	90.600000
998.598131	85.400000
1000.760815	74.600000
1002.922974	90.800000
1005.082675	73.800000
1007.241853	86.400000
1009.402437	92.400000
1011.560566	70.600000
1013.718171	95.600000
1015.875253	69.800000
1018.031812	107.000000
1020.183991	91.600000
1022.337577	87.600000
1024.490640	105.600000
1026.641256	104.000000
1028.793277	93.800000
1030.940925	102.400000
1033.091905	89.000000
1035.238515	82.600000
1037.384605	102.000000
1039.530177	95.600000
1041.677153	90.600000
1043.817842	107.600000
1045.961859	109.400000
1048.103437	102.000000
1050.244497	87.600000
1052.386962	102.200000
1054.523148	107.600000
1056.662660	115.400000
1058.797816	119.400000
1060.936297	75.400000
1063.070425	94.400000
1065.204039	107.400000
1067.339057	92.200000
1069.469726	116.000000
1071.601801	82.400000
1073.731445	86.200000
1075.860578	92.800000
1077.989200	111.400000
1080.117310	69.600000
1082.242994	106.200000
1084.368168	99.800000
1086.494745	89.600000
1088.616986	92.600000
1090.740631	95.800000
1092.859941	88.000000
1094.984480	98.000000
1097.102775	97.800000
1099.222473	84.600000
1101.339753	103.800000
1103.456527	93.200000
1105.572794	93.000000
1107.686646	78.800000
1109.801901	82.000000
1111.912834	97.800000
1114.027078	82.200000
1116.137003	75.800000
1118.248330	45.600000
1120.359154	73.400000
1122.465661	71.800000
1124.575477	82.800000
1126.680979	65.600000
1128.787885	80.400000
1130.888574	79.800000
1132.994476	96.200000
1135.096069	90.600000
1137.199065	78.200000
1139.301560	102.200000
1141.397849	86.400000
1143.499344	73.800000
1145.596537	78.000000
1147.693231	92.400000
1149.789428	77.200000
1151.885126	53.400000
1153.980327	62.400000
1156.073131	81.000000
1158.167337	83.800000
1160.255352	74.800000
1162.348565	61.200000
1164.435590	70.800000
1166.525915	98.200000
1168.611951	90.200000
1170.701285	76.600000
1172.784438	70.000000
1174.868994	61.200000
1176.954950	80.800000
1179.036625	66.000000
1181.119702	79.600000
1183.200393	69.800000
1185.280593	63.400000
1187.360301	84.800000
1189.439518	85.000000
1191.516352	75.200000
1193.590806	105.800000
1195.668552	55.200000
1197.742027	82.400000
1199.816904	80.600000
1201.887513	96.800000
1203.959523	85.800000
1206.029157	68.200000
1208.100192	108.800000
1210.170739	77.600000
1212.237025	97.200000
1214.304712	70.800000
1216.370027	71.200000
1218.436742	80.800000
1220.499201	92.800000
1222.564946	92.000000
1224.626436	79.800000
1226.689326	95.000000
1228.749849	68.800000
1230.809889	69.600000
1232.869445	68.200000
1234.926637	93.400000
1236.983346	74.000000
1239.037693	99.600000
1241.095320	91.600000
1243.150585	92.200000
1245.201609	75.400000
1247.254033	79.000000
1249.305978	83.200000
1251.355564	81.800000
1253.404671	59.400000
1255.453299	66.800000
1257.501449	62.400000
1259.549121	88.200000
1261.592562	70.200000
1263.639278	109.400000
1265.683642	85.800000
1267.727528	67.000000
1269.769064	101.200000
1271.808250	78.800000
1273.850708	89.000000
1275.888945	76.800000
1277.928579	87.000000
1279.967739	76.000000
1282.002681	72.200000
1284.039021	76.000000
1286.073016	74.000000
1288.108410	86.400000
1290.139590	71.200000
1292.172169	101.600000
1294.204275	72.000000
1296.234041	99.400000
1298.265205	99.000000
1300.292161	109.000000
1302.320515	110.000000
1304.344665	151.800000
1306.372080	124.000000
1308.395292	131.600000
1310.419902	121.400000
1312.442177	143.000000
1314.465850	121.600000
1316.487190	112.800000
1318.508063	120.200000
1320.528468	147.000000
1322.544679	116.800000
1324.562289	128.000000
1326.577570	133.600000
1328.596110	122.800000
1330.610460	152.200000
1332.622485	152.000000
1334.637768	136.600000
1336.648865	145.000000
1338.661358	143.400000
1340.669669	146.400000
1342.681236	148.400000
1344.686764	135.200000
1346.695546	133.200000
1348.700152	150.600000
1350.708011	151.600000
1352.715407	118.600000
1354.716773	99.400000
1356.719536	134.000000
1358.721839	106.200000
1360.723681	100.000000
1362.725065	98.600000
1364.724134	94.800000
1366.722745	110.200000
1368.720898	98.400000
1370.718593	88.400000
1372.712124	111.800000
1374.707052	108.800000
1376.701523	87.400000
1378.695537	71.200000
1380.687244	78.200000
1382.678495	102.000000
1384.667441	80.000000
1386.657782	80.400000
1388.647668	70.800000
1390.635251	81.000000
1392.622380	79.200000
1394.607207	55.000000
1396.593429	98.000000
1398.577350	97.400000
1400.560819	63.000000
1402.543836	77.000000
1404.524555	90.000000
1406.506668	54.400000
1408.486484	74.000000
1410.465850	58.800000
1412.441077	84.400000
1414.419542	102.200000
1416.395714	79.400000
1418.371436	76.600000
1420.346709	71.600000
1422.319691	80.400000
1424.292226	69.200000
1426.264312	95.200000
1428.235950	86.600000
1430.203461	89.600000
1432.176045	64.600000
1434.140823	62.400000
1436.110674	68.200000
1438.076400	74.000000
1440.043520	92.000000
1442.008356	74.800000
1443.969072	62.200000
1445.934856	84.000000
1447.894685	51.600000
1449.855907	53.600000
1451.818522	88.800000
1453.777022	81.000000
1455.735080	90.600000
1457.692695	87.600000
1459.649869	89.600000
1461.604767	64.800000
1463.561057	59.200000
1465.515073	92.400000
1467.468649	77.200000
1469.419952	79.800000
1471.372647	95.600000
1473.323071	70.600000
1475.273056	63.600000
1477.222601	83.200000
1479.169878	87.200000
1481.114888	79.600000
1483.061290	88.200000
1485.007254	75.200000
1486.952780	68.800000
1488.896042	78.200000
1490.838867	89.800000
1492.779429	89.600000
1494.721382	83.000000
1496.661074	68.000000
1498.600330	84.400000
1500.539152	79.000000
1502.475714	69.600000
1504.413666	97.600000
1506.349361	89.800000
1508.284622	77.400000
1510.217626	65.000000
1512.150198	88.800000
1514.082338	80.200000
1516.014046	92.800000
1517.943501	75.600000
1519.874345	66.600000
1521.804759	75.200000
1523.731100	89.400000
1525.658831	88.800000
1527.584312	88.600000
1529.509364	85.000000
1531.433987	105.800000
1533.358181	93.200000
1535.280128	95.800000
1537.203464	101.800000
1539.124555	86.400000
1541.043401	127.400000
1542.963637	93.400000
1544.881629	123.800000
1546.799195	90.200000
1548.714519	122.600000
1550.631233	131.600000
1552.543892	101.600000
1554.459755	113.200000
1556.373379	123.800000
1558.284764	103.200000
1560.197538	109.800000
1562.106263	139.000000
1564.016378	126.600000
1565.926069	150.800000
1567.835336	141.600000
1569.742370	137.600000
1571.647171	135.000000
1573.553361	143.600000
1575.457319	110.400000
1577.360857	101.400000
1579.263973	133.400000
1581.164861	118.600000
1583.067137	122.600000
1584.967184	125.400000
1586.868620	126.000000
1588.766021	119.800000
1590.663005	79.800000
1592.559570	136.000000
1594.457522	101.200000
1596.349640	88.000000
1598.244952	128.400000
1600.139845	75.800000
1602.032517	107.600000
1603.924773	103.400000
1605.814809	97.600000
1607.704429	93.600000
1609.593634	104.000000
1611.482423	116.000000
1613.368996	120.800000
1615.256955	86.200000
1617.140899	113.000000
1619.026229	97.000000
1620.911146	81.600000
1622.793849	96.400000
1624.677938	104.600000
1626.558017	81.400000
1628.439482	92.800000
1630.318737	69.400000
1632.199378	98.200000
1634.074215	91.400000
1635.954034	68.400000
1637.829847	81.600000
1639.705251	94.600000
1641.582040	82.400000
1643.453032	88.200000
1645.327206	53.600000
1647.197382	75.200000
1649.070738	61.400000
1650.941891	81.200000
1652.810842	57.400000
1654.681179	49.000000
1656.547522	76.400000
1658.415252	86.000000
1660.280782	20.800000
1662.147697	98.800000
1664.010624	98.000000
1665.874936	59.400000
1667.737053	78.800000
1669.598764	56.600000
1671.461860	65.000000
1673.322762	86.200000
1675.181470	44.800000
1677.039775	82.000000
1678.899465	68.000000
1680.753388	86.600000
1682.610483	67.000000
1684.467176	76.400000
1686.319893	41.200000
1688.175781	73.800000
1690.027695	72.200000
1691.879208	46.200000
1693.730320	77.600000
1695.581031	70.600000
1697.431342	79.400000
1699.279469	50.000000
1701.128979	82.400000
1702.972741	69.800000
1704.821453	66.600000
1706.664418	58.000000
1708.510549	35.800000
1710.352719	58.800000
1712.198053	35.800000
1714.037647	81.600000
1715.878625	82.000000
1717.720986	60.800000
1719.559391	66.400000
1721.399179	84.400000
1723.236792	65.200000
1725.074009	69.000000
1726.909053	62.800000
1728.745480	72.200000
1730.579735	43.600000
1732.413596	66.400000
1734.247062	50.000000
1736.076582	72.600000
1737.909261	76.600000
1739.737996	76.200000
1741.569889	42.400000
1743.397839	61.000000
1745.225397	62.400000
1747.052564	55.000000
1748.879338	62.200000
1750.705722	79.600000
1752.528169	66.400000
1754.353770	53.200000
1756.175437	57.000000
1757.998486	53.600000
1759.819374	86.600000
1761.639872	53.400000
1763.461752	77.000000
1765.277932	40.400000
1767.097264	35.000000
1768.912669	79.600000
1770.731225	33.600000
1772.545855	77.800000
1774.360098	66.400000
1776.173955	68.800000
1777.987425	37.600000
1779.798741	60.800000
1781.611439	86.400000
1783.423750	68.200000
1785.232144	63.200000
1787.041919	80.000000
1788.847778	60.600000
1790.656784	69.000000
1792.461876	82.800000
1794.268348	75.200000
1796.074437	58.800000
1797.876616	45.000000
1799.681938	62.400000
1801.483352	85.400000
1803.286146	58.400000
1805.085035	53.200000
1806.885303	72.200000
1808.685191	72.800000
1810.482936	50.600000
1812.280301	70.600000
1814.077285	68.200000
1815.873889	78.200000
1817.668354	65.200000
1819.464199	79.000000
1821.254388	54.600000
1823.049474	56.000000
1824.838907	74.600000
1826.631478	77.000000
1828.421913	45.400000
1830.210213	58.800000
1832.001649	63.000000
1833.787440	68.400000
1835.574609	82.400000
1837.359647	60.400000
1839.147819	93.000000
1840.932105	68.000000
1842.714262	66.800000
1844.497797	63.800000
1846.279205	59.000000
1848.061990	77.000000
1849.840896	55.200000
1851.621180	60.200000
1853.399339	58.000000
1855.178875	81.400000
1856.956287	58.400000
1858.731575	73.000000
1860.508242	64.600000
1862.282786	77.400000
1864.058707	77.400000
1865.829009	67.000000
1867.602438	67.600000
1869.373747	64.800000
1871.144685	67.400000
1872.917000	78.000000
1874.683703	58.200000
1876.453530	61.600000
1878.219494	45.600000
1879.988582	80.200000
1881.753808	52.600000
1883.518666	69.000000
1885.284900	42.000000
1887.047276	49.600000
1888.809285	57.200000
1890.570927	50.600000
1892.332201	52.800000
1894.093109	56.800000
1895.853649	68.000000
1897.612080	73.200000
1899.370146	45.400000
1901.126104	57.200000
1902.883438	46.600000
1904.640406	49.000000
1906.395269	66.800000
1908.148026	79.200000
1909.900420	57.800000
1911.654190	49.000000
1913.405856	80.000000
1915.155419	27.600000
1916.906359	51.800000
1918.656935	69.000000
1920.403673	72.400000
1922.151786	61.600000
1923.897800	52.400000
1925.645190	59.200000
1927.390481	40.000000
1929.133675	73.200000
1930.878245	40.200000
1932.620718	67.800000
1934.362831	52.000000
1936.104585	41.000000
1937.845978	49.200000
1939.585278	79.000000
1941.324219	58.800000
1943.062801	68.200000
1944.799291	51.400000
1946.535424	55.000000
1948.272931	58.600000
1950.006617	70.000000
1951.741677	91.800000
1953.474648	70.000000
1955.207263	61.000000
1956.939521	61.200000
1958.671423	65.000000
1960.401239	68.400000
1962.128971	80.400000
1963.858077	74.200000
1965.586827	61.800000
1967.313494	65.800000
1969.039807	65.200000
1970.767493	47.200000
1972.489643	55.400000
1974.214895	83.000000
1975.936339	70.800000
1977.660883	49.200000
1979.383348	59.600000
1981.102009	57.200000
1982.823769	83.400000
1984.541727	52.200000
1986.261059	97.400000
1987.976590	49.200000
1989.696943	71.600000
1991.413496	51.200000
1993.126254	60.400000
1994.842107	59.200000
1996.555888	68.400000
1998.269318	52.400000
1999.980678	43.800000
2001.693411	43.400000
2003.402352	73.200000
2005.114387	90.000000
2006.820912	79.600000
2008.530530	89.600000
2010.238080	69.000000
2011.945283	58.000000
2013.650420	81.400000
2015.355210	72.800000
2017.061372	32.000000
2018.763752	43.400000
2020.467504	66.800000
2022.169193	61.200000
2023.870536	62.000000
2025.571534	72.000000
2027.270472	52.800000
2028.970781	61.600000
2030.667314	49.000000
2032.365219	75.000000
2034.061066	45.000000
2035.759998	64.600000
2037.453444	76.400000
2039.148261	42.000000
2040.842735	60.200000
2042.533441	65.600000
2044.227231	29.600000
2045.917254	72.200000
2047.608648	80.400000
2049.297989	50.600000
2050.988700	61.600000
2052.675649	50.800000
2054.362257	45.400000
2056.050236	57.400000
2057.734455	58.200000
2059.420044	76.200000
2061.105294	30.000000
2062.788496	44.600000
2064.473068	61.800000
2066.152176	76.200000
2067.836070	76.800000
2069.514504	52.000000
2071.196015	56.800000
2072.873774	45.000000
2074.551197	56.800000
2076.229989	42.000000
2077.906738	50.600000
2079.581446	48.600000
2081.257523	63.000000
2082.931560	56.600000
2084.605261	27.000000
2086.278627	61.200000
2087.949955	53.600000
2089.620948	57.000000
2091.291607	40.600000
2092.961932	66.400000
2094.631922	65.600000
2096.299877	79.000000
2097.967499	74.000000
2099.633087	74.200000
2101.300043	51.800000
2102.964966	61.600000
2104.629556	40.400000
2106.292115	62.800000
2107.956043	62.800000
2109.617939	91.600000
2111.279504	41.400000
2112.940739	68.600000
2114.599944	55.400000
2116.258820	64.000000
2117.917365	73.600000
2119.575581	49.400000
2121.230074	59.800000
2122.887631	75.200000
2124.544858	70.800000
2126.198365	53.800000
2127.853239	66.400000
2129.504394	79.000000
2131.158612	51.600000
2132.809112	100.200000
2134.460980	48.600000
2136.107439	69.600000
2137.758652	39.400000
2139.406153	90.600000
2141.055020	55.200000
2142.701868	61.200000
2144.348391	66.600000
2145.994588	51.000000
2147.637076	61.200000
2149.282623	88.800000
2150.924463	63.200000
2152.569360	42.400000
2154.210552	70.400000
2155.851420	84.200000
2157.491965	56.800000
2159.130497	63.000000
2160.770395	41.600000
2162.406593	69.000000
2164.044157	75.000000
2165.681399	80.400000
2167.316631	46.400000
2168.951541	69.200000
2170.586130	77.000000
2172.220398	67.400000
2173.850972	47.000000
2175.484597	82.200000
2177.114531	74.600000
2178.745830	45.600000
2180.375125	83.000000
2182.004099	52.400000
2183.632755	39.000000
2185.261091	71.600000
2186.887424	64.400000
2188.513439	58.200000
2190.137453	55.400000
2191.762832	58.800000
2193.386210	65.800000
2195.010953	62.400000
2196.632014	87.600000
2198.252760	61.600000
2199.874869	59.800000
2201.494981	64.600000
2203.113097	50.000000
2204.730897	59.600000
2206.348381	52.800000
2207.965550	52.800000
2209.582404	48.800000
2211.198943	78.600000
2212.813488	80.200000
2214.426042	89.200000
2216.039959	52.200000
2217.651884	85.600000
2219.265174	76.000000
2220.876472	27.600000
2222.485782	55.000000
2224.096454	80.600000
2225.705138	63.200000
2227.313510	71.400000
2228.919894	69.000000
2230.527642	93.200000
2232.133403	72.600000
2233.738853	39.200000
2235.342319	75.600000
2236.947147	76.400000
2238.549991	71.000000
2240.150852	98.400000
2241.753076	63.200000
2243.353317	75.000000
2244.954922	48.600000
2246.552873	72.400000
2248.152187	74.000000
2249.749521	70.200000
2251.346547	74.200000
2252.944934	64.000000
2254.539673	69.800000
2256.132436	45.200000
2257.726560	84.400000
2259.322046	74.400000
2260.913888	52.200000
2262.505423	61.400000
2264.098319	81.000000
2265.685906	93.000000
2267.278190	68.200000
2268.865166	72.400000
2270.455171	55.000000
2272.039871	76.400000
2273.629265	51.600000
2275.213356	82.600000
2276.798809	51.800000
2278.382293	56.200000
2279.968802	54.400000
2281.551678	69.800000
2283.134250	57.200000
2284.716520	47.800000
2286.295159	62.800000
2287.876822	61.000000
2289.454858	40.200000
2291.035916	51.600000
2292.613347	58.000000
2294.188815	64.400000
2295.767305	62.000000
2297.342170	58.000000
2298.916735	74.400000
2300.491000	51.800000
2302.064964	56.600000
2303.638628	49.600000
2305.211991	45.400000
2306.781736	54.800000
2308.351182	50.600000
2309.923647	81.800000
2311.490837	69.200000
2313.061044	76.800000
2314.627637	72.800000
2316.195590	79.400000
2317.761588	56.000000
2319.327288	80.800000
2320.892690	48.000000
2322.456139	47.600000
2324.020947	70.200000
2325.582146	55.000000
2327.146360	82.600000
2328.705313	82.800000
2330.267279	62.200000
2331.827295	60.400000
2333.387015	53.000000
2334.944786	70.000000
2336.502263	61.200000
2338.059444	71.000000
2339.614679	67.000000
2341.169619	72.800000
2342.724266	76.400000
2344.278619	75.000000
2345.832678	73.000000
2347.386444	53.200000
2348.938265	58.000000
2350.488143	74.400000
2352.041029	61.400000
2353.588673	54.200000
2355.139324	49.200000
2356.686385	41.000000
2358.234803	66.800000
2359.782929	50.000000
2361.327468	81.600000
2362.873364	55.600000
2364.417321	52.600000
2365.962636	54.800000
2367.504366	45.200000
2369.047454	69.200000
2370.588605	50.600000
2372.129467	51.400000
2373.670040	36.800000
2375.210324	80.200000
2376.750319	66.000000
2378.286735	49.000000
2379.826153	77.200000
2381.361994	57.000000
2382.899191	36.400000
2384.432814	49.200000
2385.969436	56.800000
2387.504127	67.600000
2389.036889	63.800000
2390.569365	72.200000
2392.099912	57.600000
2393.633457	61.000000
2395.161791	45.600000
2396.691481	61.000000
2398.220886	73.600000
2399.750006	57.800000
2401.278840	77.000000
2402.802470	60.400000
2404.330735	74.000000
2405.853797	54.000000
2407.381494	55.000000
2408.902350	59.400000
2410.427840	60.400000
2411.949770	82.800000
2413.473054	85.600000
2414.994418	90.800000
2416.513862	76.000000
2418.034661	89.400000
2419.553541	96.000000
2421.072139	73.400000
2422.588820	66.000000
2424.106856	84.000000
2425.624610	74.600000
2427.138812	79.800000
2428.652734	66.800000
2430.166377	86.800000
2431.681373	62.400000
2433.192821	74.000000
2434.705624	59.800000
2436.216514	83.400000
2437.727124	42.800000
2439.235823	71.200000
2440.747509	68.000000
2442.255651	52.000000
2443.763514	63.000000
2445.271100	70.400000
2446.775146	67.600000
2448.282176	63.000000
2449.787298	52.200000
2451.292143	64.000000
2452.795081	39.400000
2454.297742	62.800000
2455.800127	65.200000
2457.300607	79.400000
2458.802440	56.600000
2460.302369	63.200000
2461.802022	62.600000
2463.301400	66.400000
2464.798875	50.400000
2466.294448	65.000000
2467.793001	54.000000
2469.288026	77.200000
2470.784403	50.600000
2472.277254	72.400000
2473.771457	79.600000
2475.265387	69.800000
2476.755794	68.800000
2478.249178	50.600000
2479.740663	51.400000
2481.230252	54.200000
2482.719570	32.400000
2484.206991	54.600000
2485.697388	76.200000
2487.184266	64.800000
2488.672496	81.000000
2490.157210	69.400000
2491.641653	66.000000
2493.127448	77.800000
2494.611350	68.600000
2496.096604	62.000000
2497.576724	53.400000
2499.059816	71.800000
2500.541018	67.000000
2502.021951	71.800000
2503.500995	59.000000
2504.979771	58.600000
2506.458278	65.000000
2507.936516	44.200000
2509.414486	62.600000
2510.888952	57.600000
2512.366386	51.400000
2513.840317	79.600000
2515.315599	63.200000
2516.790613	48.600000
2518.262126	60.200000
2519.734990	73.000000
2521.205971	73.400000
2522.678301	60.200000
2524.145519	67.800000
2525.615703	53.800000
2527.084005	72.200000
2528.552043	64.600000
2530.019816	69.000000
2531.487324	71.000000
2532.954567	55.600000
2534.418319	66.200000
2535.883420	62.600000
2537.346644	71.800000
2538.811217	77.800000
2540.272301	45.400000
2541.734736	60.200000
2543.196907	63.600000
2544.655591	78.200000
2546.118848	42.400000
2547.577008	73.400000
2549.036517	51.000000
2550.490933	79.200000
2551.949919	82.400000
2553.407032	89.400000
2554.862275	58.600000
2556.317257	77.400000
2557.770369	63.800000
2559.224830	61.400000
2560.677422	53.400000
2562.129754	62.200000
2563.580218	82.200000
2565.033638	70.800000
2566.481976	43.400000
2567.933270	50.200000
2569.382697	74.000000
2570.828653	87.400000
2572.277563	72.200000
2573.723002	82.600000
2575.169790	48.000000
2576.614714	78.200000
2578.059381	46.800000
2579.505395	74.400000
2580.947942	65.400000
2582.391837	62.600000
2583.832267	80.000000
2585.274045	73.800000
2586.713963	96.000000
2588.155228	47.600000
2589.593031	57.400000
2591.033784	53.400000
2592.469474	74.600000
2593.908114	57.800000
2595.344897	64.200000
2596.779823	86.400000
2598.217698	71.000000
2599.650515	64.600000
2601.084679	84.600000
2602.516988	92.200000
2603.950644	56.600000
2605.382447	48.000000
2606.813997	81.600000
2608.245293	46.200000
2609.674738	64.000000
2611.103930	75.000000
2612.531271	85.800000
2613.959959	28.000000
2615.388394	70.600000
2616.813383	79.800000
2618.239717	39.200000
2619.664203	58.200000
2621.090035	59.400000
2622.512423	60.800000
2623.936157	76.400000
2625.358045	70.600000
2626.779682	77.000000
2628.199474	84.800000
2629.620612	67.400000
2631.041500	82.200000
2632.458950	108.000000
2633.879339	62.600000
2635.296291	45.400000
2636.712995	89.600000
2638.129450	92.400000
2639.545657	47.800000
2640.961615	70.200000
2642.375733	85.200000
2643.789604	88.600000
2645.201635	66.200000
2646.615011	59.800000
2648.024957	86.200000
2649.437839	82.600000
2650.847292	56.200000
2652.256499	59.000000
2653.663870	85.000000
2655.074175	96.400000
2656.482644	68.200000
2657.889278	87.200000
2659.295667	95.800000
2660.700222	64.600000
2662.106121	98.600000
2663.510187	100.600000
2664.914009	61.400000
2666.317586	79.800000
2667.719331	91.000000
2669.122420	85.600000
2670.522092	59.800000
2671.923107	88.800000
2673.320705	95.800000
2674.721234	87.800000
2676.118348	71.400000
2677.516805	76.000000
2678.913434	72.200000
2680.309822	48.600000
2681.705967	69.400000
2683.100286	89.000000
2684.495948	57.400000
2685.888200	93.600000
2687.281796	78.600000
2688.673567	54.000000
2690.066680	80.000000
2691.457970	64.600000
2692.847437	55.200000
2694.236665	70.200000
2695.625652	57.800000
2697.015982	57.800000
2698.401327	46.600000
2699.789597	91.600000
2701.176046	79.400000
2702.562256	86.400000
2703.948227	66.800000
2705.330800	85.400000
2706.714714	58.400000
2708.098391	74.800000
2709.481830	71.400000
2710.861873	69.800000
2712.243258	104.000000
2713.622827	68.200000
2715.003738	63.400000
2716.382834	43.600000
2717.760115	81.400000
2719.138738	62.000000
2720.515548	42.200000
2721.892122	64.600000
2723.268460	35.000000
2724.642986	65.200000
2726.018853	82.600000
2727.391333	82.000000
2728.766730	60.200000
2730.137165	55.600000
2731.508942	47.000000
2732.880485	69.600000
2734.250219	37.400000
2735.621293	55.400000
2736.990560	61.800000
2738.359593	56.600000
2739.726819	47.800000
2741.093813	47.600000
2742.460574	66.200000
2743.827102	57.000000
2745.191826	56.200000
2746.556317	54.200000
2747.920576	47.000000
2749.284604	60.400000
2750.648399	50.000000
2752.008821	65.800000
2753.372154	61.200000
2754.730544	29.600000
2756.091844	49.000000
2757.449773	63.600000
2758.810612	80.400000
2760.169650	58.800000
2761.525320	47.600000
2762.883899	34.400000
2764.239110	69.600000
2765.594092	56.600000
2766.947277	44.400000
2768.303369	50.200000
2769.656097	55.000000
2771.008596	84.800000
2772.360867	34.200000
2773.714477	70.600000
2775.064725	80.800000
2776.413180	53.800000
2777.764539	60.200000
2779.112539	52.800000
2780.461878	46.800000
2781.809424	45.000000
2783.156743	46.600000
2784.503836	19.000000
2785.849138	53.800000
2787.194214	36.200000
2788.539064	48.600000
2789.883688	47.600000
2791.224959	42.200000
2792.567569	59.800000
2793.909954	42.600000
2795.252113	54.400000
2796.590923	39.800000
2797.932633	40.800000
2799.270994	46.600000
2800.610693	55.000000
2801.948606	50.200000
2803.284735	50.200000
2804.620641	61.400000
2805.957883	65.400000
2807.293342	75.800000
2808.628578	56.600000
2809.962032	44.400000
2811.296822	52.200000
2812.628271	75.200000
2813.962616	61.600000
2815.292063	48.200000
2816.622847	66.200000
2817.953409	57.400000
2819.282192	60.800000
2820.612312	58.600000
2821.940652	54.600000
2823.268772	25.200000
2824.595115	29.200000
2825.922793	45.800000
2827.247139	56.000000
2828.572820	51.600000
2829.896727	65.800000
2831.220413	58.800000
2832.545435	58.600000
2833.867128	42.600000
2835.188601	45.000000
2836.509856	32.200000
2837.830892	75.800000
2839.150156	58.000000
2840.470755	42.600000
2841.789582	63.600000
2843.108191	67.800000
2844.425030	78.600000
2845.741651	59.600000
2847.058054	68.800000
2848.372689	63.600000
2849.688658	8.200000
2851.001307	53.400000
2852.315292	56.200000
2853.629060	39.600000
2854.942611	44.200000
2856.254395	47.800000
2857.564414	39.800000
2858.875767	52.200000
2860.183804	27.400000
2861.493177	58.800000
2862.802334	32.200000
2864.111276	57.600000
2865.418455	65.000000
2866.723870	65.000000
2868.030620	55.200000
2869.335607	48.600000
2870.640381	82.400000
2871.943393	33.200000
2873.249287	50.600000
2874.550326	49.800000
2875.852698	43.200000
2877.153311	83.200000
2878.455258	33.600000
2879.756992	62.000000
2881.055422	36.800000
2882.355185	74.400000
2883.653191	53.000000
2884.950985	74.600000
2886.247022	47.200000
2887.544393	86.600000
2888.840008	64.200000
2890.135413	76.400000
2891.430606	60.600000
2892.722501	74.000000
2894.017273	55.600000
2895.308749	63.400000
2896.601557	67.800000
2897.894155	55.800000
2899.183458	50.000000
2900.474094	72.200000
2901.762980	53.000000
2903.053197	58.000000
2904.340123	50.200000
2905.628381	56.400000
2906.914890	50.400000
2908.201190	77.800000
2909.487282	64.600000
2910.771626	62.600000
2912.058842	80.000000
2913.341231	64.400000
2914.624952	62.600000
2915.906926	33.800000
2917.188694	45.800000
2918.468716	46.200000
2919.751608	47.000000
2921.032755	57.200000
2922.310620	70.600000
2923.591354	70.200000
2924.868807	40.800000
2926.146055	73.200000
2927.421560	63.600000
2928.699933	67.000000
2929.973491	57.000000
2931.249917	68.600000
2932.524602	48.200000
2933.797547	63.200000
2935.071822	23.800000
2936.344358	52.600000
2937.616690	61.200000
2938.885749	53.200000
2940.157673	60.800000
2941.427859	66.400000
2942.697841	53.800000
2943.967620	52.400000
2945.235662	46.800000
2946.501969	49.000000
2947.768073	47.800000
2949.035508	52.800000
2950.301207	50.600000
2951.566704	75.800000
2952.831999	78.600000
2954.094030	63.200000
2955.357390	18.400000
2956.620549	75.600000
2957.881975	57.600000
2959.144731	53.200000
2960.405756	47.000000
2961.665050	43.600000
2962.924143	51.400000
2964.183036	49.400000
2965.441729	62.200000
2966.700222	45.600000
2967.956986	69.200000
2969.213551	63.000000
2970.468387	44.400000
2971.724553	60.200000
2972.977463	67.800000
2974.231703	48.200000
2975.485744	18.800000
2976.738059	63.400000
2977.990176	48.200000
2979.240568	52.200000
2980.493815	31.200000
2981.742285	37.200000
2982.993609	48.000000
2984.241685	39.600000
2985.489563	59.800000
2986.737244	46.200000
2987.984729	66.000000
2989.230492	66.200000
2990.476058	57.600000
2991.722953	66.200000
2992.966602	51.200000
2994.211580	37.200000
2995.453315	34.400000
2996.697901	55.000000
2997.940768	37.000000
2999.180393	46.800000
3000.422870	57.400000
3001.662106	51.200000
3002.902670	62.400000
3004.141517	48.200000
3005.380170	19.000000
3006.617107	52.800000
3007.855371	56.800000
3009.091921	54.400000
3010.328277	58.000000
3011.564439	64.200000
3012.798887	30.400000
3014.033142	37.200000
3015.267204	17.000000
3016.499554	52.600000
3017.730192	50.800000
3018.963676	37.600000
3020.195449	37.200000
3021.425510	39.000000
3022.655380	53.200000
3023.883540	47.200000
3025.113027	26.800000
3026.340804	74.200000
3027.568390	73.000000
3028.797302	62.400000
3030.021472	57.800000
3031.248485	52.200000
3032.472275	54.400000
3033.697390	64.200000
3034.920799	40.000000
3036.144019	48.400000
3037.365533	65.800000
3038.589888	64.000000
3039.809508	65.400000
3041.030454	68.200000
3042.251210	47.400000
3043.470263	70.000000
3044.690642	61.400000
3045.907804	66.800000
3047.126291	64.000000
3048.343077	52.400000
3049.559674	50.200000
3050.776084	46.600000
3051.989280	57.600000
3053.205314	52.400000
3054.418136	45.200000
3055.633795	56.600000
3056.844731	35.800000
3058.056993	45.800000
3059.269067	48.600000
3060.480955	63.000000
3061.691145	51.200000
3062.901150	27.400000
3064.110968	27.400000
3065.319090	49.800000
3066.527026	56.800000
3067.733268	73.400000
3068.940834	34.000000
3070.146705	38.300000
3071.352391	42.600000
3072.557893	58.800000
3073.761701	48.600000
3074.966833	50.000000
3076.170272	38.000000
3077.372019	58.000000
3078.573583	41.400000
3079.774963	46.800000
3080.976159	55.600000
3082.175665	47.200000
3083.374987	45.200000
3084.575633	65.600000
3085.774590	34.200000
3086.970351	45.800000
3088.168942	60.400000
3089.364339	45.800000
3090.561060	43.000000
3091.754588	76.800000
3092.950944	50.000000
3094.145613	37.400000
3095.337092	56.800000
3096.532902	45.000000
3097.724019	37.800000
3098.916459	44.600000
3100.105710	48.800000
3101.297788	43.200000
3102.488182	46.200000
3103.675389	45.200000
3104.863920	59.600000
3106.053773	55.400000
3107.240441	43.000000
3108.426930	58.400000
3109.613239	33.000000
3110.800871	45.000000
3111.985320	51.600000
3113.168089	53.600000
3114.353682	55.000000
3115.537594	56.600000
3116.719828	47.400000
3117.901884	46.600000
3119.083761	57.200000
3120.265460	40.200000
3121.445482	38.600000
3122.623826	42.400000
3123.804992	37.400000
3124.982982	54.800000
3126.160795	44.800000
3127.338431	48.400000
3128.514392	46.200000
3129.690177	24.600000
3130.867282	60.200000
3132.042714	53.400000
3133.216472	29.600000
3134.388557	51.000000
3135.561963	75.000000
3136.735194	38.600000
3137.906752	27.000000
3139.079632	36.800000
3140.249344	36.200000
3141.420377	52.800000
3142.589739	51.200000
3143.757432	37.400000
3144.927940	29.600000
3146.093789	62.600000
3147.263948	41.400000
3148.429449	21.000000
3149.594777	32.200000
3150.759931	70.400000
3151.924912	67.800000
3153.091212	52.800000
3154.252859	52.800000
3155.415827	40.400000
3156.578621	50.800000
3157.741243	60.600000
3158.902200	30.000000
3160.062984	71.000000
3161.223597	68.200000
3162.382545	31.600000
3163.541321	47.800000
3164.699926	82.800000
3165.858359	43.000000
3167.016620	73.600000
3168.173219	42.600000
3169.328157	39.000000
3170.484414	43.000000
3171.639011	49.600000
3172.793436	63.400000
3173.946202	42.800000
3175.098798	43.800000
3176.251224	52.400000
3177.403479	44.200000
3178.555565	48.400000
3179.704504	59.000000
3180.856250	44.000000
3182.006339	41.000000
3183.154770	52.000000
3184.303033	44.600000
3185.451127	46.000000
3186.599052	24.200000
3187.745321	59.800000
3188.891422	55.400000
3190.035869	52.000000
3191.180147	35.200000
3192.324258	51.200000
3193.469687	26.800000
3194.611977	41.400000
3195.754099	40.000000
3196.896055	32.000000
3198.037843	39.400000
3199.179464	46.800000
3200.317949	52.800000
3201.457753	31.200000
3202.598873	39.600000
3203.736859	36.800000
3204.873196	64.000000
3206.009367	50.400000
3207.146856	29.600000
3208.282696	63.600000
3209.419852	37.600000
3210.552397	54.000000
3211.689222	57.600000
3212.821436	59.800000
3213.954968	49.200000
3215.088334	38.000000
3216.218573	47.600000
3217.351611	45.200000
3218.481521	51.800000
3219.612749	42.400000
3220.740851	39.800000
3221.871751	51.400000
3223.001006	60.200000
3224.128617	70.600000
3225.253107	37.000000
3226.381872	58.000000
3227.507515	48.600000
3228.632995	45.400000
3229.756834	50.600000
3230.883468	47.400000
3232.005503	52.600000
3233.128855	40.200000
3234.252045	29.800000
3235.375073	50.600000
3236.496461	39.400000
3237.617688	38.400000
3238.737276	45.000000
3239.856703	68.600000
3240.974493	34.800000
3242.095074	41.800000
3243.212542	48.000000
3244.329849	61.800000
3245.446995	49.600000
3246.562506	55.800000
3247.679332	42.000000
3248.793047	37.400000
3249.909553	33.000000
3251.024423	68.400000
3252.136185	47.400000
3253.247788	52.200000
3254.360706	42.800000
3255.473464	44.600000
3256.583116	42.600000
3257.694083	40.200000
3258.804891	53.000000
3259.914067	27.400000
3261.021612	62.200000
3262.130472	54.400000
3263.239173	51.800000
3264.344772	47.400000
3265.451686	49.000000
3266.556970	38.600000
3267.663568	43.600000
3268.767066	49.600000
3269.871878	34.400000
3270.976533	77.600000
3272.078090	37.600000
3273.179490	52.400000
3274.282204	57.800000
3275.384761	37.400000
3276.484223	51.800000
3277.586467	38.200000
3278.685617	43.000000
3279.783141	37.400000
3280.880510	30.200000
3281.980662	38.000000
3283.077720	62.600000
3284.174624	15.400000
3285.271372	25.800000
3286.363561	32.000000
3287.460000	40.600000
3288.554816	52.600000
3289.649477	37.600000
3290.742517	36.600000
3291.835403	48.400000
3292.926668	40.000000
3294.019246	22.400000
3295.110204	42.200000
3296.199542	51.800000
3297.288727	24.200000
3298.379224	22.400000
3299.466637	52.400000
3300.553898	39.600000
3301.642471	73.000000
3302.730891	47.400000
3303.814764	31.800000
3304.902879	43.000000
3305.987913	27.200000
3307.071331	57.400000
3308.156061	44.600000
3309.239175	54.800000
3310.323601	70.400000
3311.404949	56.600000
3312.487609	37.400000
3313.568655	42.600000
3314.649550	53.800000
3315.728832	36.400000
3316.807963	37.800000
3317.888406	39.600000
3318.965774	54.000000
3320.044454	32.800000
3321.121522	36.800000
3322.198440	63.200000
3323.273748	38.400000
3324.348906	38.400000
3325.425375	40.400000
3326.498773	46.000000
3327.572023	31.600000
3328.646584	15.000000
3329.719535	44.800000
3330.790879	55.000000
3331.863533	31.800000
3332.933120	56.200000
3334.004018	45.200000
3335.073309	17.000000
3336.143911	26.000000
3337.212906	23.200000
3338.280295	74.600000
3339.346079	33.200000
3340.416089	24.600000
3341.483036	45.200000
3342.546921	37.400000
3343.613574	33.200000
3344.678623	51.800000
3345.742068	41.000000
3346.805366	70.600000
3347.868519	35.000000
3348.931525	44.200000
3349.994384	20.200000
3351.055642	57.400000
3352.113843	59.600000
3353.176265	35.000000
3354.235630	18.800000
3355.294851	21.000000
3356.355380	50.400000
3357.411400	28.800000
3358.470185	39.800000
3359.524462	29.600000
3360.581503	26.200000
3361.636945	26.600000
3362.693696	-18.200000
3363.748850	50.400000
3364.802406	19.600000
3365.854365	59.600000
3366.909086	47.200000
3367.960759	40.000000
3369.012287	11.800000
3370.065125	31.200000
3371.114915	39.000000
3372.166014	58.200000
3373.214066	25.800000
3374.264879	39.000000
3375.312646	41.200000
3376.360271	35.000000
3377.407754	31.200000
3378.453643	46.400000
3379.500842	28.000000
3380.544997	57.400000
3381.591911	39.400000
3382.637233	35.000000
3383.679515	43.600000
3384.721655	67.800000
3385.765104	42.000000
3386.808411	40.000000
3387.850128	16.000000
3388.891704	31.200000
3389.933140	25.400000
3390.972987	49.000000
3392.011245	52.800000
3393.050811	32.600000
3394.090237	46.800000
3395.128075	40.200000
3396.164326	18.000000
3397.200437	43.000000
3398.237856	55.600000
3399.272242	32.600000
3400.307936	22.400000
3401.343490	55.800000
3402.376012	22.000000
3403.411288	49.200000
3404.443533	46.000000
3405.475640	42.800000
3406.506163	52.800000
3407.537994	55.800000
3408.569686	39.600000
3409.598350	47.000000
3410.626877	20.800000
3411.656710	41.400000
3412.686406	33.200000
3413.713075	58.800000
3414.741052	29.800000
3415.766004	56.200000
3416.793706	49.600000
3417.818385	55.200000
3418.844370	36.800000
3419.868776	16.400000
3420.893044	25.200000
3421.915734	38.000000
3422.938289	50.400000
3423.962148	41.200000
3424.982989	22.800000
3426.003693	42.600000
3427.025703	39.200000
3428.044695	23.000000
3429.063552	35.400000
3430.083715	43.600000
3431.100860	42.200000
