-118.059454	7.283791
-115.389854	11.036264
-112.723189	13.482767
-110.057276	14.812288
-107.394295	15.213811
-104.729885	14.876324
-102.068405	13.988811
-99.405496	12.995105
-96.747693	11.148951
-94.088461	7.297203
-91.429977	8.145455
-88.774417	10.111189
-86.117429	13.927972
-83.465539	12.971329
-80.812218	12.253846
-78.161818	13.165734
-75.509988	13.702098
-72.863249	11.851748
-70.215081	11.951748
-67.567655	11.862937
-64.923143	9.834965
-62.277203	9.383217
-59.636344	9.351049
-56.994056	10.946853
-54.354677	11.527273
-51.713868	9.524476
-49.073800	9.239860
-46.438804	8.526573
-43.802380	10.686713
-41.168858	12.514685
-38.533908	13.250350
-35.904023	13.610490
-33.270546	14.990909
-30.642131	16.611189
-28.014450	16.325874
-25.385340	9.623077
-22.761287	-23.626573
-20.133645	-115.444755
-17.511056	-297.915385
-14.889199	-357.452448
-12.268072	347.937063
-9.647675	1589.611189
-7.030167	2630.439161
-4.411230	3355.062238
-1.795178	3762.377622
0.820145	3845.749650
3.434741	3605.127273
6.046454	3049.202797
8.659596	2196.385315
11.267704	1129.860839
13.879394	60.934266
16.486053	-564.265035
19.094140	-385.604895
21.701503	-33.498601
24.303841	20.527972
26.909757	24.191608
29.510651	25.635664
32.112973	25.205594
34.710278	25.172028
37.311158	26.184615
39.907023	24.412587
42.504317	21.968531
45.100891	22.502098
47.692456	19.771329
50.285449	20.967133
52.875581	22.207692
55.467141	24.246154
58.055841	25.358042
60.645968	23.782517
63.231096	24.952448
65.817652	27.740559
68.403494	28.227273
70.986482	29.123077
73.570896	27.531469
76.148182	26.676923
78.729034	25.698601
81.307037	27.116084
83.884330	30.144755
86.463049	31.959441
89.036786	32.771329
91.611951	32.802797
94.184272	36.276224
96.755885	38.186014
99.324658	41.080420
101.894858	44.406993
104.462220	41.782517
107.031007	28.879720
109.596958	6.297203
112.160074	-9.472028
114.726746	46.421678
117.284197	202.676923
119.847333	424.008392
122.405509	650.365734
124.967240	860.569231
127.524014	1053.471329
130.082215	1247.639860
132.635462	1439.148951
135.188012	1627.013287
137.744112	1788.681119
140.295264	1925.298601
142.845719	2054.999301
145.395476	2214.651049
147.942414	2377.111189
150.488657	2483.737762
153.036325	2512.070629
155.583297	2494.599301
158.125334	2469.769930
160.666677	2476.638462
163.207327	2528.522378
165.749403	2645.981119
168.288667	2816.191608
170.825123	3046.746154
173.360887	3331.369930
175.898077	3686.203497
178.434576	4125.518881
180.968269	4706.997203
183.499158	5498.811189
186.029360	6580.668531
188.560986	8049.031469
191.089811	9974.218881
193.615837	12331.530769
196.141177	14946.123077
198.667942	17512.675524
201.191911	19718.816084
203.715195	21250.956643
206.237794	21898.967832
208.757600	21548.011189
211.276723	20303.342657
213.795163	18312.769231
216.315027	15870.976224
218.827890	13327.390210
221.344284	10986.714685
223.859996	9027.357343
226.370818	7490.755245
228.883065	6333.576224
231.392530	5485.388112
233.901316	4842.234266
236.409423	4352.537762
238.918955	3945.617483
241.423606	3636.483916
243.927581	3361.490210
246.432980	3120.684615
248.933504	2948.937762
251.437552	2954.887413
253.934628	3170.020280
256.435228	3480.763636
258.933056	3736.436364
261.430211	3872.356643
263.926693	3870.108392
266.418312	3737.574825
268.913451	3464.749650
271.405823	3075.928671
273.897525	2597.920280
276.386464	2085.132867
278.876827	1666.168531
281.364427	1456.092308
283.849268	1425.272727
286.337624	1437.731469
288.819040	1421.325175
291.303970	1394.783916
293.784055	1367.432168
296.267652	1343.134965
298.746406	1325.956643
301.226584	1308.986014
303.704009	1300.533566
306.180771	1295.932867
308.656870	1301.393007
311.130220	1316.828671
313.602908	1344.062238
316.074935	1371.684615
318.546301	1391.197902
321.014922	1403.544056
323.482885	1405.616783
325.952269	1402.809091
328.416831	1395.885315
330.884897	1383.525874
333.348143	1360.158741
335.810731	1310.608392
338.272663	1254.514685
340.733938	1372.023077
343.192479	1894.007692
345.652442	2699.887413
348.109672	3463.675524
350.566248	4021.709091
353.022170	4328.895804
355.475362	4378.739860
357.929977	4177.018182
360.379790	3733.181818
362.833099	3078.720280
365.281610	2292.600000
367.729469	1540.603497
370.178751	1091.060839
372.623239	1051.893706
375.069149	1148.486014
377.514409	1166.498601
379.956951	1265.774825
382.398845	1602.851748
384.840092	2065.413986
387.278623	2486.352448
389.718576	2834.625175
392.155815	3119.577622
394.590342	3296.111888
397.028357	3310.769930
399.461595	3150.662238
401.896254	2839.354545
404.326141	2409.862238
406.759513	1976.735664
409.188115	1722.149650
411.616075	1665.132867
414.045457	1635.316783
416.470073	1584.130070
418.896111	1588.100699
421.321508	1653.058042
423.746265	1738.125175
426.166264	1812.739860
428.587684	1891.306294
431.006407	1990.366434
433.426551	2114.495105
435.844000	2262.379720
438.262869	2448.035664
440.679045	2639.159441
443.090473	2735.208392
445.505379	2798.241958
447.917594	4016.869930
450.329175	8330.055245
452.740122	15170.837762
455.148383	24698.933566
457.556011	35612.458042
459.963007	45115.339161
462.369372	51603.839161
464.773054	54336.595105
467.176106	53066.541259
469.578528	47895.889510
471.980320	39414.550350
474.379435	29040.998601
476.779969	19288.200000
479.179874	12136.234965
481.575056	7312.314685
483.973705	5484.744755
486.367634	5272.997203
488.760937	4982.474825
491.153614	4591.939161
493.545666	4203.765035
495.939136	3915.762937
498.327894	3793.455245
500.713986	3780.779021
503.101498	3778.709790
505.488387	3757.288811
507.872612	3692.388112
510.258255	3579.986713
512.641237	3404.895105
515.021558	3171.264336
517.403298	2879.660839
519.782379	2563.773427
522.162879	2274.224476
524.540721	2092.986713
526.915908	2028.502797
529.290477	2001.688811
531.666464	1965.422378
534.039799	1928.190909
536.414551	1893.551049
538.784618	1861.514685
541.154069	1830.416783
543.524938	1799.797203
545.891127	1765.839161
548.258734	1733.107692
550.623695	1697.822378
552.988043	1654.100699
555.351778	1613.439161
557.716931	1577.179021
560.077412	1542.831469
562.439311	1513.009790
564.798569	1488.151748
567.155190	1472.658042
569.515255	1459.202797
571.868629	1448.064336
574.225448	1437.821678
576.579632	1428.118881
578.933208	1418.976923
581.286175	1410.413986
583.636510	1407.467832
585.988263	1402.679720
588.333339	1402.381119
590.683879	1398.162238
593.027745	1394.255245
595.377073	1385.573427
597.721752	1375.606993
600.063807	1365.123077
602.407279	1354.700699
604.748128	1342.777622
607.088375	1328.983217
609.426001	1318.941259
611.767062	1311.958741
614.103485	1306.355245
616.441325	1302.116783
618.776548	1295.993007
621.109155	1292.702098
623.443178	1282.506993
625.774587	1280.454545
628.105398	1276.616783
630.435612	1272.856643
632.765227	1268.199301
635.090220	1265.520979
637.420653	1262.972727
639.746466	1261.231469
642.069671	1256.739161
644.394293	1257.134965
646.716309	1251.231469
649.037731	1243.103497
651.356551	1229.898601
653.676786	1220.450350
655.996428	1205.464336
658.313469	1194.721678
660.629918	1188.225175
662.943769	1189.923776
665.259036	1190.781818
667.571706	1193.529371
669.885791	1198.930769
672.195276	1209.808392
674.506177	1217.668531
676.814485	1226.654545
679.122205	1243.890909
681.431339	1281.155245
683.735881	1365.364336
686.039837	1497.393706
688.343207	1654.306294
690.647991	1794.759441
692.948189	1887.648951
695.249801	1924.469930
697.550829	1907.783217
699.847274	1841.776923
702.145135	1733.307692
704.442412	1589.835664
706.739106	1444.594406
709.031224	1322.788112
711.326753	1256.584615
713.617708	1231.451049
715.910078	1232.609790
718.199873	1227.904196
720.489087	1221.479720
722.777722	1213.092308
725.063784	1206.583916
727.351261	1201.796503
729.636166	1200.977622
731.920494	1202.816783
734.202253	1208.655245
736.485426	1212.300000
738.768022	1214.376224
741.046062	1219.988112
743.325517	1222.165734
745.604395	1219.924476
747.882699	1219.994406
750.156453	1216.676224
752.431620	1210.913287
754.706214	1206.646853
756.978249	1205.347552
759.251697	1206.870629
761.522587	1212.100000
763.790921	1217.532168
766.060668	1224.713986
768.327861	1231.686014
770.594483	1237.883217
772.860535	1241.850350
775.124036	1248.598601
777.388950	1257.635664
779.653294	1266.973427
781.913109	1285.013287
784.174336	1310.381818
786.434996	1345.634266
788.693110	1386.542657
790.948679	1425.860140
793.207639	1474.488112
795.460100	1575.872727
797.717927	1787.472028
799.971236	2073.006993
802.222005	2368.945455
804.474186	2600.255245
806.723828	2743.949650
808.974883	2783.905594
811.221426	2713.541259
813.469381	2544.818182
815.714802	2293.454545
817.961634	1988.144056
820.207905	1693.187413
822.449671	1476.157343
824.694821	1386.083217
826.933498	1364.986014
829.175557	1362.813986
831.413118	1355.488811
833.652091	1353.253846
835.888537	1342.522378
838.126394	1329.249650
840.361726	1329.907692
842.594535	1334.574126
844.828755	1331.672727
847.060452	1334.386713
849.291595	1327.443357
851.522183	1324.675524
853.752217	1318.791608
855.981697	1310.215385
858.206695	1302.904196
860.435068	1289.080420
862.658961	1275.186014
864.884266	1259.772727
867.105095	1257.116084
869.329296	1252.047552
871.549024	1247.767133
873.770162	1250.522378
875.990750	1254.739860
878.208829	1264.702797
880.428317	1280.669930
882.643339	1294.196503
884.857814	1310.101399
887.071740	1320.427972
889.285120	1330.438462
891.497952	1328.672727
893.710238	1327.551748
895.920021	1323.000699
898.129259	1313.976923
900.337952	1301.597203
902.544146	1296.623077
904.751749	1292.520280
906.956854	1292.902797
909.161416	1288.901399
911.363483	1289.718881
913.566959	1300.462937
915.767941	1305.613287
917.968381	1309.993007
920.170230	1311.876923
922.365688	1311.027273
924.564505	1298.991608
926.758883	1286.618182
928.956619	1275.576923
931.149919	1262.213287
933.344628	1251.815385
935.536851	1234.836364
937.728535	1220.681119
939.919682	1221.035664
942.108346	1212.480420
944.296474	1213.095105
946.482121	1217.918182
948.671120	1220.378322
950.855696	1221.629371
953.039737	1222.665035
955.227128	1225.498601
957.406215	1222.352448
959.588653	1222.934266
961.770557	1218.472028
963.949986	1217.752448
966.126943	1219.481119
968.305308	1217.152448
970.485080	1216.809790
972.658503	1218.367832
974.835272	1216.062937
977.007634	1221.917483
979.181404	1216.230070
981.350770	1210.469930
983.523480	1199.628671
985.693725	1194.037063
987.863441	1186.175524
990.032628	1198.462238
992.197418	1198.640559
994.365549	1197.338462
996.529286	1203.145455
998.694429	1212.647552
1000.857113	1218.372028
1003.019272	1225.166434
1005.178974	1221.798601
1007.338151	1216.403497
1009.498735	1215.952448
1011.656865	1211.595804
1013.814470	1217.686713
1015.971552	1215.686014
1018.128110	1211.074126
1020.280289	1209.914685
1022.433875	1217.949650
1024.586939	1222.386014
1026.737554	1219.127972
1028.889576	1222.036364
1031.037224	1232.018881
1033.188204	1229.384615
1035.334813	1240.772727
1037.480903	1247.847552
1039.626475	1258.502797
1041.773452	1257.059441
1043.914140	1268.965734
1046.058158	1271.215385
1048.199735	1265.460140
1050.340796	1260.444755
1052.483261	1267.258741
1054.619447	1295.876224
1056.758958	1331.869930
1058.894115	1362.000000
1061.032596	1398.476224
1063.166723	1418.978322
1065.300337	1432.662937
1067.435356	1443.272727
1069.566025	1446.797902
1071.698099	1458.278322
1073.827744	1469.644056
1075.956877	1481.422378
1078.085498	1502.541958
1080.213608	1514.093007
1082.339292	1521.207692
1084.464466	1502.997902
1086.591044	1467.817483
1088.713284	1416.039161
1090.836929	1362.430070
1092.956239	1315.388112
1095.080779	1276.258042
1097.199073	1260.192308
1099.318772	1255.219580
1101.436052	1247.976923
1103.552826	1243.118881
1105.669093	1240.883916
1107.782944	1247.362238
1109.898200	1231.339161
1112.009132	1226.780420
1114.123377	1226.102797
1116.233301	1223.215385
1118.344629	1219.156643
1120.455452	1219.490210
1122.561959	1221.368531
1124.671776	1221.262238
1126.777278	1223.925874
1128.884183	1229.880420
1130.984873	1237.092308
1133.090775	1247.443357
1135.192368	1253.946154
1137.295364	1272.016783
1139.397859	1291.692308
1141.494147	1313.386713
1143.595643	1342.482517
1145.692835	1396.007692
1147.789530	1501.152448
1149.885726	1712.119580
1151.981425	2009.953846
1154.076625	2333.922378
1156.169429	2604.824476
1158.263636	2792.994406
1160.351651	2860.424476
1162.444864	2801.522378
1164.531889	2631.597203
1166.622213	2365.636364
1168.708250	2035.827273
1170.797584	1706.276224
1172.880737	1450.167133
1174.965292	1315.255944
1177.051249	1255.890210
1179.132924	1244.041958
1181.216001	1238.332867
1183.296692	1236.520280
1185.376891	1228.602797
1187.456599	1223.419580
1189.535816	1222.808392
1191.612651	1217.891608
1193.687105	1210.154545
1195.764850	1206.648252
1197.838326	1204.512587
1199.913202	1202.672028
1201.983811	1196.667133
1204.055821	1199.110490
1206.125456	1198.074126
1208.196491	1201.083916
1210.267038	1200.060140
1212.333324	1207.325175
1214.401011	1210.023776
1216.466326	1226.467832
1218.533041	1241.023077
1220.595500	1256.410490
1222.661244	1276.388811
1224.722734	1291.348951
1226.785625	1303.559441
1228.846148	1305.760140
1230.906187	1304.177622
1232.965744	1296.402797
1235.022935	1279.370629
1237.079645	1261.256643
1239.133991	1238.195105
1241.191619	1228.409091
1243.246884	1210.172028
1245.297908	1196.748252
1247.350332	1188.140559
1249.402276	1179.883217
1251.451862	1170.744755
1253.500969	1167.910490
1255.549598	1165.623776
1257.597748	1165.353147
1259.645419	1170.128671
1261.688860	1169.599301
1263.735577	1168.686713
1265.779940	1168.811888
1267.823827	1166.754545
1269.865362	1161.239161
1271.904548	1160.811888
1273.947007	1158.915385
1275.985243	1155.649650
1278.024878	1156.272727
1280.064038	1150.234266
1282.098979	1146.234266
1284.135319	1143.210490
1286.169315	1137.164336
1288.204708	1130.975524
1290.235889	1126.755944
1292.268467	1125.555245
1294.300574	1121.084615
1296.330340	1127.115385
1298.361504	1129.658042
1300.388460	1130.202098
1302.416814	1129.853147
1304.440963	1123.297902
1306.468378	1114.368531
1308.491590	1112.341958
1310.516200	1105.185315
1312.538476	1103.117483
1314.562149	1103.569231
1316.583489	1102.956643
1318.604361	1104.693706
1320.624766	1108.564336
1322.640978	1114.445455
1324.658587	1118.430769
1326.673868	1122.004196
1328.692408	1115.390909
1330.706759	1116.829371
1332.718784	1112.672727
1334.734066	1111.068531
1336.745163	1113.315385
1338.757657	1115.570629
1340.765968	1119.475524
1342.777534	1124.455245
1344.783062	1127.682517
1346.791845	1130.775524
1348.796450	1133.576923
1350.804309	1131.676923
1352.811706	1125.874825
1354.813072	1124.523776
1356.815834	1117.774126
1358.818137	1118.876224
1360.819980	1112.978322
1362.821363	1109.181818
1364.820433	1108.213287
1366.819044	1103.965734
1368.817197	1100.355245
1370.814891	1095.406294
1372.808423	1090.131469
1374.803351	1087.678322
1376.797821	1087.772028
1378.791835	1085.302797
1380.783542	1086.551748
1382.774794	1088.766434
1384.763740	1086.525874
1386.754081	1079.383217
1388.743967	1080.155245
1390.731549	1079.200699
1392.718678	1076.457343
1394.703505	1073.657343
1396.689727	1070.541259
1398.673649	1069.455944
1400.657118	1070.750350
1402.640134	1073.324476
1404.620853	1073.647552
1406.602966	1075.106993
1408.582783	1077.567832
1410.562148	1073.829371
1412.537375	1074.116084
1414.515840	1072.227972
1416.492012	1074.702797
1418.467735	1072.490909
1420.443008	1073.200699
1422.415990	1074.288811
1424.388524	1078.260839
1426.360610	1082.941259
1428.332249	1083.302797
1430.299759	1086.237063
1432.272343	1093.225175
1434.237122	1092.841259
1436.206972	1090.352448
1438.172699	1091.265734
1440.139818	1093.073427
1442.104654	1087.945455
1444.065370	1089.228671
1446.031154	1090.167832
1447.990983	1093.324476
1449.952206	1098.352448
1451.914821	1098.495105
1453.873321	1100.718881
1455.831378	1100.080420
1457.788994	1098.776224
1459.746167	1091.757343
1461.701065	1084.888112
1463.657356	1076.088811
1465.611372	1069.114685
1467.564947	1071.806294
1469.516250	1073.336364
1471.468946	1078.107692
1473.419369	1077.976224
1475.369354	1083.211189
1477.318900	1087.987413
1479.266177	1090.476224
1481.211186	1095.811189
1483.157588	1091.594406
1485.103552	1091.707692
1487.049079	1087.547552
1488.992340	1078.835664
1490.935166	1082.289510
1492.875728	1077.567133
1494.817681	1072.100699
1496.757372	1064.450350
1498.696629	1070.056643
1500.635450	1062.875524
1502.572012	1062.010490
1504.509965	1060.802098
1506.445659	1058.427273
1508.380920	1059.186713
1510.313925	1055.021678
1512.246497	1052.788811
1514.178637	1061.239161
1516.110345	1065.553147
1518.039799	1070.918182
1519.970644	1072.260140
1521.901057	1075.932168
1523.827398	1070.285315
1525.755130	1069.923077
1527.680611	1067.157343
1529.605663	1065.690210
1531.530286	1062.386713
1533.454480	1063.053147
1535.376426	1066.489510
1537.299763	1064.825874
1539.220853	1061.602797
1541.139700	1063.387413
1543.059935	1058.047552
1544.977928	1058.113986
1546.895494	1058.963636
1548.810818	1061.211888
1550.727532	1065.282517
1552.640191	1074.141259
1554.556054	1081.639860
1556.469677	1087.474825
1558.381062	1090.167832
1560.293837	1088.136364
1562.202562	1084.102098
1564.112676	1080.002797
1566.022367	1073.666434
1567.931635	1070.911888
1569.838669	1069.170629
1571.743470	1071.392308
1573.649660	1075.611888
1575.553618	1086.413287
1577.457155	1098.058042
1579.360272	1100.476923
1581.261159	1105.023776
1583.163435	1105.586014
1585.063483	1099.740559
1586.964918	1095.056643
1588.862320	1094.418182
1590.759303	1087.740559
1592.655868	1081.546154
1594.553821	1079.753846
1596.445939	1077.139860
1598.341250	1081.888811
1600.236144	1086.234965
1602.128816	1088.113287
1604.021071	1094.424476
1605.911107	1092.671329
1607.800727	1094.415385
1609.689932	1096.851748
1611.578722	1097.194406
1613.465294	1093.678322
1615.353254	1086.065035
1617.237197	1082.444056
1619.122527	1080.321678
1621.007444	1079.474825
1622.890147	1085.562937
1624.774237	1087.298601
1626.654315	1091.936364
1628.535781	1082.444056
1630.415036	1078.257343
1632.295677	1072.204196
1634.170514	1070.528671
1636.050332	1069.481119
1637.926146	1065.609091
1639.801549	1061.453147
1641.678338	1050.394406
1643.549331	1049.762238
1645.423505	1051.040559
1647.293680	1042.262937
1649.167037	1039.674126
1651.038190	1030.831469
1652.907141	1036.198601
1654.777477	1032.537063
1656.643821	1032.435664
1658.511550	1029.723776
1660.377080	1029.903497
1662.243996	1022.082517
1664.106923	1019.744056
1665.971235	1029.084615
1667.833351	1023.756643
1669.695062	1019.275524
1671.558159	1021.130769
1673.419060	1024.134965
1675.277769	1029.617483
1677.136074	1014.693706
1678.995764	1009.919580
1680.849686	999.924476
1682.706782	999.939860
1684.563475	997.743357
1686.416191	1003.006993
1688.272079	1000.794406
1690.123993	993.966434
1691.975506	987.765734
1693.826618	984.608392
1695.677330	987.834965
1697.527641	980.974825
1699.375767	972.118182
1701.225278	966.177622
1703.069040	967.674825
1704.917751	971.305594
1706.760716	982.168531
1708.606848	991.892308
1710.449017	987.514685
1712.294352	983.296503
1714.133946	977.583916
1715.974924	973.066434
1717.817285	969.628671
1719.655690	965.534266
1721.495478	966.017483
1723.333091	960.128671
1725.170308	963.793007
1727.005352	959.208392
1728.841779	974.124476
1730.676034	970.950350
1732.509894	959.451049
1734.343360	952.290909
1736.172881	950.127273
1738.005560	946.944755
1739.834295	948.413287
1741.666187	968.111888
1743.494137	970.153147
1745.321696	965.640559
1747.148862	970.453846
1748.975637	969.909790
1750.802020	979.251049
1752.624467	974.453846
1754.450069	969.115385
1756.271736	968.469231
1758.094785	967.739161
1759.915672	965.954545
1761.736171	954.967832
1763.558051	958.459441
1765.374231	948.809790
1767.193563	943.456643
1769.008968	950.165035
1770.827523	944.660839
1772.642153	952.027273
1774.456396	958.492308
1776.270253	969.256643
1778.083723	969.648951
1779.895040	973.541958
1781.707737	968.205594
1783.520049	953.613986
1785.328443	953.169930
1787.138217	942.516783
1788.944077	939.485315
1790.753082	947.161538
1792.558174	943.488112
1794.364647	945.962238
1796.170736	949.092308
1797.972914	955.398601
1799.778237	946.783217
1801.579651	948.904196
1803.382445	946.606993
1805.181333	950.336364
1806.981602	947.838462
1808.781489	944.722378
1810.579234	942.748951
1812.376599	946.931469
1814.173584	937.570629
1815.970188	933.546853
1817.764653	931.270629
1819.560497	923.032867
1821.350686	918.881818
1823.145772	918.924476
1824.935206	920.475524
1826.727776	924.532168
1828.518211	926.897902
1830.306512	932.994406
1832.097948	929.014685
1833.883738	930.981818
1835.670908	928.063636
1837.455946	924.539860
1839.244118	918.788811
1841.028404	912.981119
1842.810560	906.878322
1844.594096	895.420280
1846.375503	880.130070
1848.158289	880.520979
1849.937194	891.397203
1851.717479	899.739161
1853.495637	904.315385
1855.275174	905.916783
1857.052586	911.378322
1858.827874	905.020280
1860.604540	910.364336
1862.379084	910.550350
1864.155006	897.593706
1865.925307	895.871329
1867.698736	891.525874
1869.470045	898.724476
1871.240983	907.391608
1873.013299	903.716084
1874.780001	900.541958
1876.549829	898.897203
1878.315793	897.300699
1880.084880	885.994406
1881.850106	893.745455
1883.614964	892.427273
1885.381199	893.610490
1887.143575	902.225874
1888.905584	902.230070
1890.667225	909.596503
1892.428500	908.537063
1894.189407	904.355944
1895.949948	905.202797
1897.708379	909.337063
1899.466444	905.281119
1901.222402	903.415385
1902.979736	901.074126
1904.736705	897.865035
1906.491567	892.744755
1908.244325	881.213287
1909.996718	879.089510
1911.750488	876.794406
1913.502154	871.011888
1915.251718	875.315385
1917.002657	876.586014
1918.753234	883.295804
1920.499971	885.737762
1922.248085	890.705594
1923.994099	881.211888
1925.741488	881.020280
1927.486780	877.000000
1929.229974	871.446154
1930.974543	874.723776
1932.717017	874.179021
1934.459130	879.122378
1936.200883	885.511538
1937.942276	888.810490
1939.681576	894.721329
1941.420517	895.627972
1943.159099	896.309441
1944.895590	890.751748
1946.631723	888.356993
1948.369230	882.242657
1950.102915	871.558392
1951.837975	874.384615
1953.570946	878.615734
1955.303561	883.481119
1957.035820	887.829021
1958.767722	892.986014
1960.497538	888.891608
1962.225269	885.969231
1963.954375	882.430769
1965.683126	879.999301
1967.409793	871.072028
1969.136106	865.253147
1970.863792	861.276923
1972.585942	867.606294
1974.311193	870.295804
1976.032637	880.000699
1977.757182	886.558741
1979.479646	893.213986
1981.198308	885.595804
1982.920068	886.768531
1984.638026	881.536364
1986.357357	882.089510
1988.072889	875.662937
1989.793241	870.392308
1991.509795	871.762238
1993.222552	868.000699
1994.938405	875.913287
1996.652186	877.185315
1998.365617	874.241259
2000.076977	876.654545
2001.789709	873.174825
2003.498651	879.393007
2005.210685	875.649650
2006.917211	881.088112
2008.626828	878.169930
2010.334379	877.762238
2012.041581	881.523776
2013.746718	880.761538
2015.451509	883.260140
2017.157671	873.795105
2018.860051	866.357343
2020.563802	865.134266
2022.265491	863.576923
2023.966835	864.581818
2025.667833	861.863636
2027.366770	864.661538
2029.067079	859.248951
2030.763613	862.820280
2032.461518	862.978322
2034.157364	858.416084
2035.856296	854.586014
2037.549742	855.806993
2039.244559	853.169930
2040.939034	853.404895
2042.629740	856.098601
2044.323530	856.237762
2046.013553	858.263636
2047.704947	858.796503
2049.394288	858.165734
2051.084999	858.591608
2052.771947	855.064336
2054.458556	841.937063
2056.146534	841.489510
2057.830753	844.053147
2059.516343	837.883916
2061.201593	834.151748
2062.884794	833.809091
2064.569366	832.044056
2066.248475	830.772028
2067.932369	833.579021
2069.610802	831.937762
2071.292313	829.964336
2072.970072	830.599301
2074.647495	826.838462
2076.326287	826.492308
2078.003037	826.148951
2079.677745	825.218881
2081.353822	822.662238
2083.027859	821.300699
2084.701560	820.590210
2086.374926	822.518182
2088.046253	829.376923
2089.717246	831.451049
2091.387905	832.827273
2093.058230	829.660140
2094.728221	828.469930
2096.396176	823.437762
2098.063798	823.839860
2099.729385	824.084615
2101.396341	818.859441
2103.061264	820.534965
2104.725855	823.886014
2106.388414	832.097902
2108.052341	837.757343
2109.714237	837.417483
2111.375803	834.872727
2113.037037	834.434266
2114.696243	836.044755
2116.355118	835.696503
2118.013664	836.200699
2119.671880	832.327972
2121.326372	830.178322
2122.983929	832.798601
2124.641157	835.811888
2126.294663	840.108392
2127.949537	837.517483
2129.600692	832.052448
2131.254910	837.230070
2132.905411	843.073427
2134.557278	843.620280
2136.203737	844.669231
2137.854951	841.302797
2139.502451	839.381818
2141.151318	834.013986
2142.798166	838.315385
2144.444689	838.745455
2146.090886	829.697902
2147.733375	818.191608
2149.378922	811.753846
2151.020762	815.960140
2152.665659	817.365035
2154.306850	816.267133
2155.947719	819.574126
2157.588263	822.444056
2159.226795	822.697203
2160.866693	820.762238
2162.502891	825.626573
2164.140455	825.713287
2165.777697	815.654545
2167.412929	810.727273
2169.047840	803.792308
2170.682428	799.793007
2172.316696	799.123077
2173.947270	796.576224
2175.580896	796.886014
2177.210830	797.360140
2178.842129	795.548252
2180.471423	800.702098
2182.100398	801.730070
2183.729053	806.225874
2185.357389	800.826573
2186.983723	796.830070
2188.609738	789.160839
2190.233751	786.405594
2191.859130	783.997203
2193.482508	780.216084
2195.107251	782.750350
2196.728313	780.774126
2198.349058	779.230070
2199.971168	778.755944
2201.591280	775.398601
2203.209395	774.566434
2204.827195	765.611888
2206.444680	761.372028
2208.061849	761.668531
2209.678703	758.508392
2211.295241	758.437063
2212.909787	762.237063
2214.522340	770.349650
2216.136257	768.165734
2217.748183	774.530769
2219.361472	778.642657
2220.972771	782.972028
2222.582080	782.922378
2224.192753	781.681818
2225.801437	778.455944
2227.409808	771.139161
2229.016193	762.403497
2230.623941	766.754545
2232.229702	768.509790
2233.835152	771.770629
2235.438617	774.600000
2237.043445	780.683217
2238.646289	787.397902
2240.247150	791.932867
2241.849374	789.040559
2243.449616	790.476923
2245.051220	778.662937
2246.649171	774.042657
2248.248485	772.139161
2249.845819	778.230070
2251.442845	779.690909
2253.041233	772.145455
2254.635972	774.039860
2256.228734	767.009091
2257.822859	760.254545
2259.418345	756.474126
2261.010186	744.974825
2262.601721	742.009790
2264.194618	741.716084
2265.782205	746.554545
2267.374488	753.702098
2268.961465	762.583916
2270.551469	765.609091
2272.136169	763.977622
2273.725563	770.277622
2275.309655	765.234965
2276.895107	759.279021
2278.478591	758.460839
2280.065100	747.222378
2281.647976	746.488811
2283.230549	748.831119
2284.812818	747.206294
2286.391457	743.786364
2287.973121	738.965734
2289.551156	735.090559
2291.132214	728.000699
2292.709645	727.528322
2294.285113	727.997902
2295.863603	726.657692
2297.438469	726.538462
2299.013034	721.159091
2300.587299	722.322378
2302.161263	719.272378
2303.734926	723.558741
2305.308290	717.504895
2306.878035	724.735664
2308.447481	732.623776
2310.019945	736.506993
2311.587135	746.270629
2313.157343	754.539860
2314.723936	755.128671
2316.291889	757.995804
2317.857886	744.970629
2319.423586	736.589510
2320.988988	729.464336
2322.552437	734.109091
2324.117245	735.686014
2325.678445	743.762238
2327.242659	751.663636
2328.801611	755.211888
2330.363578	753.158042
2331.923593	757.806993
2333.483314	752.771329
2335.041085	746.717483
2336.598561	733.963636
2338.155743	725.227273
2339.710977	720.785315
2341.265918	724.906294
2342.820564	723.986713
2344.374917	713.986713
2345.928977	709.821678
2347.482742	704.854545
2349.034564	697.562937
2350.584442	700.248252
2352.137328	702.476923
2353.684972	701.181119
2355.235623	708.822378
2356.782683	714.232168
2358.331101	722.251748
2359.879228	726.879720
2361.423766	723.481818
2362.969662	717.848951
2364.513620	718.213986
2366.058935	712.197902
2367.600665	710.611189
2369.143752	710.688112
2370.684903	712.387413
2372.225765	704.346853
2373.766338	711.077622
2375.306622	712.152448
2376.846617	709.369231
2378.383034	711.552448
2379.922452	704.406294
2381.458293	698.595105
2382.995490	698.338462
2384.529112	689.988811
2386.065734	695.879720
2387.600426	701.093706
2389.133188	699.165734
2390.665663	689.990210
2392.196210	697.087413
2393.729755	700.497902
2395.258089	703.272028
2396.787780	714.569231
2398.317184	711.528671
2399.846304	713.454545
2401.375139	722.674126
2402.898768	728.723077
2404.427033	737.515385
2405.950096	734.889510
2407.477792	726.046853
2408.998649	708.895105
2410.524139	704.220979
2412.046068	692.909790
2413.569353	686.428671
2415.090716	681.786713
2416.610160	678.465734
2418.130959	682.406294
2419.649840	683.877622
2421.168438	689.984615
2422.685119	680.927972
2424.203154	678.316084
2425.720908	679.185315
2427.235111	676.982517
2428.749033	686.111189
2430.262675	686.934965
2431.777672	691.346853
2433.289120	691.669231
2434.801923	687.800000
2436.312812	689.725874
2437.823423	681.260839
2439.332122	677.825175
2440.843807	663.906993
2442.351949	658.418881
2443.859813	663.146853
2445.367399	667.811189
2446.871444	675.554545
2448.378474	669.790909
2449.883597	670.102797
2451.388441	673.320280
2452.891379	675.502098
2454.394041	677.274126
2455.896426	675.341259
2457.396906	675.416084
2458.898739	674.109790
2460.398667	677.615385
2461.898320	682.246853
2463.397698	673.646154
2464.895173	665.771329
2466.390746	661.110490
2467.889299	661.102797
2469.384324	659.032168
2470.880701	664.509091
2472.373552	660.209790
2473.867756	659.136364
2475.361686	657.647552
2476.852092	656.993007
2478.345476	657.609091
2479.836962	646.222378
2481.326551	642.265035
2482.815868	642.781119
2484.303289	649.659441
2485.793686	647.483217
2487.280565	650.652448
2488.768795	660.065734
2490.253508	660.926573
2491.737952	656.679021
2493.223746	661.373427
2494.707649	658.696503
2496.192902	652.894406
2497.673022	641.923776
2499.156115	639.512587
2500.637317	639.972727
2502.118250	641.284615
2503.597294	640.211189
2505.076069	639.635664
2506.554576	637.725175
2508.032815	635.191608
2509.510785	640.179021
2510.985250	652.499301
2512.462685	645.380420
2513.936616	645.659441
2515.411897	639.885315
2516.886911	638.561538
2518.358425	639.604196
2519.831288	644.139860
2521.302269	638.662238
2522.774600	634.534266
2524.241817	632.197203
2525.712001	626.053147
2527.180304	635.578322
2528.648342	639.762238
2530.116115	636.115385
2531.583623	640.713986
2533.050866	644.006993
2534.514617	648.107692
2535.979718	642.879021
2537.442942	647.724476
2538.907516	639.313287
2540.368600	640.208392
2541.831034	637.200699
2543.293205	634.325175
2544.751890	635.426573
2546.215147	633.955944
2547.673307	637.632168
2549.132816	638.038462
2550.587231	642.409091
2552.046217	642.972028
2553.503331	639.993007
2554.958574	643.759441
2556.413555	644.716084
2557.866668	651.702797
2559.321129	653.652448
2560.773720	655.689510
2562.226052	647.063636
2563.676517	646.711888
2565.129937	642.394406
2566.578275	632.104196
2568.029569	629.015385
2569.478996	627.630769
2570.924951	627.644755
2572.373861	625.439860
2573.819301	629.740559
2575.266088	628.093007
2576.711013	622.639161
2578.155679	615.801399
2579.601693	608.286014
2581.044241	608.697203
2582.488136	610.027972
2583.928566	615.612587
2585.370343	622.214685
2586.810261	630.660839
2588.251526	633.717483
2589.689329	630.469231
2591.130082	628.997902
2592.565773	617.822378
2594.004413	612.051748
2595.441195	598.465035
2596.876122	590.755245
2598.313996	585.398601
2599.746813	588.176224
2601.180977	594.907692
2602.613287	602.341958
2604.046943	605.444056
2605.478746	605.995105
2606.910295	615.662238
2608.341592	622.543357
2609.771036	619.230070
2611.200228	622.215385
2612.627570	607.870629
2614.056257	596.041958
2615.484693	582.922378
2616.909681	581.769231
2618.336016	582.011888
2619.760502	589.885315
2621.186334	593.749650
2622.608722	599.296503
2624.032456	612.008392
2625.454343	616.544755
2626.875981	616.931469
2628.295773	618.986014
2629.716911	606.632168
2631.137799	595.140559
2632.555249	583.351049
2633.975638	585.151748
2635.392590	581.954545
2636.809293	582.083217
2638.225748	585.346853
2639.641955	583.420979
2641.057914	584.353846
2642.472032	587.865035
2643.885902	592.723077
2645.297934	592.927972
2646.711309	590.076224
2648.121255	590.010490
2649.534137	593.669231
2650.943590	597.332168
2652.352797	591.332867
2653.760168	592.253846
2655.170473	603.793007
2656.578943	598.719580
2657.985577	593.707692
2659.391966	598.411189
2660.796521	601.076224
2662.202420	596.597902
2663.606486	595.562238
2665.010307	596.118182
2666.413884	599.169231
2667.815630	602.458042
2669.218719	605.381119
2670.618390	608.269231
2672.019405	607.569930
2673.417004	597.260839
2674.817533	592.664336
2676.214646	590.014685
2677.613103	584.502098
2679.009733	576.512587
2680.406120	576.179021
2681.802265	573.271329
2683.196585	580.665035
2684.592246	588.951049
2685.984499	598.761538
2687.378094	598.818881
2688.769865	603.389510
2690.162979	607.455944
2691.554269	603.823776
2692.943736	594.919580
2694.332963	585.511888
2695.721951	575.303497
2697.112280	567.821678
2698.497626	560.740559
2699.885895	556.320280
2701.272344	552.378322
2702.658554	558.710490
2704.044525	557.148252
2705.427098	563.953147
2706.811013	567.797203
2708.194690	564.444056
2709.578128	563.810490
2710.958172	564.260839
2712.339556	573.318881
2713.719126	573.331469
2715.100036	577.846154
2716.479132	577.472028
2717.856414	578.875524
2719.235037	582.639860
2720.611847	574.701399
2721.988420	576.451049
2723.364758	577.553846
2724.739285	571.889510
2726.115152	570.454545
2727.487632	571.481119
2728.863028	568.944755
2730.233464	565.682517
2731.605241	570.318881
2732.976783	571.774126
2734.346517	567.660140
2735.717592	567.583217
2737.086858	566.204196
2738.455891	572.354545
2739.823118	570.307692
2741.190112	567.767133
2742.556872	566.213287
2743.923401	562.213287
2745.288124	556.427273
2746.652615	559.855245
2748.016875	555.374825
2749.380902	545.251049
2750.744698	543.965035
2752.105120	536.518182
2753.468452	540.403497
2754.826842	536.112587
2756.188142	531.446853
2757.546072	531.034965
2758.906910	531.273427
2760.265949	534.756643
2761.621619	540.190210
2762.980197	544.934266
2764.335408	541.939860
2765.690390	535.699301
2767.043576	540.003497
2768.399668	537.086014
2769.752395	539.127273
2771.104895	538.225874
2772.457166	530.911888
2773.810776	528.329371
2775.161024	531.511888
2776.509478	537.888112
2777.860838	538.025874
2779.208838	542.681119
2780.558176	536.614685
2781.905722	528.905594
2783.253042	530.798601
2784.600135	526.021678
2785.945437	525.264336
2787.290512	527.428671
2788.635362	522.746853
2789.979986	526.736364
2791.321258	525.686713
2792.663868	524.688811
2794.006252	523.704895
2795.348411	521.762238
2796.687221	512.803497
2798.028931	512.511189
2799.367293	514.651748
2800.706991	512.893706
2802.044905	526.122378
2803.381034	531.500000
2804.716939	533.544755
2806.054182	533.397203
2807.389641	526.293706
2808.724877	519.890909
2810.058330	520.609091
2811.393120	513.255944
2812.724570	508.240559
2814.058915	512.236364
2815.388362	510.109790
2816.719146	514.379720
2818.049708	517.133566
2819.378491	515.751748
2820.708610	513.108392
2822.036951	514.241259
2823.365071	507.681818
2824.691413	503.921678
2826.019092	501.854545
2827.343437	497.284615
2828.669119	496.699301
2829.993025	498.244056
2831.316712	496.716084
2832.641734	501.288811
2833.963426	497.712587
2835.284900	489.567133
2836.606155	490.544755
2837.927191	490.088811
2839.246454	485.245455
2840.567053	493.847552
2841.885881	487.724476
2843.204490	491.097203
2844.521328	494.221678
2845.837949	496.548951
2847.154353	497.734965
2848.468987	502.234965
2849.784957	497.820979
2851.097606	490.173427
2852.411590	489.405594
2853.725358	482.898601
2855.038909	485.660839
2856.350694	487.174825
2857.660712	479.067133
2858.972065	484.519580
2860.280103	492.239860
2861.589475	492.325175
2862.898633	490.467133
2864.207575	489.127972
2865.514753	488.735664
2866.820169	483.116084
2868.126919	478.696503
2869.431906	476.161538
2870.736680	479.417483
2872.039692	475.025175
2873.345585	479.596503
2874.646624	483.975524
2875.948997	489.675524
2877.249610	482.334965
2878.551557	484.294406
2879.853290	485.035664
2881.151720	485.805594
2882.451483	480.939161
2883.749489	482.169930
2885.047283	483.675524
2886.343321	491.389510
2887.640692	496.611189
2888.936307	501.325175
2890.231711	496.711189
2891.526904	498.217483
2892.818800	495.490909
2894.113572	493.876224
2895.405047	489.121678
2896.697855	475.554545
2897.990453	472.544755
2899.279757	469.969930
2900.570393	472.162238
2901.859278	475.379021
2903.149495	477.205594
2904.436421	472.268531
2905.724679	470.272727
2907.011188	482.911888
2908.297489	484.743357
2909.583581	479.150350
2910.867925	482.058741
2912.155140	482.641958
2913.437529	489.704895
2914.721250	490.664336
2916.003225	487.585315
2917.284992	477.950350
2918.565015	470.658741
2919.847907	463.509790
2921.129054	459.144755
2922.406919	467.316084
2923.687653	466.056643
2924.965106	463.874825
2926.242353	466.583217
2927.517858	468.813287
2928.796231	476.874825
2930.069790	480.851049
2931.346216	475.996503
2932.620901	468.648951
2933.893845	462.481119
2935.168121	462.738462
2936.440657	452.446853
2937.712988	456.393706
2938.982047	454.923077
2940.253971	449.788112
2941.524157	447.421678
2942.794139	449.902098
2944.063918	455.792308
2945.331961	450.967133
2946.598267	448.627972
2947.864372	447.346853
2949.131806	451.002797
2950.397506	456.830769
2951.663003	458.269930
2952.928298	463.888112
2954.190328	461.074126
2955.453688	457.281119
2956.716847	461.862937
2957.978274	462.902797
2959.241030	464.570629
2960.502054	458.722378
2961.761348	459.253846
2963.020442	456.199301
2964.279335	454.996503
2965.538028	456.309790
2966.796521	453.714685
2968.053285	450.502098
2969.309849	447.632168
2970.564686	450.970629
2971.820851	453.053147
2973.073762	455.202797
2974.328002	458.109091
2975.582043	447.021678
2976.834358	448.982517
2978.086474	447.749650
2979.336866	449.535664
2980.590113	449.039161
2981.838583	449.834965
2983.089908	458.366434
2984.337983	460.395804
2985.585862	458.209091
2986.833543	450.092308
2988.081027	451.546154
2989.326790	447.520280
2990.572357	438.564336
2991.819251	443.006993
2993.062901	437.227972
2994.307879	436.446853
2995.549613	433.232867
2996.794199	438.382517
2998.037066	441.818182
2999.276692	437.169231
3000.519168	432.734266
3001.758404	436.576224
3002.998968	439.589510
3004.237816	439.953147
3005.476468	443.085315
3006.713406	446.046853
3007.951670	439.911189
3009.188219	433.696503
3010.424575	436.559441
3011.660737	435.117483
3012.895185	439.183916
3014.129441	434.290909
3015.363503	434.023077
3016.595853	433.909790
3017.826491	429.957343
3019.059975	431.106993
3020.291747	430.895105
3021.521809	432.802797
3022.751679	425.495804
3023.979839	418.231469
3025.209325	421.259441
3026.437102	413.727972
3027.664688	416.065035
3028.893601	405.811189
3030.117771	407.032867
3031.344784	403.869231
3032.568573	402.598601
3033.793689	404.997203
3035.017098	408.198601
3036.240317	409.160839
3037.461831	410.220280
3038.686186	407.298601
3039.905806	408.536364
3041.126752	409.581818
3042.347509	406.672028
3043.566562	406.300699
3044.786940	408.532168
3046.004102	408.099301
3047.222590	410.572727
3048.439375	413.827273
3049.655973	414.206993
3050.872382	414.614685
3052.085579	424.269231
3053.301613	425.053147
3054.514435	430.095105
3055.730094	432.950350
3056.941030	423.376224
3058.153291	426.314685
3059.365366	418.569231
3060.577253	419.077622
3061.787444	418.213287
3062.997448	412.466783
3064.207266	407.491608
3065.415388	408.070280
3066.623325	405.687413
3067.829566	399.562587
3069.037132	394.409790
3070.243003	397.375175
3071.448690	398.656643
3072.654191	404.333217
3073.857999	400.386713
3075.063131	406.265385
3076.266570	407.760839
3077.468318	407.496154
3078.669881	403.415385
3079.871261	408.969231
3081.072457	398.748951
3082.271963	395.749650
3083.471286	394.826573
3084.671932	402.931469
3085.870888	407.311189
3087.066650	403.900000
3088.265241	394.781119
3089.460638	394.965035
3090.657358	395.012587
3091.850886	397.008392
3093.047242	391.946154
3094.241912	393.398601
3095.433391	383.978322
3096.629201	382.916084
3097.820318	382.328671
3099.012757	385.420280
3100.202009	384.254545
3101.394086	381.265035
3102.584480	373.820280
3103.771688	373.350350
3104.960219	375.718881
3106.150071	380.339860
3107.336740	377.364336
3108.523228	376.546853
3109.709538	374.062937
3110.897169	373.613287
3112.081618	374.607692
3113.264388	373.444056
3114.449980	371.277622
3115.633893	369.487413
3116.816127	365.325175
3117.998182	364.093007
3119.180059	362.646853
3120.361758	367.142657
3121.541780	365.245455
3122.720125	361.890210
3123.901290	359.634965
3125.079280	361.690909
3126.257094	358.363636
3127.434730	360.539161
3128.610691	362.302098
3129.786475	357.751748
3130.963581	358.523776
3132.139012	357.513986
3133.312770	354.900699
3134.484855	357.699301
3135.658262	356.460140
3136.831492	356.076923
3138.003051	356.490210
3139.175930	358.593706
3140.345642	357.910490
3141.516675	367.026573
3142.686038	370.472727
3143.853730	367.840559
3145.024238	372.426573
3146.190088	371.985315
3147.360246	369.476923
3148.525748	369.770629
3149.691075	374.753846
3150.856229	372.013287
3152.021210	368.793706
3153.187510	364.270629
3154.349158	360.202797
3155.512125	361.930769
3156.674920	365.165035
3157.837542	357.456643
3158.998499	353.789510
3160.159283	347.997902
3161.319895	343.171329
3162.478843	340.551049
3163.637620	344.669231
3164.796225	343.726573
3165.954657	342.886713
3167.112919	341.824476
3168.269518	343.032867
3169.424456	348.373427
3170.580713	349.748252
3171.735309	351.888811
3172.889735	347.293706
3174.042501	346.830769
3175.195096	343.695804
3176.347522	336.540559
3177.499778	334.186713
3178.651863	332.741958
3179.800803	328.723776
3180.952549	333.461538
3182.102637	339.715385
3183.251069	346.851049
3184.399331	352.727273
3185.547425	366.965734
3186.695350	366.825175
3187.841619	369.122378
3188.987720	363.260140
3190.132167	359.093706
3191.276446	356.262937
3192.420557	353.011189
3193.565985	349.595804
3194.708275	347.734266
3195.850398	348.256643
3196.992353	344.162238
3198.134141	346.742657
3199.275762	347.688112
3200.414248	344.900699
3201.554051	337.028671
3202.695172	338.056643
3203.833158	340.786014
3204.969495	341.690909
3206.105666	338.866434
3207.243154	338.206993
3208.378994	337.916084
3209.516151	343.334266
3210.648695	339.338462
3211.785521	343.235664
3212.917735	344.463636
3214.051266	344.386713
3215.184633	341.745455
3216.314872	344.866434
3217.447909	341.411189
3218.577820	339.675524
3219.709047	332.925874
3220.837150	331.281818
3221.968049	327.548252
3223.097304	328.843357
3224.224916	322.760140
3225.349405	328.608392
3226.478170	331.975524
3227.603813	331.371329
3228.729294	331.386014
3229.853133	327.607692
3230.979766	325.458741
3232.101802	321.937063
3233.225154	317.081119
3234.348344	313.127972
3235.471372	311.260140
3236.592760	313.880420
3237.713986	319.339161
3238.833575	327.962937
3239.953002	331.204895
3241.070791	327.710490
3242.191372	323.164336
3243.308840	321.197203
3244.426147	327.500000
3245.543294	327.343357
3246.658805	326.051748
3247.775630	325.686713
3248.889346	327.969231
3250.005851	326.924476
3251.120722	330.513986
3252.232484	332.057343
3253.344086	334.254545
3254.457004	328.181818
3255.569762	325.202098
3256.679414	329.103497
3257.790381	332.979720
3258.901189	327.381119
3260.010365	325.114685
3261.117911	326.265035
3262.226770	324.813986
3263.335472	325.056643
3264.441071	322.366434
3265.547984	325.272028
3266.653268	323.337063
3267.759866	317.569930
3268.863364	317.052448
3269.968177	313.930070
3271.072832	311.942657
3272.174388	305.481818
3273.275788	310.006294
3274.378502	311.746853
3275.481060	313.569930
3276.580521	313.735664
3277.682766	310.401399
3278.781915	312.416084
3279.879440	312.753147
3280.976809	309.668531
3282.076960	315.582517
3283.174019	312.095105
3284.270922	310.945455
3285.367670	310.759441
3286.459860	317.823077
3287.556298	315.862238
3288.651114	313.351748
3289.745776	304.283217
3290.838816	298.698601
3291.931701	301.024476
3293.022967	299.341259
3294.115544	295.234965
3295.206502	300.602098
3296.295840	295.241958
3297.385025	299.203497
3298.475523	305.485315
3299.562936	304.820979
3300.650196	304.024476
3301.738769	300.816783
3302.827190	295.212587
3303.911063	295.986713
3304.999178	305.118881
3306.084211	308.594406
3307.167629	312.158741
3308.252359	316.412587
3309.335473	310.513986
3310.419900	315.686014
3311.501248	310.698601
3312.583908	299.253846
3313.664954	300.523077
3314.745849	303.072727
3315.825130	298.044755
3316.904261	304.231469
3317.984704	308.616084
3319.062072	312.503497
3320.140752	314.296503
3321.217820	309.929371
3322.294739	305.830070
3323.370046	306.373427
3324.445204	298.664336
3325.521673	289.365035
3326.595072	292.800000
3327.668322	290.806993
3328.742882	286.453147
3329.815834	290.647552
3330.887177	290.131469
3331.959831	291.902098
3333.029419	294.586713
3334.100317	293.560839
3335.169608	298.239860
3336.240210	294.369231
3337.309205	291.315385
3338.376594	287.932168
3339.442378	291.200699
3340.512388	283.561538
3341.579335	289.301399
3342.643220	287.890909
3343.709873	283.944755
3344.774921	280.261538
3345.838366	278.621678
3346.901665	273.321678
3347.964817	279.350350
3349.027823	282.462238
3350.090683	288.181818
3351.151941	291.075524
3352.210142	292.690909
3353.272563	293.685315
3354.331929	297.611189
3355.391149	292.797203
3356.451679	286.955944
3357.507699	279.752448
3358.566483	272.200699
3359.620760	267.290210
3360.677801	272.425874
3361.733243	270.469930
3362.789995	269.771329
3363.845148	271.798601
3364.898704	275.788811
3365.950664	283.397902
3367.005385	290.786014
3368.057057	292.858042
3369.108586	294.120979
3370.161423	292.437063
3371.211213	287.578322
3372.262312	284.002797
3373.310365	284.274126
3374.361177	288.852448
3375.408945	284.600699
3376.456570	285.963636
3377.504052	291.065734
3378.549942	295.237762
3379.597140	297.498601
3380.641296	291.384615
3381.688210	287.197902
3382.733532	282.644755
3383.775813	278.983916
3384.817954	280.197902
3385.861402	284.636364
3386.904709	287.621678
3387.946427	277.191608
3388.988003	276.643357
3390.029438	283.044755
3391.069285	284.623077
3392.107543	279.146853
3393.147109	278.974126
3394.186535	275.393007
3395.224373	279.160140
3396.260624	285.242657
3397.296736	289.959441
3398.334155	293.312587
3399.368541	292.309091
3400.404234	286.624476
3401.439788	284.458042
3402.472311	290.193706
3403.507587	286.362238
3404.539832	280.407692
3405.571939	282.220280
3406.602462	275.546154
3407.634292	273.804196
3408.665984	272.611189
3409.694648	275.081119
3410.723175	272.051049
3411.753008	267.800000
3412.782704	267.825874
3413.809374	271.079021
3414.837351	272.889510
3415.862303	268.540559
3416.890005	267.409091
3417.914684	265.712587
3418.940669	261.741259
3419.965074	260.818182
3420.989343	267.303497
3422.012033	270.704196
3423.034587	269.235664
3424.058447	271.942657
3425.079287	273.467832
3426.099991	270.332667
3427.122002	266.579870
3428.140994	262.906993
3429.159850	260.011588
3430.180013	258.591209
3431.197159	259.343407
