-118.059454	14.534066
-115.389854	8.301099
-112.723189	4.304595
-110.057276	2.176723
-107.394295	1.549650
-104.729885	2.055544
-102.068405	3.326573
-99.405496	4.679021
-96.747693	6.310490
-94.088461	6.356643
-91.429977	7.926573
-88.774417	10.161538
-86.117429	8.975524
-83.465539	7.418182
-80.812218	7.382517
-78.161818	4.553147
-75.509988	4.861538
-72.863249	0.080420
-70.215081	-2.089510
-67.567655	-3.173427
-64.923143	-5.347552
-62.277203	-4.145455
-59.636344	-2.331469
-56.994056	-0.646154
-54.354677	1.478322
-51.713868	1.800000
-49.073800	6.103497
-46.438804	6.795804
-43.802380	7.537762
-41.168858	2.306993
-38.533908	1.005594
-35.904023	-2.090909
-33.270546	-5.866434
-30.642131	-4.879720
-28.014450	-4.170629
-25.385340	-2.867133
-22.761287	-5.978322
-20.133645	-30.312587
-17.511056	-79.958741
-14.889199	-87.024476
-12.268072	97.679720
-9.647675	411.679021
-7.030167	674.600699
-4.411230	856.561538
-1.795178	958.569930
0.820145	977.973427
3.434741	916.430070
6.046454	774.315385
8.659596	555.030070
11.267704	277.604895
13.879394	4.676923
16.486053	-143.166434
19.094140	-97.951748
21.701503	-12.216783
24.303841	2.751748
26.909757	8.175524
29.510651	10.472028
32.112973	11.836364
34.710278	14.577622
37.311158	14.679720
39.907023	15.292308
42.504317	14.326573
45.100891	13.191608
47.692456	10.915385
50.285449	8.147552
52.875581	5.057343
55.467141	7.063636
58.055841	8.239161
60.645968	6.168531
63.231096	6.554545
65.817652	6.523077
68.403494	5.581119
70.986482	6.551049
73.570896	7.011189
76.148182	5.853846
78.729034	7.851049
81.307037	9.001399
83.884330	10.497203
86.463049	14.696503
89.036786	13.932867
91.611951	12.633566
94.184272	11.560839
96.755885	10.133566
99.324658	10.356643
101.894858	11.070629
104.462220	8.517483
107.031007	3.232867
109.596958	-0.821678
112.160074	-2.252448
114.726746	13.506294
117.284197	54.490909
119.847333	108.610490
122.405509	165.697203
124.967240	217.877622
127.524014	266.556643
130.082215	317.364336
132.635462	364.297203
135.188012	409.306294
137.744112	448.723776
140.295264	484.221678
142.845719	517.250350
145.395476	553.098601
147.942414	590.760839
150.488657	616.992308
153.036325	622.924476
155.583297	621.045455
158.125334	614.012587
160.666677	618.811189
163.207327	628.482517
165.749403	657.417483
168.288667	698.001399
170.825123	754.351049
173.360887	824.662937
175.898077	909.439860
178.434576	1017.281119
180.968269	1160.858741
183.499158	1347.958042
186.029360	1609.786713
188.560986	1960.021678
191.089811	2422.056643
193.615837	2991.290210
196.141177	3618.160140
198.667942	4234.326573
201.191911	4763.519580
203.715195	5136.928671
206.237794	5297.387413
208.757600	5217.318881
211.276723	4917.482517
213.795163	4436.683916
216.315027	3850.916783
218.827890	3242.643357
221.344284	2681.654545
223.859996	2217.070629
226.370818	1843.529371
228.883065	1562.559441
231.392530	1353.370629
233.901316	1199.311189
236.409423	1079.252448
238.918955	979.342657
241.423606	900.668531
243.927581	831.416783
246.432980	772.191608
248.933504	731.968531
251.437552	727.968531
253.934628	782.911189
256.435228	859.111189
258.933056	921.037762
261.430211	952.773427
263.926693	953.963636
266.418312	918.779720
268.913451	852.775524
271.405823	758.320280
273.897525	641.305594
276.386464	513.378322
278.876827	408.732168
281.364427	356.744056
283.849268	351.354545
286.337624	354.734266
288.819040	354.748951
291.303970	351.362238
293.784055	346.002098
296.267652	339.545455
298.746406	334.693706
301.226584	330.877622
303.704009	326.820979
306.180771	325.107692
308.656870	326.833566
311.130220	331.874825
313.602908	333.506294
316.074935	338.634965
318.546301	346.523077
321.014922	350.462937
323.482885	350.847552
325.952269	348.052448
328.416831	346.890210
330.884897	342.673427
333.348143	339.544056
335.810731	329.639161
338.272663	314.866434
340.733938	345.390210
343.192479	469.117483
345.652442	664.316084
348.109672	852.490909
350.566248	989.876923
353.022170	1063.396503
355.475362	1077.530769
357.929977	1029.634266
360.379790	920.995105
362.833099	762.269930
365.281610	566.507692
367.729469	383.927972
370.178751	272.120979
372.623239	259.577622
375.069149	283.582517
377.514409	285.083217
379.956951	309.419580
382.398845	390.546853
384.840092	506.367832
387.278623	610.127273
389.718576	696.257343
392.155815	765.806294
394.590342	809.483217
397.028357	815.367133
399.461595	775.622378
401.896254	702.267832
404.326141	597.797902
406.759513	487.393007
409.188115	425.173427
411.616075	408.179021
414.045457	398.894406
416.470073	387.647552
418.896111	384.206993
421.321508	402.789510
423.746265	422.416783
426.166264	441.381119
428.587684	460.879021
431.006407	487.527972
433.426551	516.971329
435.844000	553.826573
438.262869	600.605594
440.679045	646.350350
443.090473	678.796503
445.505379	694.141259
447.917594	845.001399
450.329175	1624.029371
452.740122	3560.090909
455.148383	6481.014685
457.556011	9625.606294
459.963007	12288.320979
462.369372	14080.495105
464.773054	14831.570629
467.176106	14477.444755
469.578528	13047.667832
471.980320	10679.818881
474.379435	7707.725175
476.779969	4744.860839
479.179874	2573.121678
481.575056	1580.595105
483.973705	1352.222378
486.367634	1316.320979
488.760937	1243.237762
491.153614	1139.377622
493.545666	1040.555944
495.939136	965.121678
498.327894	933.287413
500.713986	929.208392
503.101498	929.464336
505.488387	922.603497
507.872612	909.102098
510.258255	883.742657
512.641237	841.942657
515.021558	786.384615
517.403298	716.751049
519.782379	635.860140
522.162879	564.739860
524.540721	520.525874
526.915908	506.275524
529.290477	501.978322
531.666464	488.279720
534.039799	481.814685
536.414551	476.232168
538.784618	466.472727
541.154069	456.054545
543.524938	449.830070
545.891127	438.845455
548.258734	426.137762
550.623695	413.120280
552.988043	406.318881
555.351778	395.831469
557.716931	387.537762
560.077412	379.842657
562.439311	376.101399
564.798569	371.549650
567.155190	365.520979
569.515255	360.851049
571.868629	358.923776
574.225448	351.982517
576.579632	344.623077
578.933208	342.948951
581.286175	344.367832
583.636510	343.518182
585.988263	346.106294
588.333339	348.707692
590.683879	348.088811
593.027745	348.513287
595.377073	347.110490
597.721752	344.924476
600.063807	339.678322
602.407279	333.097902
604.748128	328.204196
607.088375	326.554545
609.426001	321.453147
611.767062	318.700699
614.103485	316.360140
616.441325	316.328671
618.776548	313.227273
621.109155	314.297203
623.443178	313.597203
625.774587	313.709790
628.105398	313.877622
630.435612	312.887413
632.765227	312.920280
635.090220	311.449650
637.420653	310.541259
639.746466	309.487413
642.069671	308.585315
644.394293	308.920979
646.716309	306.797902
649.037731	304.766434
651.356551	301.771329
653.676786	301.505594
655.996428	299.185315
658.313469	294.426573
660.629918	291.648252
662.943769	290.965734
665.259036	289.568531
667.571706	290.630070
669.885791	291.706294
672.195276	292.830070
674.506177	296.779720
676.814485	299.017483
679.122205	302.168531
681.431339	309.769231
683.735881	328.556643
686.039837	362.144755
688.343207	401.860140
690.647991	438.268531
692.948189	462.115385
695.249801	473.846154
697.550829	473.490210
699.847274	459.826573
702.145135	434.814685
704.442412	399.451049
706.739106	361.478322
709.031224	329.731469
711.326753	314.416084
713.617708	309.252448
715.910078	310.125874
718.199873	311.764336
720.489087	311.250350
722.777722	309.530769
725.063784	307.466434
727.351261	302.878322
729.636166	298.799301
731.920494	298.660140
734.202253	299.130070
736.485426	298.362937
738.768022	297.410490
741.046062	297.695804
743.325517	298.795105
745.604395	299.606294
747.882699	301.125874
750.156453	300.314685
752.431620	300.201399
754.706214	299.744755
756.978249	299.652448
759.251697	299.144056
761.522587	297.694406
763.790921	296.482517
766.060668	295.679021
768.327861	295.603497
770.594483	293.744056
772.860535	293.890909
775.124036	296.741958
777.388950	300.276224
779.653294	309.084615
781.913109	315.307692
784.174336	324.666434
786.434996	334.946154
788.693110	348.212587
790.948679	360.208392
793.207639	371.386713
795.460100	395.277622
797.717927	448.074126
799.971236	519.481119
802.222005	589.851748
804.474186	643.317483
806.723828	676.163636
808.974883	681.679021
811.221426	665.395105
813.469381	623.925874
815.714802	563.841958
817.961634	490.297203
820.207905	417.044056
822.449671	368.935664
824.694821	347.967133
826.933498	343.198601
829.175557	340.629371
831.413118	335.972028
833.652091	336.332168
835.888537	333.024476
838.126394	330.376923
840.361726	329.408392
842.594535	329.445455
844.828755	330.373427
847.060452	328.893007
849.291595	328.337063
851.522183	323.717483
853.752217	321.895804
855.981697	322.590909
858.206695	320.485315
860.435068	320.153846
862.658961	315.346154
864.884266	312.918881
867.105095	313.972727
869.329296	310.159441
871.549024	308.606294
873.770162	310.915385
875.990750	310.939860
878.208829	310.322378
880.428317	314.474126
882.643339	317.918881
884.857814	319.850350
887.071740	321.401399
889.285120	326.302098
891.497952	329.300000
893.710238	326.404196
895.920021	323.900699
898.129259	322.415385
900.337952	325.146154
902.544146	322.007692
904.751749	318.711888
906.956854	318.948951
909.161416	315.711888
911.363483	316.858042
913.566959	320.369930
915.767941	324.934266
917.968381	324.745455
920.170230	320.208392
922.365688	320.788112
924.564505	320.583916
926.758883	318.088811
928.956619	311.648951
931.149919	304.101399
933.344628	300.036364
935.536851	294.157343
937.728535	289.679021
939.919682	290.800000
942.108346	289.823077
944.296474	293.519580
946.482121	295.710490
948.671120	299.902098
950.855696	305.023776
953.039737	308.823077
955.227128	310.091608
957.406215	311.362238
959.588653	314.151049
961.770557	309.460839
963.949986	304.188112
966.126943	303.928671
968.305308	299.797203
970.485080	302.836364
972.658503	298.619580
974.835272	297.892308
977.007634	297.274126
979.181404	297.962937
981.350770	293.506294
983.523480	292.060140
985.693725	292.343357
987.863441	289.346154
990.032628	291.168531
992.197418	295.097203
994.365549	292.569930
996.529286	297.100699
998.694429	294.053147
1000.857113	296.636364
1003.019272	291.318881
1005.178974	291.593706
1007.338151	288.213986
1009.498735	289.465035
1011.656865	292.904895
1013.814470	295.072028
1015.971552	297.362238
1018.128110	301.359441
1020.280289	301.060839
1022.433875	305.090210
1024.586939	299.346154
1026.737554	299.913287
1028.889576	293.879021
1031.037224	296.274825
1033.188204	289.983916
1035.334813	288.472727
1037.480903	288.379021
1039.626475	290.106993
1041.773452	289.571329
1043.914140	296.027972
1046.058158	297.268531
1048.199735	302.293706
1050.340796	304.659441
1052.483261	309.092308
1054.619447	312.932168
1056.758958	319.451748
1058.894115	322.065734
1061.032596	330.639161
1063.166723	337.695105
1065.300337	345.754545
1067.435356	345.291608
1069.566025	348.394406
1071.698099	352.201399
1073.827744	356.279720
1075.956877	365.679021
1078.085498	367.393706
1080.213608	369.095105
1082.339292	366.665734
1084.464466	361.928671
1086.591044	357.360140
1088.713284	346.380420
1090.836929	332.527972
1092.956239	317.517483
1095.080779	306.439161
1097.199073	304.416783
1099.318772	300.195105
1101.436052	307.184615
1103.552826	304.282517
1105.669093	302.860839
1107.782944	299.937063
1109.898200	298.473427
1112.009132	295.156643
1114.123377	293.268531
1116.233301	294.747552
1118.344629	296.567832
1120.455452	295.794406
1122.561959	300.155245
1124.671776	301.036364
1126.777278	305.635664
1128.884183	303.539860
1130.984873	303.606993
1133.090775	301.493706
1135.192368	302.087413
1137.295364	305.092308
1139.397859	311.545455
1141.494147	321.533566
1143.595643	329.454545
1145.692835	342.001399
1147.789530	372.642657
1149.885726	424.624476
1151.981425	498.844056
1154.076625	575.930769
1156.169429	643.250350
1158.263636	685.693706
1160.351651	700.855245
1162.444864	685.518182
1164.531889	639.322378
1166.622213	572.393706
1168.708250	492.559441
1170.797584	412.238462
1172.880737	349.461538
1174.965292	315.813287
1177.051249	303.972727
1179.132924	301.170629
1181.216001	301.555245
1183.296692	298.515385
1185.376891	295.613287
1187.456599	288.744755
1189.535816	288.417483
1191.612651	287.063636
1193.687105	290.990909
1195.764850	290.734266
1197.838326	290.669930
1199.913202	294.322378
1201.983811	291.158042
1204.055821	291.706294
1206.125456	291.929371
1208.196491	288.676923
1210.267038	288.439161
1212.333324	288.838462
1214.401011	296.279720
1216.466326	301.095804
1218.533041	309.079720
1220.595500	314.890909
1222.661244	319.242657
1224.722734	324.693007
1226.785625	323.619580
1228.846148	326.435664
1230.906187	324.602797
1232.965744	321.409790
1235.022935	316.617483
1237.079645	310.873427
1239.133991	304.677622
1241.191619	301.062937
1243.246884	300.941259
1245.297908	299.761538
1247.350332	299.171329
1249.402276	297.519580
1251.451862	294.821678
1253.500969	293.424476
1255.549598	290.172727
1257.597748	286.813287
1259.645419	280.719580
1261.688860	281.917483
1263.735577	279.232168
1265.779940	282.032867
1267.823827	284.385315
1269.865362	284.106294
1271.904548	286.344755
1273.947007	283.888811
1275.985243	284.937063
1278.024878	282.816084
1280.064038	281.258042
1282.098979	277.584615
1284.135319	277.623776
1286.169315	278.567832
1288.204708	272.255944
1290.235889	271.230070
1292.268467	270.405594
1294.300574	269.190210
1296.330340	271.108392
1298.361504	274.283217
1300.388460	277.693007
1302.416814	278.270629
1304.440963	278.104196
1306.468378	273.132867
1308.491590	273.909091
1310.516200	270.141958
1312.538476	268.714685
1314.562149	267.473427
1316.583489	268.140559
1318.604361	269.263636
1320.624766	271.451049
1322.640978	278.115385
1324.658587	281.108392
1326.673868	283.642657
1328.692408	284.930070
1330.706759	280.758042
1332.718784	282.853846
1334.734066	282.907692
1336.745163	283.730769
1338.757657	282.249650
1340.765968	279.585315
1342.777534	278.306294
1344.783062	276.159441
1346.791845	276.620280
1348.796450	276.306993
1350.804309	275.710490
1352.811706	274.248951
1354.813072	267.473427
1356.815834	268.663636
1358.818137	268.057343
1360.819980	269.548951
1362.821363	267.650350
1364.820433	263.999301
1366.819044	263.501399
1368.817197	263.350350
1370.814891	264.431469
1372.808423	266.025175
1374.803351	266.285315
1376.797821	264.560140
1378.791835	262.513986
1380.783542	266.930070
1382.774794	267.242657
1384.763740	266.758042
1386.754081	261.302098
1388.743967	258.426573
1390.731549	261.642657
1392.718678	260.955245
1394.703505	260.838462
1396.689727	259.879720
1398.673649	261.820280
1400.657118	262.731469
1402.640134	263.025874
1404.620853	265.592308
1406.602966	263.843357
1408.582783	262.551049
1410.562148	260.776923
1412.537375	263.548252
1414.515840	266.972727
1416.492012	266.573427
1418.467735	267.338462
1420.443008	266.407692
1422.415990	269.609790
1424.388524	273.446853
1426.360610	271.466434
1428.332249	272.545455
1430.299759	273.746154
1432.272343	273.502098
1434.237122	272.516084
1436.206972	274.176923
1438.172699	271.558042
1440.139818	272.390210
1442.104654	266.503497
1444.065370	262.180420
1446.031154	262.737063
1447.990983	263.396503
1449.952206	264.427273
1451.914821	265.935664
1453.873321	268.168531
1455.831378	268.862238
1457.788994	269.104895
1459.746167	270.457343
1461.701065	269.856643
1463.657356	269.651049
1465.611372	264.764336
1467.564947	261.609790
1469.516250	262.726573
1471.468946	264.539161
1473.419369	268.708392
1475.369354	268.927273
1477.318900	269.059441
1479.266177	270.041259
1481.211186	267.730769
1483.157588	267.421678
1485.103552	268.683916
1487.049079	268.003497
1488.992340	266.473427
1490.935166	264.532867
1492.875728	266.020979
1494.817681	261.522378
1496.757372	260.418881
1498.696629	257.379720
1500.635450	259.365734
1502.572012	260.725874
1504.509965	261.817483
1506.445659	260.623776
1508.380920	264.570629
1510.313925	264.586014
1512.246497	265.561538
1514.178637	265.417483
1516.110345	262.198601
1518.039799	260.702098
1519.970644	263.957343
1521.901057	265.588112
1523.827398	268.025175
1525.755130	269.098601
1527.680611	271.618182
1529.605663	269.832867
1531.530286	271.651049
1533.454480	267.920979
1535.376426	264.756643
1537.299763	260.986713
1539.220853	257.767832
1541.139700	262.187413
1543.059935	262.087413
1544.977928	262.302098
1546.895494	261.686014
1548.810818	264.558042
1550.727532	269.713986
1552.640191	274.330070
1554.556054	276.506294
1556.469677	277.738462
1558.381062	276.681818
1560.293837	276.602797
1562.202562	277.044056
1564.112676	281.237762
1566.022367	283.487413
1567.931635	279.734965
1569.838669	277.211189
1571.743470	275.523077
1573.649660	277.982517
1575.553618	275.355245
1577.457155	274.625175
1579.360272	270.645455
1581.261159	268.465734
1583.163435	268.178322
1585.063483	269.803497
1586.964918	273.336364
1588.862320	275.783217
1590.759303	270.965035
1592.655868	271.412587
1594.553821	271.293706
1596.445939	271.196503
1598.341250	271.090909
1600.236144	271.132867
1602.128816	267.670629
1604.021071	265.920280
1605.911107	264.836364
1607.800727	264.913287
1609.689932	264.341958
1611.578722	263.599301
1613.465294	262.104895
1615.353254	259.465035
1617.237197	256.544755
1619.122527	253.656643
1621.007444	254.627273
1622.890147	254.365734
1624.774237	255.062937
1626.654315	255.249650
1628.535781	258.314685
1630.415036	259.043357
1632.295677	260.998601
1634.170514	265.779021
1636.050332	266.845455
1637.926146	265.415385
1639.801549	261.365734
1641.678338	259.241259
1643.549331	260.741958
1645.423505	260.101399
1647.293680	260.234266
1649.167037	257.202797
1651.038190	259.068531
1652.907141	256.188811
1654.777477	259.725175
1656.643821	260.862238
1658.511550	259.460839
1660.377080	257.763636
1662.243996	256.146154
1664.106923	253.283217
1665.971235	250.474126
1667.833351	247.228671
1669.695062	246.549650
1671.558159	238.211888
1673.419060	242.685315
1675.277769	239.534965
1677.136074	246.261538
1678.995764	244.929371
1680.849686	248.265734
1682.706782	251.614685
1684.563475	251.904895
1686.416191	250.881818
1688.272079	250.101399
1690.123993	248.186014
1691.975506	245.134266
1693.826618	239.208392
1695.677330	241.531469
1697.527641	241.006993
1699.375767	244.812587
1701.225278	240.093706
1703.069040	246.006294
1704.917751	246.741958
1706.760716	243.666434
1708.606848	238.881818
1710.449017	234.979021
1712.294352	231.910490
1714.133946	231.297902
1715.974924	225.872727
1717.817285	223.496503
1719.655690	223.339860
1721.495478	223.229371
1723.333091	223.594406
1725.170308	226.907692
1727.005352	225.363636
1728.841779	229.258042
1730.676034	227.186713
1732.509894	234.327273
1734.343360	236.292308
1736.172881	241.270629
1738.005560	237.856643
1739.834295	235.600699
1741.666187	237.153147
1743.494137	236.131469
1745.321696	238.365035
1747.148862	237.139860
1748.975637	237.216084
1750.802020	237.794406
1752.624467	234.433566
1754.450069	229.881119
1756.271736	225.944755
1758.094785	225.017483
1759.915672	222.074825
1761.736171	225.754545
1763.558051	225.553147
1765.374231	226.578322
1767.193563	228.944755
1769.008968	230.742657
1770.827523	228.979021
1772.642153	227.111189
1774.456396	230.232168
1776.270253	227.298601
1778.083723	223.573427
1779.895040	227.146853
1781.707737	233.023077
1783.520049	236.897902
1785.328443	230.113287
1787.138217	231.226573
1788.944077	226.562238
1790.753082	224.437063
1792.558174	221.852448
1794.364647	220.938462
1796.170736	220.247552
1797.972914	216.376224
1799.778237	213.479720
1801.579651	221.898601
1803.382445	225.294406
1805.181333	229.511189
1806.981602	229.389510
1808.781489	233.587413
1810.579234	230.325874
1812.376599	236.747552
1814.173584	238.346154
1815.970188	233.791608
1817.764653	226.390210
1819.560497	223.189510
1821.350686	222.635664
1823.145772	222.009091
1824.935206	223.950350
1826.727776	224.521678
1828.518211	224.543357
1830.306512	231.388811
1832.097948	230.788811
1833.883738	236.576923
1835.670908	234.156643
1837.455946	230.257343
1839.244118	231.129371
1841.028404	229.008392
1842.810560	229.665734
1844.594096	227.562238
1846.375503	225.976923
1848.158289	223.956643
1849.937194	224.857343
1851.717479	224.371329
1853.495637	224.349650
1855.275174	222.164336
1857.052586	221.914685
1858.827874	219.848252
1860.604540	223.130070
1862.379084	221.875524
1864.155006	221.223077
1865.925307	218.707692
1867.698736	218.509790
1869.470045	218.439161
1871.240983	216.813287
1873.013299	217.168531
1874.780001	219.325175
1876.549829	216.599301
1878.315793	218.439860
1880.084880	219.513986
1881.850106	223.596503
1883.614964	226.464336
1885.381199	228.097902
1887.143575	232.995105
1888.905584	234.228671
1890.667225	234.146154
1892.428500	230.737762
1894.189407	226.833566
1895.949948	219.848951
1897.708379	214.486713
1899.466444	212.279720
1901.222402	210.637063
1902.979736	210.055245
1904.736705	210.400699
1906.491567	212.948252
1908.244325	217.132867
1909.996718	217.309091
1911.750488	221.708392
1913.502154	221.434965
1915.251718	222.339161
1917.002657	220.512587
1918.753234	220.480420
1920.499971	220.867832
1922.248085	218.959441
1923.994099	213.660140
1925.741488	210.631469
1927.486780	210.167832
1929.229974	207.868531
1930.974543	210.624476
1932.717017	214.271329
1934.459130	215.563636
1936.200883	217.364336
1937.942276	218.055245
1939.681576	221.446853
1941.420517	219.535664
1943.159099	215.743357
1944.895590	212.311888
1946.631723	213.613287
1948.369230	210.717483
1950.102915	208.302797
1951.837975	213.146154
1953.570946	214.667832
1955.303561	218.597902
1957.035820	219.006294
1958.767722	223.792308
1960.497538	225.890909
1962.225269	226.482517
1963.954375	225.702797
1965.683126	225.667832
1967.409793	223.251049
1969.136106	216.302797
1970.863792	213.762937
1972.585942	212.460839
1974.311193	209.794406
1976.032637	211.401399
1977.757182	210.851049
1979.479646	213.256643
1981.198308	215.127273
1982.920068	217.378322
1984.638026	218.602098
1986.357357	218.569930
1988.072889	216.318182
1989.793241	216.762238
1991.509795	216.713986
1993.222552	215.355245
1994.938405	211.419580
1996.652186	213.967832
1998.365617	213.970629
2000.076977	214.522378
2001.789709	218.904196
2003.498651	219.595804
2005.210685	221.041958
2006.917211	218.786713
2008.626828	219.502797
2010.334379	224.379720
2012.041581	224.044755
2013.746718	221.791608
2015.451509	220.761538
2017.157671	221.946853
2018.860051	218.965734
2020.563802	221.171329
2022.265491	219.790909
2023.966835	219.159441
2025.667833	218.210490
2027.366770	216.460140
2029.067079	216.943357
2030.763613	218.914685
2032.461518	215.326573
2034.157364	212.302098
2035.856296	214.371329
2037.549742	212.611189
2039.244559	213.618182
2040.939034	211.996503
2042.629740	208.805594
2044.323530	210.660839
2046.013553	209.495105
2047.704947	208.381818
2049.394288	205.363636
2051.084999	205.485315
2052.771947	203.386713
2054.458556	203.944755
2056.146534	209.485315
2057.830753	212.616084
2059.516343	216.688112
2061.201593	215.444755
2062.884794	215.351748
2064.569366	215.717483
2066.248475	215.717483
2067.932369	214.139860
2069.610802	213.763636
2071.292313	209.829371
2072.970072	209.457343
2074.647495	209.471329
2076.326287	209.932168
2078.003037	206.651049
2079.677745	205.883217
2081.353822	206.218182
2083.027859	203.970629
2084.701560	200.844056
2086.374926	202.321678
2088.046253	205.688811
2089.717246	207.706294
2091.387905	203.816783
2093.058230	204.723776
2094.728221	203.962937
2096.396176	201.462937
2098.063798	198.516783
2099.729385	200.018881
2101.396341	202.002098
2103.061264	202.504196
2104.725855	203.351049
2106.388414	207.772727
2108.052341	214.481818
2109.714237	215.979720
2111.375803	214.688811
2113.037037	211.913287
2114.696243	211.724476
2116.355118	210.430769
2118.013664	209.169231
2119.671880	207.932867
2121.326372	208.094406
2122.983929	205.066434
2124.641157	207.338462
2126.294663	209.338462
2127.949537	210.410490
2129.600692	212.758741
2131.254910	213.022378
2132.905411	210.592308
2134.557278	214.600699
2136.203737	216.351748
2137.854951	214.405594
2139.502451	211.444056
2141.151318	206.977622
2142.798166	201.774126
2144.444689	204.150350
2146.090886	205.590210
2147.733375	203.716783
2149.378922	200.271329
2151.020762	200.279720
2152.665659	197.395804
2154.306850	204.097203
2155.947719	202.313986
2157.588263	194.086713
2159.226795	194.963636
2160.866693	193.941958
2162.502891	195.458741
2164.140455	197.688811
2165.777697	200.218182
2167.412929	200.144755
2169.047840	197.837063
2170.682428	200.715385
2172.316696	203.732867
2173.947270	207.967832
2175.580896	202.716783
2177.210830	196.572028
2178.842129	201.086713
2180.471423	200.764336
2182.100398	198.488811
2183.729053	195.446853
2185.357389	194.426573
2186.983723	193.416084
2188.609738	191.895105
2190.233751	194.167832
2191.859130	198.594406
2193.482508	196.414685
2195.107251	193.939860
2196.728313	193.397902
2198.349058	194.614685
2199.971168	193.039161
2201.591280	191.388811
2203.209395	194.958042
2204.827195	197.529371
2206.444680	199.560839
2208.061849	203.591608
2209.678703	207.022378
2211.295241	209.753147
2212.909787	207.953147
2214.522340	207.755944
2216.136257	206.673427
2217.748183	204.293706
2219.361472	196.762238
2220.972771	193.910490
2222.582080	194.716783
2224.192753	188.216783
2225.801437	187.368531
2227.409808	187.113287
2229.016193	186.746853
2230.623941	185.838462
2232.229702	185.069930
2233.835152	186.262238
2235.438617	190.631469
2237.043445	194.111888
2238.646289	190.827972
2240.247150	193.222378
2241.849374	194.084615
2243.449616	188.139161
2245.051220	189.034965
2246.649171	189.365035
2248.248485	187.074126
2249.845819	183.507692
2251.442845	183.870629
2253.041233	187.290909
2254.635972	192.556643
2256.228734	195.517483
2257.822859	196.779021
2259.418345	199.062238
2261.010186	196.104895
2262.601721	190.574825
2264.194618	191.132168
2265.782205	191.375524
2267.374488	190.904196
2268.961465	189.433566
2270.551469	190.162937
2272.136169	194.541958
2273.725563	195.184615
2275.309655	197.777622
2276.895107	196.513287
2278.478591	188.991608
2280.065100	181.579720
2281.647976	181.468531
2283.230549	179.973077
2284.812818	176.395105
2286.391457	175.405245
2287.973121	175.837063
2289.551156	180.509441
2291.132214	184.595804
2292.709645	182.129021
2294.285113	184.988811
2295.863603	183.536014
2297.438469	179.558741
2299.013034	179.734615
2300.587299	180.427972
2302.161263	173.096154
2303.734926	169.131469
2305.308290	170.911189
2306.878035	174.154545
2308.447481	174.948951
2310.019945	173.786014
2311.587135	170.634965
2313.157343	175.336364
2314.723936	177.204196
2316.291889	178.554545
2317.857886	177.196503
2319.423586	177.662238
2320.988988	176.971329
2322.552437	178.464336
2324.117245	179.348951
2325.678445	181.046853
2327.242659	181.466434
2328.801611	182.605594
2330.363578	185.793007
2331.923593	186.495804
2333.483314	182.913287
2335.041085	182.509091
2336.598561	178.374825
2338.155743	179.580420
2339.710977	180.601399
2341.265918	179.186014
2342.820564	179.513287
2344.374917	184.321678
2345.928977	185.773427
2347.482742	190.276224
2349.034564	191.934965
2350.584442	189.969231
2352.137328	186.796503
2353.684972	185.034965
2355.235623	179.134965
2356.782683	176.132867
2358.331101	176.346154
2359.879228	173.225874
2361.423766	169.745455
2362.969662	173.917483
2364.513620	174.226573
2366.058935	178.332168
2367.600665	179.911189
2369.143752	182.428671
2370.684903	184.958042
2372.225765	185.221678
2373.766338	181.634266
2375.306622	176.074825
2376.846617	174.670629
2378.383034	172.077622
2379.922452	168.765734
2381.458293	171.549650
2382.995490	167.541259
2384.529112	170.718182
2386.065734	171.842657
2387.600426	174.391608
2389.133188	176.709091
2390.665663	178.341259
2392.196210	176.027972
2393.729755	173.828671
2395.258089	175.160140
2396.787780	177.565035
2398.317184	176.981818
2399.846304	173.959441
2401.375139	176.212587
2402.898768	178.123077
2404.427033	174.530070
2405.950096	176.490210
2407.477792	175.964336
2408.998649	178.697902
2410.524139	177.651049
2412.046068	175.002098
2413.569353	171.273427
2415.090716	168.639161
2416.610160	169.683916
2418.130959	168.698601
2419.649840	167.612587
2421.168438	166.371329
2422.685119	165.400000
2424.203154	169.011189
2425.720908	173.522378
2427.235111	177.774825
2428.749033	177.851748
2430.262675	177.940559
2431.777672	179.353846
2433.289120	179.797203
2434.801923	181.161538
2436.312812	177.583916
2437.823423	170.845455
2439.332122	172.476923
2440.843807	168.219580
2442.351949	166.333566
2443.859813	169.972727
2445.367399	166.065035
2446.871444	164.952448
2448.378474	164.218182
2449.883597	160.485315
2451.388441	160.930769
2452.891379	165.185315
2454.394041	169.046154
2455.896426	167.131469
2457.396906	170.189510
2458.898739	167.530769
2460.398667	166.733566
2461.898320	166.944755
2463.397698	162.306993
2464.895173	158.079021
2466.390746	154.769930
2467.889299	152.709790
2469.384324	158.379021
2470.880701	161.321678
2472.373552	159.868531
2473.867756	161.327273
2475.361686	158.628671
2476.852092	153.634965
2478.345476	150.285315
2479.836962	147.243357
2481.326551	150.413986
2482.815868	147.851748
2484.303289	152.251748
2485.793686	158.158042
2487.280565	163.718182
2488.768795	162.376224
2490.253508	164.155944
2491.737952	169.443357
2493.223746	163.040559
2494.707649	161.032867
2496.192902	154.599301
2497.673022	150.042657
2499.156115	151.473427
2500.637317	145.460839
2502.118250	146.791608
2503.597294	149.211189
2505.076069	150.986014
2506.554576	151.909790
2508.032815	156.039161
2509.510785	157.764336
2510.985250	156.431469
2512.462685	154.509091
2513.936616	155.838462
2515.411897	158.926573
2516.886911	159.365734
2518.358425	163.564336
2519.831288	162.664336
2521.302269	163.560140
2522.774600	165.036364
2524.241817	163.268531
2525.712001	161.389510
2527.180304	158.500000
2528.648342	153.415385
2530.116115	150.253147
2531.583623	156.126573
2533.050866	156.477622
2534.514617	158.426573
2535.979718	162.220979
2537.442942	162.134266
2538.907516	165.295105
2540.368600	167.781119
2541.831034	168.703497
2543.293205	170.795105
2544.751890	171.817483
2546.215147	168.516783
2547.673307	162.863636
2549.132816	162.854545
2550.587231	160.873427
2552.046217	161.634965
2553.503331	155.351748
2554.958574	152.279720
2556.413555	150.202098
2557.866668	153.320979
2559.321129	151.885315
2560.773720	150.632867
2562.226052	151.588811
2563.676517	153.695804
2565.129937	151.720280
2566.578275	160.051049
2568.029569	162.903497
2569.478996	163.825175
2570.924951	160.512587
2572.373861	159.998601
2573.819301	160.000699
2575.266088	157.331469
2576.711013	151.365734
2578.155679	147.152448
2579.601693	146.070629
2581.044241	147.974825
2582.488136	147.046853
2583.928566	152.215385
2585.370343	152.071329
2586.810261	157.226573
2588.251526	159.569231
2589.689329	161.004895
2591.130082	160.371329
2592.565773	158.700000
2594.004413	155.012587
2595.441195	150.186014
2596.876122	148.179021
2598.313996	149.797203
2599.746813	150.969231
2601.180977	153.536364
2602.613287	155.690210
2604.046943	160.663636
2605.478746	156.514685
2606.910295	156.439161
2608.341592	153.460140
2609.771036	146.551049
2611.200228	143.097902
2612.627570	140.745455
2614.056257	141.339860
2615.484693	147.072727
2616.909681	148.634266
2618.336016	148.980420
2619.760502	150.888811
2621.186334	153.511888
2622.608722	153.384615
2624.032456	152.973427
2625.454343	148.106294
2626.875981	146.237762
2628.295773	146.433566
2629.716911	148.983916
2631.137799	146.291608
2632.555249	148.542657
2633.975638	147.152448
2635.392590	148.906294
2636.809293	150.563636
2638.225748	154.188811
2639.641955	160.374825
2641.057914	157.172727
2642.472032	155.694406
2643.885902	151.825874
2645.297934	148.279021
2646.711309	148.918182
2648.121255	140.809790
2649.534137	143.513986
2650.943590	143.008392
2652.352797	139.107692
2653.760168	137.171329
2655.170473	135.991608
2656.578943	140.624476
2657.985577	136.495804
2659.391966	132.807692
2660.796521	131.527273
2662.202420	135.358042
2663.606486	135.925175
2665.010307	136.025175
2666.413884	145.011189
2667.815630	149.313986
2669.218719	150.105594
2670.618390	153.783916
2672.019405	154.581818
2673.417004	156.019580
2674.817533	153.121678
2676.214646	149.712587
2677.613103	148.926573
2679.009733	145.227972
2680.406120	143.203497
2681.802265	145.534266
2683.196585	146.423077
2684.592246	145.346154
2685.984499	148.969930
2687.378094	149.566434
2688.769865	152.049650
2690.162979	149.688112
2691.554269	150.450350
2692.943736	148.569231
2694.332963	145.334965
2695.721951	143.743357
2697.112280	145.179720
2698.497626	146.098601
2699.885895	139.871329
2701.272344	138.960839
2702.658554	142.788811
2704.044525	145.588811
2705.427098	146.344056
2706.811013	145.283916
2708.194690	149.167832
2709.578128	151.251049
2710.958172	150.343357
2712.339556	147.225175
2713.719126	147.969231
2715.100036	147.985315
2716.479132	145.741259
2717.856414	143.423776
2719.235037	142.070629
2720.611847	136.613986
2721.988420	135.683217
2723.364758	136.695105
2724.739285	139.812587
2726.115152	142.209790
2727.487632	139.832168
2728.863028	134.927972
2730.233464	137.974825
2731.605241	136.334266
2732.976783	136.005594
2734.346517	136.056643
2735.717592	133.518182
2737.086858	132.218881
2738.455891	133.624476
2739.823118	131.813986
2741.190112	129.647552
2742.556872	130.319580
2743.923401	127.664336
2745.288124	121.965734
2746.652615	121.533566
2748.016875	119.862238
2749.380902	123.080420
2750.744698	130.399301
2752.105120	132.813986
2753.468452	135.107692
2754.826842	134.490210
2756.188142	135.496503
2757.546072	133.407692
2758.906910	131.400000
2760.265949	128.658042
2761.621619	128.617483
2762.980197	129.093706
2764.335408	128.625175
2765.690390	130.565035
2767.043576	132.565035
2768.399668	130.224476
2769.752395	130.325874
2771.104895	134.141259
2772.457166	132.555944
2773.810776	129.642657
2775.161024	125.711888
2776.509478	127.554545
2777.860838	128.853147
2779.208838	128.498601
2780.558176	127.898601
2781.905722	127.576224
2783.253042	124.250350
2784.600135	123.337762
2785.945437	121.627273
2787.290512	118.669930
2788.635362	118.281119
2789.979986	118.314685
2791.321258	115.199301
2792.663868	114.965734
2794.006252	118.082517
2795.348411	124.341259
2796.687221	127.555944
2798.028931	126.714685
2799.367293	129.186713
2800.706991	135.732168
2802.044905	132.774126
2803.381034	130.760839
2804.716939	133.189510
2806.054182	128.616084
2807.389641	122.665734
2808.724877	122.269930
2810.058330	126.252448
2811.393120	125.350350
2812.724570	124.124476
2814.058915	127.477622
2815.388362	136.888112
2816.719146	142.211888
2818.049708	139.822378
2819.378491	139.661538
2820.708610	135.139860
2822.036951	131.434965
2823.365071	128.337762
2824.691413	127.043357
2826.019092	127.460839
2827.343437	125.516783
2828.669119	127.489510
2829.993025	132.920979
2831.316712	133.667133
2832.641734	134.816783
2833.963426	138.406294
2835.284900	140.209091
2836.606155	136.355944
2837.927191	139.234965
2839.246454	138.741958
2840.567053	137.267133
2841.885881	137.067832
2843.204490	132.483217
2844.521328	129.997203
2845.837949	124.527273
2847.154353	120.641958
2848.468987	119.235664
2849.784957	120.422378
2851.097606	118.417483
2852.411590	116.576224
2853.725358	117.189510
2855.038909	119.296503
2856.350694	118.846853
2857.660712	118.579720
2858.972065	117.427273
2860.280103	117.661538
2861.589475	118.958741
2862.898633	118.893007
2864.207575	117.805594
2865.514753	120.791608
2866.820169	118.419580
2868.126919	119.582517
2869.431906	119.148252
2870.736680	119.927273
2872.039692	118.280420
2873.345585	116.673427
2874.646624	120.307692
2875.948997	118.283916
2877.249610	118.864336
2878.551557	113.126573
2879.853290	112.492308
2881.151720	111.274126
2882.451483	108.034965
2883.749489	109.605594
2885.047283	112.559441
2886.343321	112.964336
2887.640692	115.076923
2888.936307	116.366434
2890.231711	122.273427
2891.526904	120.586713
2892.818800	122.900000
2894.113572	121.096503
2895.405047	122.447552
2896.697855	123.616783
2897.990453	122.293007
2899.279757	122.217483
2900.570393	123.969930
2901.859278	119.672727
2903.149495	121.130769
2904.436421	120.802797
2905.724679	120.395804
2907.011188	118.275524
2908.297489	121.976923
2909.583581	124.037063
2910.867925	125.869930
2912.155140	125.113986
2913.437529	123.140559
2914.721250	124.454545
2916.003225	124.621678
2917.284992	124.624476
2918.565015	128.585315
2919.847907	127.295105
2921.129054	125.057343
2922.406919	124.706294
2923.687653	126.202797
2924.965106	122.573427
2926.242353	119.793007
2927.517858	113.695105
2928.796231	111.841958
2930.069790	111.286713
2931.346216	110.304196
2932.620901	111.337063
2933.893845	111.456643
2935.168121	111.261538
2936.440657	110.762238
2937.712988	109.531469
2938.982047	109.817483
2940.253971	110.098601
2941.524157	117.589510
2942.794139	118.516783
2944.063918	120.837063
2945.331961	120.709790
2946.598267	117.713287
2947.864372	113.576224
2949.131806	108.853147
2950.397506	104.770629
2951.663003	101.599301
2952.928298	100.042657
2954.190328	101.100000
2955.453688	103.483217
2956.716847	113.693007
2957.978274	118.511189
2959.241030	123.202797
2960.502054	124.825874
2961.761348	123.784615
2963.020442	118.595804
2964.279335	114.188112
2965.538028	109.871329
2966.796521	105.516084
2968.053285	104.468531
2969.309849	102.366434
2970.564686	102.500000
2971.820851	108.567133
2973.073762	111.848252
2974.328002	111.833566
2975.582043	113.351049
2976.834358	108.643357
2978.086474	110.446853
2979.336866	109.107692
2980.590113	107.699301
2981.838583	108.078322
2983.089908	109.154545
2984.337983	108.709790
2985.585862	104.480420
2986.833543	107.348252
2988.081027	105.399301
2989.326790	101.983217
2990.572357	103.662238
2991.819251	102.695804
2993.062901	105.234266
2994.307879	101.825874
2995.549613	100.793007
2996.794199	102.449650
2998.037066	101.374825
2999.276692	101.139860
3000.519168	99.556643
3001.758404	102.033566
3002.998968	104.811189
3004.237816	106.823776
3005.476468	108.710490
3006.713406	108.568531
3007.951670	106.774126
3009.188219	105.622378
3010.424575	103.647552
3011.660737	102.853147
3012.895185	101.324476
3014.129441	103.183217
3015.363503	102.609091
3016.595853	103.264336
3017.826491	103.857343
3019.059975	99.039860
3020.291747	95.774825
3021.521809	95.446853
3022.751679	93.962238
3023.979839	91.267832
3025.209325	90.724476
3026.437102	93.554545
3027.664688	93.770629
3028.893601	95.572727
3030.117771	97.529371
3031.344784	101.165734
3032.568573	103.225874
3033.793689	103.275524
3035.017098	104.205594
3036.240317	106.093007
3037.461831	105.116084
3038.686186	105.844755
3039.905806	105.529371
3041.126752	107.076224
3042.347509	101.488112
3043.566562	99.792308
3044.786940	101.602098
3046.004102	102.509790
3047.222590	101.702797
3048.439375	101.213986
3049.655973	99.720280
3050.872382	95.511888
3052.085579	94.401399
3053.301613	94.166434
3054.514435	90.737063
3055.730094	95.009790
3056.941030	94.217483
3058.153291	95.018182
3059.365366	96.196503
3060.577253	97.689510
3061.787444	96.363636
3062.997448	98.512238
3064.207266	96.730769
3065.415388	93.618531
3066.623325	96.460839
3067.829566	96.413636
3069.037132	95.761538
3070.243003	97.952797
3071.448690	95.649650
3072.654191	96.831818
3073.857999	95.210490
3075.063131	95.353497
3076.266570	95.398601
3077.468318	98.381469
3078.669881	98.988112
3079.871261	96.680420
3081.072457	98.753147
3082.271963	97.167133
3083.471286	93.724476
3084.671932	90.367133
3085.870888	87.606993
3087.066650	85.879720
3088.265241	85.641259
3089.460638	87.042657
3090.657358	89.379021
3091.850886	94.556643
3093.047242	98.242657
3094.241912	99.418182
3095.433391	101.620280
3096.629201	102.893007
3097.820318	104.030769
3099.012757	102.805594
3100.202009	96.667832
3101.394086	95.990210
3102.584480	99.060839
3103.771688	95.995804
3104.960219	94.251748
3106.150071	97.851748
3107.336740	101.788811
3108.523228	97.955944
3109.709538	98.488112
3110.897169	101.751748
3112.081618	102.724476
3113.264388	103.368531
3114.449980	101.109790
3115.633893	103.113287
3116.816127	101.751748
3117.998182	99.590210
3119.180059	98.680420
3120.361758	99.858042
3121.541780	99.046154
3122.720125	96.069231
3123.901290	94.943357
3125.079280	96.899301
3126.257094	96.154545
3127.434730	94.734965
3128.610691	91.475524
3129.786475	89.818182
3130.963581	85.069231
3132.139012	85.412587
3133.312770	87.021678
3134.484855	87.841958
3135.658262	88.611888
3136.831492	93.363636
3138.003051	91.160839
3139.175930	97.945455
3140.345642	99.693007
3141.516675	101.758741
3142.686038	101.948951
3143.853730	100.987413
3145.024238	99.625175
3146.190088	99.920979
3147.360246	100.458042
3148.525748	99.719580
3149.691075	96.755944
3150.856229	94.922378
3152.021210	90.302797
3153.187510	90.409091
3154.349158	88.624476
3155.512125	91.200000
3156.674920	89.743357
3157.837542	92.438462
3158.998499	94.376224
3160.159283	94.676923
3161.319895	97.517483
3162.478843	99.979021
3163.637620	99.386713
3164.796225	97.534266
3165.954657	93.327273
3167.112919	90.043357
3168.269518	89.193007
3169.424456	90.664336
3170.580713	88.422378
3171.735309	85.688811
3172.889735	84.485315
3174.042501	85.851748
3175.195096	87.400699
3176.347522	88.039860
3177.499778	89.350350
3178.651863	90.679021
3179.800803	92.192308
3180.952549	94.244755
3182.102637	95.165734
3183.251069	96.511189
3184.399331	96.060839
3185.547425	95.048951
3186.695350	98.255944
3187.841619	99.473427
3188.987720	95.074126
3190.132167	89.244056
3191.276446	88.704196
3192.420557	88.027972
3193.565985	86.144755
3194.708275	83.757343
3195.850398	81.504196
3196.992353	83.566434
3198.134141	84.495804
3199.275762	84.747552
3200.414248	84.934965
3201.554051	85.011189
3202.695172	81.823776
3203.833158	81.378322
3204.969495	84.890210
3206.105666	84.061538
3207.243154	85.809091
3208.378994	87.143357
3209.516151	85.944056
3210.648695	88.310490
3211.785521	87.973427
3212.917735	87.432867
3214.051266	90.392308
3215.184633	89.328671
3216.314872	90.434266
3217.447909	91.350350
3218.577820	89.333566
3219.709047	86.127972
3220.837150	84.188811
3221.968049	81.837762
3223.097304	83.430070
3224.224916	86.511189
3225.349405	83.130070
3226.478170	81.261538
3227.603813	79.681119
3228.729294	75.051049
3229.853133	76.306294
3230.979766	72.500000
3232.101802	68.604895
3233.225154	63.044056
3234.348344	61.582517
3235.471372	68.374825
3236.592760	73.384615
3237.713986	78.388811
3238.833575	77.812587
3239.953002	79.311189
3241.070791	81.706993
3242.191372	85.825874
3243.308840	88.153846
3244.426147	87.079021
3245.543294	84.348252
3246.658805	78.734266
3247.775630	82.828671
3248.889346	85.984615
3250.005851	84.227273
3251.120722	87.111888
3252.232484	84.942657
3253.344086	83.358042
3254.457004	79.824476
3255.569762	81.544056
3256.679414	79.706993
3257.790381	79.416783
3258.901189	76.849650
3260.010365	77.760839
3261.117911	83.220979
3262.226770	83.707692
3263.335472	88.242657
3264.441071	88.411189
3265.547984	88.741259
3266.653268	87.123077
3267.759866	81.338462
3268.863364	80.037063
3269.968177	77.881119
3271.072832	79.403497
3272.174388	77.596503
3273.275788	79.042657
3274.378502	79.518881
3275.481060	80.500699
3276.580521	82.982517
3277.682766	79.283916
3278.781915	81.714685
3279.879440	78.474825
3280.976809	76.765035
3282.076960	76.860140
3283.174019	79.468531
3284.270922	82.243357
3285.367670	80.207692
3286.459860	83.258741
3287.556298	84.416783
3288.651114	84.884615
3289.745776	85.974126
3290.838816	84.977622
3291.931701	83.221678
3293.022967	79.966434
3294.115544	82.618881
3295.206502	81.523077
3296.295840	80.804895
3297.385025	77.739860
3298.475523	75.029371
3299.562936	75.183217
3300.650196	76.318182
3301.738769	74.410490
3302.827190	77.067832
3303.911063	78.090210
3304.999178	77.295804
3306.084211	78.435664
3307.167629	81.430769
3308.252359	78.844056
3309.335473	78.297902
3310.419900	78.484615
3311.501248	78.691608
3312.583908	79.072028
3313.664954	81.805594
3314.745849	79.762937
3315.825130	80.597902
3316.904261	79.267133
3317.984704	75.009790
3319.062072	73.332867
3320.140752	70.499301
3321.217820	67.755245
3322.294739	69.511189
3323.370046	72.013986
3324.445204	74.131469
3325.521673	75.388811
3326.595072	75.703497
3327.668322	74.726573
3328.742882	75.754545
3329.815834	76.670629
3330.887177	78.991608
3331.959831	81.004895
3333.029419	81.447552
3334.100317	84.455944
3335.169608	88.800699
3336.240210	90.132867
3337.309205	91.079720
3338.376594	87.701399
3339.442378	86.423077
3340.512388	84.388112
3341.579335	83.562238
3342.643220	83.486713
3343.709873	80.606294
3344.774921	77.996503
3345.838366	77.976224
3346.901665	78.518182
3347.964817	79.870629
3349.027823	82.120280
3350.090683	82.153147
3351.151941	83.365035
3352.210142	84.359441
3353.272563	82.560839
3354.331929	76.841958
3355.391149	74.481818
3356.451679	72.278322
3357.507699	76.241259
3358.566483	79.330769
3359.620760	80.609091
3360.677801	80.786713
3361.733243	82.644056
3362.789995	81.219580
3363.845148	80.457343
3364.898704	82.020979
3365.950664	78.783217
3367.005385	74.249650
3368.057057	73.723077
3369.108586	72.306993
3370.161423	74.197902
3371.211213	71.762937
3372.262312	70.088811
3373.310365	69.968531
3374.361177	73.118881
3375.408945	75.053846
3376.456570	77.346853
3377.504052	80.308392
3378.549942	78.443357
3379.597140	78.129371
3380.641296	75.327273
3381.688210	72.574126
3382.733532	73.783217
3383.775813	70.137762
3384.817954	73.322378
3385.861402	77.381818
3386.904709	78.416783
3387.946427	78.928671
3388.988003	80.511189
3390.029438	78.548252
3391.069285	78.098601
3392.107543	77.258741
3393.147109	74.596503
3394.186535	73.709091
3395.224373	74.223077
3396.260624	73.118182
3397.296736	77.260140
3398.334155	76.635664
3399.368541	76.415385
3400.404234	77.233566
3401.439788	77.549650
3402.472311	78.163636
3403.507587	76.043357
3404.539832	75.132867
3405.571939	72.489510
3406.602462	70.731469
3407.634292	69.407692
3408.665984	68.782517
3409.694648	68.655944
3410.723175	65.344056
3411.753008	67.759441
3412.782704	68.157343
3413.809374	69.006993
3414.837351	72.464336
3415.862303	70.707692
3416.890005	72.489510
3417.914684	75.724476
3418.940669	73.575524
3419.965074	72.504196
3420.989343	69.911189
3422.012033	64.988811
3423.034587	60.886014
3424.058447	61.874126
3425.079287	62.781119
3426.099991	64.033766
3427.122002	65.398402
3428.140994	66.541459
3429.159850	67.129371
3430.180013	66.828571
3431.197159	65.305495
