-118.059454	11.237912
-115.389854	8.653846
-112.723189	6.406893
-110.057276	4.513487
-107.394295	2.990060
-104.729885	1.853047
-102.068405	1.118881
-99.405496	1.791608
-96.747693	-0.191608
-94.088461	0.813986
-91.429977	0.438462
-88.774417	5.890909
-86.117429	7.578322
-83.465539	7.045455
-80.812218	7.540559
-78.161818	5.667832
-75.509988	7.601399
-72.863249	8.472727
-70.215081	10.297902
-67.567655	14.095804
-64.923143	9.342657
-62.277203	12.966434
-59.636344	13.534965
-56.994056	16.313287
-54.354677	12.694406
-51.713868	9.205594
-49.073800	6.313986
-46.438804	4.348252
-43.802380	4.464336
-41.168858	4.547552
-38.533908	7.794406
-35.904023	9.604196
-33.270546	8.225874
-30.642131	12.229371
-28.014450	15.083217
-25.385340	13.060140
-22.761287	-11.597902
-20.133645	-86.567832
-17.511056	-248.428671
-14.889199	-264.891608
-12.268072	324.548951
-9.647675	1181.452448
-7.030167	1890.468531
-4.411230	2379.348252
-1.795178	2646.092308
0.820145	2688.525874
3.434741	2508.821678
6.046454	2104.434266
8.659596	1487.937762
11.267704	719.595105
13.879394	-36.272727
16.486053	-407.180420
19.094140	-214.972028
21.701503	-16.846154
24.303841	10.327273
26.909757	12.746853
29.510651	13.971329
32.112973	14.108392
34.710278	16.010490
37.311158	15.876224
39.907023	15.195105
42.504317	13.998601
45.100891	12.893007
47.692456	12.618182
50.285449	14.034266
52.875581	15.073427
55.467141	12.280420
58.055841	14.048951
60.645968	16.160140
63.231096	17.508392
65.817652	19.239860
68.403494	20.489510
70.986482	19.638462
73.570896	19.283217
76.148182	19.974126
78.729034	23.339860
81.307037	26.963636
83.884330	25.600000
86.463049	26.381119
89.036786	28.546154
91.611951	29.997902
94.184272	29.408392
96.755885	27.608392
99.324658	26.920979
101.894858	23.616783
104.462220	22.550350
107.031007	14.263636
109.596958	2.593007
112.160074	-10.479021
114.726746	24.922378
117.284197	144.079720
119.847333	307.862937
122.405509	474.522378
124.967240	632.960140
127.524014	776.846154
130.082215	919.784615
132.635462	1061.645455
135.188012	1196.283217
137.744112	1319.557343
140.295264	1425.435664
142.845719	1516.961538
145.395476	1634.395105
147.942414	1752.828671
150.488657	1831.272028
153.036325	1847.715385
155.583297	1834.483916
158.125334	1814.033566
160.666677	1813.948951
163.207327	1846.934266
165.749403	1922.619580
168.288667	2052.383217
170.825123	2227.829371
173.360887	2438.667133
175.898077	2696.304196
178.434576	3023.027972
180.968269	3459.069231
183.499158	4045.488112
186.029360	4847.769930
188.560986	5938.397203
191.089811	7364.832867
193.615837	9101.197902
196.141177	11010.816783
198.667942	12902.987413
201.191911	14531.186014
203.715195	15664.085315
206.237794	16132.310490
208.757600	15881.752448
211.276723	14951.722378
213.795163	13482.074825
216.315027	11683.869930
218.827890	9817.359441
221.344284	8092.893706
223.859996	6641.018881
226.370818	5505.030769
228.883065	4665.232168
231.392530	4046.569930
233.901316	3581.053147
236.409423	3213.513986
238.918955	2916.706993
241.423606	2674.290210
243.927581	2465.581119
246.432980	2287.237063
248.933504	2155.342657
251.437552	2158.825175
253.934628	2324.160140
256.435228	2562.358741
258.933056	2747.874126
261.430211	2843.742657
263.926693	2842.499301
266.418312	2744.346154
268.913451	2541.437063
271.405823	2251.710490
273.897525	1893.339161
276.386464	1515.018881
278.876827	1201.547552
281.364427	1053.809790
283.849268	1032.314685
286.337624	1039.034965
288.819040	1022.363636
291.303970	1003.532168
293.784055	986.591608
296.267652	971.136364
298.746406	958.219580
301.226584	951.011189
303.704009	946.758741
306.180771	942.844056
308.656870	947.598601
311.130220	962.045455
313.602908	977.043357
316.074935	992.790909
318.546301	1004.884615
321.014922	1012.102797
323.482885	1014.955944
325.952269	1009.029371
328.416831	1003.535664
330.884897	989.292308
333.348143	969.318182
335.810731	929.778322
338.272663	889.014685
340.733938	978.056643
343.192479	1356.579021
345.652442	1954.206294
348.109672	2526.517483
350.566248	2943.986713
353.022170	3180.399301
355.475362	3219.465734
357.929977	3070.325874
360.379790	2739.183916
362.833099	2252.874126
365.281610	1670.109091
367.729469	1114.495804
370.178751	782.748951
372.623239	743.469930
375.069149	817.106993
377.514409	838.616783
379.956951	914.578322
382.398845	1167.382517
384.840092	1509.617483
387.278623	1815.073427
389.718576	2074.339161
392.155815	2285.388112
394.590342	2417.931469
397.028357	2430.936364
399.461595	2314.991608
401.896254	2080.129371
404.326141	1765.740559
406.759513	1452.095105
409.188115	1260.069930
411.616075	1212.353147
414.045457	1191.130070
416.470073	1148.988811
418.896111	1147.769231
421.321508	1193.317483
423.746265	1249.144755
426.166264	1303.387413
428.587684	1366.400000
431.006407	1434.990909
433.426551	1523.339161
435.844000	1638.718881
438.262869	1776.631469
440.679045	1909.981818
443.090473	1998.174825
445.505379	2001.307692
447.917594	2508.139161
450.329175	5139.672727
452.740122	10831.501399
455.148383	19403.157343
457.556011	28772.699301
459.963007	36730.647552
462.369372	42117.176923
464.773054	44382.020979
467.176106	43333.200000
469.578528	39038.520280
471.980320	31959.445455
474.379435	23088.769231
476.779969	14365.301399
479.179874	8031.667133
481.575056	4771.916084
483.973705	3968.619580
486.367634	3882.813287
488.760937	3667.181818
491.153614	3379.366434
493.545666	3088.309790
495.939136	2875.260140
498.327894	2776.543357
500.713986	2772.646853
503.101498	2771.176224
505.488387	2751.900000
507.872612	2706.497902
510.258255	2623.090909
512.641237	2491.042657
515.021558	2318.664336
517.403298	2102.899301
519.782379	1867.518881
522.162879	1648.872028
524.540721	1512.778322
526.915908	1466.352448
529.290477	1451.263636
531.666464	1423.132168
534.039799	1393.966434
536.414551	1365.513986
538.784618	1340.465035
541.154069	1309.560839
543.524938	1284.009790
545.891127	1260.236364
548.258734	1233.118881
550.623695	1205.702797
552.988043	1172.060140
555.351778	1143.384615
557.716931	1116.106294
560.077412	1092.796503
562.439311	1068.636364
564.798569	1055.075524
567.155190	1038.945455
569.515255	1027.372028
571.868629	1020.165734
574.225448	1014.374126
576.579632	1010.497203
578.933208	1009.394406
581.286175	1002.381818
583.636510	1000.553846
585.988263	999.376224
588.333339	998.061538
590.683879	1000.516084
593.027745	1000.542657
595.377073	995.031469
597.721752	991.536364
600.063807	979.944056
602.407279	967.382517
604.748128	955.840559
607.088375	947.138462
609.426001	933.691608
611.767062	923.469231
614.103485	917.180420
616.441325	914.474126
618.776548	915.108392
621.109155	911.878322
623.443178	912.916783
625.774587	915.474825
628.105398	911.947552
630.435612	908.862238
632.765227	904.536364
635.090220	900.817483
637.420653	895.162238
639.746466	893.213986
642.069671	890.363636
644.394293	887.525874
646.716309	881.446853
649.037731	881.220280
651.356551	875.174825
653.676786	872.317483
655.996428	862.858042
658.313469	856.251748
660.629918	850.302098
662.943769	844.751748
665.259036	846.181818
667.571706	851.119580
669.885791	853.513287
672.195276	862.254545
674.506177	874.837063
676.814485	886.218182
679.122205	897.568531
681.431339	926.177622
683.735881	989.468531
686.039837	1086.921678
688.343207	1200.206294
690.647991	1297.936364
692.948189	1368.551748
695.249801	1398.930070
697.550829	1389.425874
699.847274	1340.067832
702.145135	1256.338462
704.442412	1143.372727
706.739106	1032.360839
709.031224	936.920280
711.326753	882.591608
713.617708	863.991608
715.910078	864.886713
718.199873	863.504196
720.489087	860.975524
722.777722	859.351049
725.063784	861.313287
727.351261	856.721678
729.636166	855.891608
731.920494	856.473427
734.202253	857.946853
736.485426	853.174126
738.768022	853.362937
741.046062	856.357343
743.325517	862.306993
745.604395	859.554545
747.882699	856.397203
750.156453	858.492308
752.431620	858.475524
754.706214	855.013986
756.978249	854.038462
759.251697	854.314685
761.522587	858.305594
763.790921	861.932867
766.060668	869.644755
768.327861	874.590909
770.594483	880.964336
772.860535	885.566434
775.124036	893.865035
777.388950	900.786713
779.653294	910.954545
781.913109	925.592308
784.174336	946.253147
786.434996	971.016783
788.693110	1004.653147
790.948679	1029.884615
793.207639	1056.781818
795.460100	1121.932867
797.717927	1270.320979
799.971236	1479.698601
802.222005	1697.186713
804.474186	1864.432168
806.723828	1971.279021
808.974883	2005.951049
811.221426	1958.750350
813.469381	1837.144755
815.714802	1658.253147
817.961634	1430.124476
820.207905	1206.067832
822.449671	1045.179021
824.694821	978.485315
826.933498	962.434965
829.175557	963.451049
831.413118	957.720280
833.652091	957.190909
835.888537	956.834266
838.126394	950.637063
840.361726	951.000699
842.594535	948.605594
844.828755	945.241958
847.060452	943.976224
849.291595	943.364336
851.522183	941.511189
853.752217	933.764336
855.981697	933.132867
858.206695	925.879021
860.435068	921.755944
862.658961	913.559441
864.884266	905.500699
867.105095	900.585315
869.329296	894.488112
871.549024	891.825175
873.770162	891.874126
875.990750	894.613287
878.208829	901.223077
880.428317	905.882517
882.643339	917.824476
884.857814	924.675524
887.071740	931.010490
889.285120	938.037762
891.497952	940.280420
893.710238	944.315385
895.920021	937.953147
898.129259	926.936364
900.337952	918.827273
902.544146	909.302797
904.751749	907.162937
906.956854	900.681119
909.161416	900.260140
911.363483	901.177622
913.566959	904.695804
915.767941	920.151049
917.968381	927.755245
920.170230	931.657343
922.365688	925.508392
924.564505	920.006294
926.758883	911.409091
928.956619	898.074126
931.149919	887.082517
933.344628	877.641259
935.536851	872.259441
937.728535	866.653846
939.919682	864.337762
942.108346	868.328671
944.296474	866.162937
946.482121	869.511888
948.671120	871.703497
950.855696	876.544056
953.039737	874.253147
955.227128	868.493007
957.406215	868.674825
959.588653	875.049650
961.770557	875.993706
963.949986	869.546853
966.126943	861.139860
968.305308	855.511189
970.485080	852.100000
972.658503	853.844056
974.835272	846.435664
977.007634	849.168531
979.181404	846.347552
981.350770	844.074126
983.523480	846.058042
985.693725	846.355944
987.863441	844.681119
990.032628	844.224476
992.197418	844.165035
994.365549	840.674825
996.529286	845.872727
998.694429	846.469231
1000.857113	842.786014
1003.019272	849.018881
1005.178974	854.506993
1007.338151	850.712587
1009.498735	849.144056
1011.656865	850.204895
1013.814470	856.695804
1015.971552	858.535664
1018.128110	867.916783
1020.280289	868.842657
1022.433875	863.717483
1024.586939	858.166434
1026.737554	858.497902
1028.889576	860.613287
1031.037224	864.230769
1033.188204	862.292308
1035.334813	871.019580
1037.480903	881.811189
1039.626475	883.397902
1041.773452	877.974126
1043.914140	887.769930
1046.058158	887.978322
1048.199735	881.693007
1050.340796	886.637063
1052.483261	894.422378
1054.619447	906.030070
1056.758958	929.638462
1058.894115	958.858741
1061.032596	981.047552
1063.166723	1001.544056
1065.300337	1002.229371
1067.435356	999.206993
1069.566025	1008.566434
1071.698099	1027.372727
1073.827744	1039.691608
1075.956877	1059.393706
1078.085498	1065.127273
1080.213608	1073.717483
1082.339292	1072.334965
1084.464466	1060.267133
1086.591044	1028.411888
1088.713284	995.253846
1090.836929	949.183916
1092.956239	898.711888
1095.080779	863.717483
1097.199073	858.573427
1099.318772	859.154545
1101.436052	865.987413
1103.552826	861.676923
1105.669093	865.379021
1107.782944	861.462238
1109.898200	857.621678
1112.009132	849.602797
1114.123377	847.317483
1116.233301	843.574825
1118.344629	826.221678
1120.455452	824.041259
1122.561959	834.130769
1124.671776	838.483217
1126.777278	839.567133
1128.884183	845.862937
1130.984873	855.388811
1133.090775	863.863636
1135.192368	876.349650
1137.295364	894.790909
1139.397859	914.402098
1141.494147	931.281818
1143.595643	950.413287
1145.692835	994.909790
1147.789530	1083.826573
1149.885726	1244.373427
1151.981425	1468.995105
1154.076625	1711.148951
1156.169429	1912.630070
1158.263636	2041.612587
1160.351651	2087.630070
1162.444864	2042.023077
1164.531889	1908.893007
1166.622213	1702.340559
1168.708250	1462.428671
1170.797584	1223.029371
1172.880737	1038.608392
1174.965292	932.635664
1177.051249	891.695804
1179.132924	874.738462
1181.216001	866.485315
1183.296692	859.199301
1185.376891	855.945455
1187.456599	856.133566
1189.535816	859.419580
1191.612651	854.369231
1193.687105	852.971329
1195.764850	851.007692
1197.838326	846.876923
1199.913202	841.961538
1201.983811	842.424476
1204.055821	839.590909
1206.125456	839.988811
1208.196491	842.976224
1210.267038	843.590909
1212.333324	851.956643
1214.401011	856.013986
1216.466326	856.049650
1218.533041	862.374126
1220.595500	878.137063
1222.661244	888.420280
1224.722734	904.110490
1226.785625	925.094406
1228.846148	932.223776
1230.906187	931.963636
1232.965744	930.698601
1235.022935	916.511189
1237.079645	906.016783
1239.133991	886.706294
1241.191619	866.119580
1243.246884	851.239161
1245.297908	844.902098
1247.350332	839.534266
1249.402276	841.806294
1251.451862	844.186713
1253.500969	839.315385
1255.549598	838.461538
1257.597748	838.731469
1259.645419	837.114685
1261.688860	831.400000
1263.735577	827.053846
1265.779940	823.118881
1267.823827	817.074126
1269.865362	817.624476
1271.904548	815.404895
1273.947007	810.424476
1275.985243	803.858741
1278.024878	803.818182
1280.064038	807.076224
1282.098979	804.016783
1284.135319	805.148951
1286.169315	794.923077
1288.204708	796.651748
1290.235889	793.830769
1292.268467	788.274825
1294.300574	790.083217
1296.330340	788.013287
1298.361504	788.021678
1300.388460	794.884615
1302.416814	797.025874
1304.440963	800.323776
1306.468378	794.682517
1308.491590	794.807692
1310.516200	785.044755
1312.538476	779.969231
1314.562149	771.366434
1316.583489	771.687413
1318.604361	773.765734
1320.624766	770.912587
1322.640978	776.326573
1324.658587	782.058741
1326.673868	782.088112
1328.692408	784.006294
1330.706759	785.362937
1332.718784	785.046154
1334.734066	778.610490
1336.745163	780.073427
1338.757657	777.378322
1340.765968	784.741958
1342.777534	782.019580
1344.783062	780.401399
1346.791845	782.000000
1348.796450	781.469930
1350.804309	779.704196
1352.811706	779.206993
1354.813072	778.341958
1356.815834	776.637762
1358.818137	773.983916
1360.819980	776.150350
1362.821363	770.595105
1364.820433	774.716783
1366.819044	771.702098
1368.817197	770.592308
1370.814891	769.416084
1372.808423	767.394406
1374.803351	763.273427
1376.797821	763.149650
1378.791835	762.367832
1380.783542	762.731469
1382.774794	759.741958
1384.763740	762.092308
1386.754081	763.667832
1388.743967	766.344755
1390.731549	763.143357
1392.718678	757.876923
1394.703505	760.438462
1396.689727	756.511888
1398.673649	753.462238
1400.657118	751.561538
1402.640134	752.747552
1404.620853	750.253147
1406.602966	750.606294
1408.582783	754.426573
1410.562148	760.365734
1412.537375	760.752448
1414.515840	759.285315
1416.492012	760.732867
1418.467735	768.067133
1420.443008	770.890210
1422.415990	771.227972
1424.388524	770.778322
1426.360610	771.993706
1428.332249	770.983217
1430.299759	771.037063
1432.272343	767.006993
1434.237122	767.091608
1436.206972	762.992308
1438.172699	761.720280
1440.139818	765.354545
1442.104654	769.877622
1444.065370	772.265734
1446.031154	771.989510
1447.990983	774.785315
1449.952206	772.931469
1451.914821	772.814685
1453.873321	769.154545
1455.831378	764.663636
1457.788994	765.744056
1459.746167	767.557343
1461.701065	766.822378
1463.657356	772.382517
1465.611372	773.454545
1467.564947	770.866434
1469.516250	766.067133
1471.468946	760.427972
1473.419369	756.748252
1475.369354	754.537762
1477.318900	750.944755
1479.266177	750.655944
1481.211186	753.394406
1483.157588	754.250350
1485.103552	754.146853
1487.049079	757.039161
1488.992340	757.660140
1490.935166	754.622378
1492.875728	754.925874
1494.817681	753.647552
1496.757372	755.246154
1498.696629	753.242657
1500.635450	750.662238
1502.572012	750.879720
1504.509965	752.932168
1506.445659	750.347552
1508.380920	749.495804
1510.313925	748.400699
1512.246497	747.010490
1514.178637	738.678322
1516.110345	738.771329
1518.039799	731.378322
1519.970644	732.199301
1521.901057	733.071329
1523.827398	740.351748
1525.755130	745.188112
1527.680611	748.906294
1529.605663	752.760839
1531.530286	757.600000
1533.454480	758.334266
1535.376426	757.169231
1537.299763	748.479720
1539.220853	748.560839
1541.139700	749.009091
1543.059935	750.820280
1544.977928	753.099301
1546.895494	758.200000
1548.810818	752.215385
1550.727532	753.578322
1552.640191	753.644755
1554.556054	753.386014
1556.469677	751.534965
1558.381062	752.732867
1560.293837	752.117483
1562.202562	757.761538
1564.112676	766.290210
1566.022367	771.800000
1567.931635	775.993007
1569.838669	777.476923
1571.743470	774.890210
1573.649660	775.926573
1575.553618	771.461538
1577.457155	770.213986
1579.360272	768.156643
1581.261159	772.211189
1583.163435	771.409091
1585.063483	772.529371
1586.964918	773.395804
1588.862320	775.104196
1590.759303	765.293007
1592.655868	761.404895
1594.553821	760.406993
1596.445939	759.068531
1598.341250	759.840559
1600.236144	762.486713
1602.128816	760.909091
1604.021071	767.545455
1605.911107	769.748951
1607.800727	780.630769
1609.689932	779.494406
1611.578722	779.835664
1613.465294	769.662238
1615.353254	767.031469
1617.237197	766.889510
1619.122527	763.554545
1621.007444	765.375524
1622.890147	758.600000
1624.774237	757.662238
1626.654315	763.389510
1628.535781	769.646154
1630.415036	778.826573
1632.295677	773.767832
1634.170514	767.658042
1636.050332	755.329371
1637.926146	749.859441
1639.801549	745.695804
1641.678338	739.867133
1643.549331	733.672727
1645.423505	726.976224
1647.293680	728.879021
1649.167037	727.850350
1651.038190	724.073427
1652.907141	727.559441
1654.777477	727.487413
1656.643821	723.334266
1658.511550	730.624476
1660.377080	734.314685
1662.243996	730.846154
1664.106923	729.092308
1665.971235	727.095105
1667.833351	728.481119
1669.695062	725.071329
1671.558159	717.530769
1673.419060	716.679021
1675.277769	717.795105
1677.136074	716.516783
1678.995764	712.354545
1680.849686	719.441958
1682.706782	711.067832
1684.563475	699.937762
1686.416191	696.655245
1688.272079	695.439860
1690.123993	699.647552
1691.975506	697.946154
1693.826618	697.638462
1695.677330	700.108392
1697.527641	698.111189
1699.375767	696.534965
1701.225278	691.437063
1703.069040	691.597203
1704.917751	685.939161
1706.760716	673.482517
1708.606848	674.306294
1710.449017	680.148252
1712.294352	689.123776
1714.133946	690.828671
1715.974924	694.546154
1717.817285	699.128671
1719.655690	689.156643
1721.495478	684.224476
1723.333091	677.869930
1725.170308	675.632168
1727.005352	671.621678
1728.841779	661.636364
1730.676034	664.897203
1732.509894	669.801399
1734.343360	674.269930
1736.172881	674.866434
1738.005560	681.444755
1739.834295	682.180420
1741.666187	672.132867
1743.494137	675.922378
1745.321696	674.769231
1747.148862	675.221678
1748.975637	669.146853
1750.802020	659.893007
1752.624467	664.409091
1754.450069	671.673427
1756.271736	673.137762
1758.094785	670.660839
1759.915672	670.762937
1761.736171	666.051748
1763.558051	674.611189
1765.374231	674.460140
1767.193563	672.472727
1769.008968	671.323077
1770.827523	669.729371
1772.642153	669.210490
1774.456396	682.251748
1776.270253	681.605594
1778.083723	678.353846
1779.895040	669.921678
1781.707737	663.477622
1783.520049	661.560140
1785.328443	663.658741
1787.138217	655.344755
1788.944077	646.348951
1790.753082	640.746154
1792.558174	638.443357
1794.364647	634.825874
1796.170736	646.146853
1797.972914	644.753846
1799.778237	650.050350
1801.579651	648.607692
1803.382445	654.723776
1805.181333	662.676224
1806.981602	663.637762
1808.781489	664.956643
1810.579234	660.802098
1812.376599	660.585315
1814.173584	651.362238
1815.970188	651.129371
1817.764653	655.618881
1819.560497	647.486713
1821.350686	649.283217
1823.145772	643.322378
1824.935206	652.530070
1826.727776	655.760839
1828.518211	650.316084
1830.306512	649.495804
1832.097948	653.395105
1833.883738	653.156643
1835.670908	640.623077
1837.455946	638.655944
1839.244118	635.856643
1841.028404	633.736364
1842.810560	639.129371
1844.594096	639.423077
1846.375503	641.323776
1848.158289	642.540559
1849.937194	641.406993
1851.717479	647.561538
1853.495637	653.538462
1855.275174	648.843357
1857.052586	646.492308
1858.827874	640.499301
1860.604540	641.633566
1862.379084	638.527273
1864.155006	640.865734
1865.925307	643.291608
1867.698736	643.139161
1869.470045	644.009091
1871.240983	647.127972
1873.013299	647.240559
1874.780001	646.335664
1876.549829	648.246853
1878.315793	647.536364
1880.084880	640.965035
1881.850106	644.669231
1883.614964	641.844755
1885.381199	646.806993
1887.143575	649.730070
1888.905584	645.553147
1890.667225	639.071329
1892.428500	638.951748
1894.189407	635.262937
1895.949948	632.480420
1897.708379	628.974825
1899.466444	626.805594
1901.222402	626.945455
1902.979736	632.309091
1904.736705	632.420280
1906.491567	638.122378
1908.244325	640.059441
1909.996718	636.688112
1911.750488	639.642657
1913.502154	634.295804
1915.251718	630.271329
1917.002657	619.894406
1918.753234	614.344056
1920.499971	611.160839
1922.248085	607.751748
1923.994099	610.913287
1925.741488	607.641259
1927.486780	611.302797
1929.229974	611.497902
1930.974543	613.795105
1932.717017	622.652448
1934.459130	622.543357
1936.200883	623.590559
1937.942276	622.160839
1939.681576	623.659091
1941.420517	624.430769
1943.159099	620.934615
1944.895590	619.490210
1946.631723	616.459091
1948.369230	613.786713
1950.102915	613.577273
1951.837975	620.759441
1953.570946	625.538112
1955.303561	626.872727
1957.035820	625.129021
1958.767722	625.419580
1960.497538	624.847552
1962.225269	625.046154
1963.954375	623.469231
1965.683126	623.233566
1967.409793	620.713287
1969.136106	620.490909
1970.863792	621.699301
1972.585942	622.607692
1974.311193	619.341259
1976.032637	619.923776
1977.757182	621.689510
1979.479646	622.727972
1981.198308	616.190909
1982.920068	612.903497
1984.638026	613.887413
1986.357357	612.636364
1988.072889	614.845455
1989.793241	619.288811
1991.509795	615.118182
1993.222552	613.907692
1994.938405	613.558741
1996.652186	621.064336
1998.365617	624.048951
2000.076977	624.249650
2001.789709	619.947552
2003.498651	618.720280
2005.210685	622.156643
2006.917211	620.604895
2008.626828	619.395804
2010.334379	619.122378
2012.041581	616.142657
2013.746718	613.134965
2015.451509	608.470629
2017.157671	614.890210
2018.860051	611.082517
2020.563802	617.865734
2022.265491	617.613986
2023.966835	619.087413
2025.667833	618.067832
2027.366770	614.104895
2029.067079	612.237063
2030.763613	611.506993
2032.461518	606.538462
2034.157364	600.760140
2035.856296	601.769231
2037.549742	603.334266
2039.244559	604.697203
2040.939034	608.755245
2042.629740	607.627273
2044.323530	607.008392
2046.013553	607.815385
2047.704947	609.381119
2049.394288	608.157343
2051.084999	604.000699
2052.771947	601.083916
2054.458556	598.052448
2056.146534	597.174126
2057.830753	593.548951
2059.516343	595.386713
2061.201593	593.021678
2062.884794	592.031469
2064.569366	591.650350
2066.248475	593.176224
2067.932369	590.665734
2069.610802	589.367832
2071.292313	586.012587
2072.970072	584.220280
2074.647495	579.166434
2076.326287	576.676923
2078.003037	575.402797
2079.677745	575.719580
2081.353822	576.066434
2083.027859	573.117483
2084.701560	571.660140
2086.374926	570.491608
2088.046253	567.498601
2089.717246	566.427273
2091.387905	565.332867
2093.058230	564.903497
2094.728221	571.197902
2096.396176	576.118881
2098.063798	579.295105
2099.729385	586.092308
2101.396341	592.616084
2103.061264	594.113986
2104.725855	598.231469
2106.388414	601.285315
2108.052341	594.444755
2109.714237	593.129371
2111.375803	589.009790
2113.037037	589.248951
2114.696243	592.686014
2116.355118	594.888811
2118.013664	592.609091
2119.671880	594.093706
2121.326372	597.852448
2122.983929	595.595804
2124.641157	597.472028
2126.294663	593.389510
2127.949537	586.628671
2129.600692	590.258042
2131.254910	589.309091
2132.905411	594.727273
2134.557278	596.151049
2136.203737	601.248252
2137.854951	599.344755
2139.502451	594.474825
2141.151318	594.325175
2142.798166	586.185315
2144.444689	583.066434
2146.090886	576.829371
2147.733375	568.103497
2149.378922	565.026573
2151.020762	561.020979
2152.665659	557.557343
2154.306850	554.175524
2155.947719	557.470629
2157.588263	557.818182
2159.226795	557.706993
2160.866693	570.893007
2162.502891	570.779021
2164.140455	574.694406
2165.777697	573.202797
2167.412929	570.442657
2169.047840	568.597902
2170.682428	565.621678
2172.316696	561.295804
2173.947270	555.842657
2175.580896	556.470629
2177.210830	555.306294
2178.842129	557.295105
2180.471423	563.537063
2182.100398	560.375524
2183.729053	558.442657
2185.357389	557.336364
2186.983723	562.313287
2188.609738	563.760140
2190.233751	562.202098
2191.859130	557.266434
2193.482508	551.326573
2195.107251	548.184615
2196.728313	547.391608
2198.349058	549.840559
2199.971168	547.654545
2201.591280	545.116783
2203.209395	545.564336
2204.827195	551.780420
2206.444680	555.772727
2208.061849	557.441958
2209.678703	557.823776
2211.295241	556.342657
2212.909787	560.375524
2214.522340	552.821678
2216.136257	552.269231
2217.748183	550.765734
2219.361472	542.876224
2220.972771	539.930769
2222.582080	540.111189
2224.192753	536.671329
2225.801437	528.162238
2227.409808	532.575524
2229.016193	537.806993
2230.623941	537.513986
2232.229702	545.073427
2233.835152	543.333566
2235.438617	547.836364
2237.043445	551.113986
2238.646289	549.760140
2240.247150	548.468531
2241.849374	549.191608
2243.449616	544.831469
2245.051220	541.883916
2246.649171	546.123776
2248.248485	541.104196
2249.845819	533.767133
2251.442845	535.943357
2253.041233	536.854545
2254.635972	537.872727
2256.228734	539.889510
2257.822859	538.770629
2259.418345	537.339161
2261.010186	536.884615
2262.601721	535.595804
2264.194618	534.346853
2265.782205	536.656643
2267.374488	530.758042
2268.961465	526.462238
2270.551469	531.506993
2272.136169	534.808392
2273.725563	535.806993
2275.309655	535.248951
2276.895107	536.579720
2278.478591	534.455944
2280.065100	532.019580
2281.647976	533.658042
2283.230549	534.101748
2284.812818	536.281818
2286.391457	531.354895
2287.973121	529.451049
2289.551156	533.787762
2291.132214	529.880420
2292.709645	524.863986
2294.285113	524.030070
2295.863603	526.436713
2297.438469	522.576224
2299.013034	520.954196
2300.587299	516.948252
2302.161263	512.250000
2303.734926	508.234266
2305.308290	504.179021
2306.878035	503.008392
2308.447481	508.139161
2310.019945	508.432867
2311.587135	516.139161
2313.157343	522.359441
2314.723936	523.690909
2316.291889	523.812587
2317.857886	525.099301
2319.423586	523.799301
2320.988988	523.088811
2322.552437	529.595105
2324.117245	528.528671
2325.678445	529.421678
2327.242659	533.042657
2328.801611	534.453147
2330.363578	534.290909
2331.923593	530.215385
2333.483314	523.934266
2335.041085	520.828671
2336.598561	522.883916
2338.155743	519.012587
2339.710977	519.005594
2341.265918	528.117483
2342.820564	526.400000
2344.374917	524.747552
2345.928977	517.571329
2347.482742	512.631469
2349.034564	502.793706
2350.584442	505.624476
2352.137328	501.257343
2353.684972	504.435664
2355.235623	508.344755
2356.782683	505.385315
2358.331101	509.258042
2359.879228	513.938462
2361.423766	514.313287
2362.969662	506.962238
2364.513620	494.350350
2366.058935	490.368531
2367.600665	484.909091
2369.143752	491.309790
2370.684903	495.209790
2372.225765	501.443357
2373.766338	500.946154
2375.306622	499.212587
2376.846617	505.654545
2378.383034	516.597902
2379.922452	518.238462
2381.458293	511.045455
2382.995490	514.145455
2384.529112	512.570629
2386.065734	519.207692
2387.600426	518.869930
2389.133188	517.288112
2390.665663	507.027273
2392.196210	498.514685
2393.729755	493.423077
2395.258089	498.813287
2396.787780	496.900000
2398.317184	490.684615
2399.846304	486.150350
2401.375139	488.103497
2402.898768	488.963636
2404.427033	496.306993
2405.950096	491.946853
2407.477792	490.202797
2408.998649	494.734266
2410.524139	498.914685
2412.046068	496.148252
2413.569353	499.715385
2415.090716	491.355944
2416.610160	491.597902
2418.130959	488.708392
2419.649840	495.773427
2421.168438	498.206993
2422.685119	501.050350
2424.203154	500.067133
2425.720908	504.696503
2427.235111	503.207692
2428.749033	501.860140
2430.262675	499.614685
2431.777672	501.089510
2433.289120	497.932867
2434.801923	501.986713
2436.312812	507.708392
2437.823423	510.229371
2439.332122	505.581818
2440.843807	497.418182
2442.351949	494.621678
2443.859813	485.861538
2445.367399	469.560839
2446.871444	468.755944
2448.378474	468.044056
2449.883597	473.576923
2451.388441	476.737063
2452.891379	481.880420
2454.394041	482.625874
2455.896426	478.286014
2457.396906	479.162238
2458.898739	468.951049
2460.398667	470.080420
2461.898320	461.620979
2463.397698	460.862238
2464.895173	464.207692
2466.390746	467.352448
2467.889299	477.218182
2469.384324	477.948951
2470.880701	481.060140
2472.373552	477.493007
2473.867756	473.718182
2475.361686	474.065035
2476.852092	468.991608
2478.345476	466.748252
2479.836962	461.219580
2481.326551	462.957343
2482.815868	463.094406
2484.303289	459.848252
2485.793686	467.310490
2487.280565	469.283916
2488.768795	471.839860
2490.253508	467.277622
2491.737952	465.923776
2493.223746	465.811189
2494.707649	463.727273
2496.192902	461.751748
2497.673022	455.869930
2499.156115	453.864336
2500.637317	451.909790
2502.118250	453.393007
2503.597294	461.285315
2505.076069	462.293007
2506.554576	460.788811
2508.032815	453.256643
2509.510785	448.631469
2510.985250	452.115385
2512.462685	453.118182
2513.936616	456.009091
2515.411897	456.853846
2516.886911	457.004895
2518.358425	465.529371
2519.831288	471.522378
2521.302269	475.444755
2522.774600	472.981119
2524.241817	474.052448
2525.712001	469.000699
2527.180304	463.062238
2528.648342	468.619580
2530.116115	463.737063
2531.583623	464.714685
2533.050866	463.678322
2534.514617	463.283916
2535.979718	461.858741
2537.442942	456.783217
2538.907516	456.488112
2540.368600	455.200699
2541.831034	458.373427
2543.293205	452.161538
2544.751890	452.523077
2546.215147	456.609790
2547.673307	455.682517
2549.132816	458.261538
2550.587231	457.948252
2552.046217	455.160839
2553.503331	454.070629
2554.958574	449.920280
2556.413555	451.090909
2557.866668	451.951748
2559.321129	453.165035
2560.773720	452.451049
2562.226052	457.286014
2563.676517	455.185315
2565.129937	457.230769
2566.578275	455.272727
2568.029569	460.832168
2569.478996	457.332867
2570.924951	458.720280
2572.373861	447.052448
2573.819301	443.917483
2575.266088	440.748951
2576.711013	441.368531
2578.155679	442.436364
2579.601693	444.011888
2581.044241	438.088112
2582.488136	439.454545
2583.928566	442.545455
2585.370343	455.368531
2586.810261	454.434965
2588.251526	457.927273
2589.689329	453.710490
2591.130082	451.732867
2592.565773	449.929371
2594.004413	452.132867
2595.441195	450.237063
2596.876122	451.009091
2598.313996	447.846853
2599.746813	446.597902
2601.180977	446.051748
2602.613287	441.549650
2604.046943	444.193706
2605.478746	448.833566
2606.910295	443.362937
2608.341592	438.595804
2609.771036	437.296503
2611.200228	435.629371
2612.627570	428.140559
2614.056257	429.100699
2615.484693	427.368531
2616.909681	424.788112
2618.336016	428.079720
2619.760502	431.225175
2621.186334	445.330769
2622.608722	447.714685
2624.032456	446.385315
2625.454343	445.784615
2626.875981	447.516783
2628.295773	439.037762
2629.716911	426.199301
2631.137799	419.868531
2632.555249	411.655245
2633.975638	413.014685
2635.392590	419.640559
2636.809293	425.478322
2638.225748	423.985315
2639.641955	421.646853
2641.057914	418.836364
2642.472032	422.174126
2643.885902	425.010490
2645.297934	427.011189
2646.711309	424.679021
2648.121255	422.145455
2649.534137	422.489510
2650.943590	423.203497
2652.352797	424.299301
2653.760168	421.457343
2655.170473	413.926573
2656.578943	417.814685
2657.985577	412.783916
2659.391966	416.066434
2660.796521	415.711189
2662.202420	421.688811
2663.606486	413.919580
2665.010307	413.539860
2666.413884	416.351049
2667.815630	416.673427
2669.218719	415.068531
2670.618390	413.130769
2672.019405	424.023776
2673.417004	432.639161
2674.817533	430.493706
2676.214646	431.395804
2677.613103	431.675524
2679.009733	428.701399
2680.406120	422.241958
2681.802265	422.527273
2683.196585	417.758042
2684.592246	413.566434
2685.984499	402.276923
2687.378094	406.658042
2688.769865	417.420280
2690.162979	412.358042
2691.554269	410.510490
2692.943736	414.079720
2694.332963	411.436364
2695.721951	415.585315
2697.112280	415.534965
2698.497626	415.253147
2699.885895	417.076923
2701.272344	417.807692
2702.658554	416.666434
2704.044525	423.749650
2705.427098	418.469231
2706.811013	409.446154
2708.194690	407.204196
2709.578128	404.736364
2710.958172	402.984615
2712.339556	405.969231
2713.719126	406.546154
2715.100036	406.387413
2716.479132	408.202797
2717.856414	410.441259
2719.235037	406.376923
2720.611847	407.146853
2721.988420	400.761538
2723.364758	400.382517
2724.739285	405.612587
2726.115152	408.272028
2727.487632	411.979720
2728.863028	408.776224
2730.233464	405.841259
2731.605241	397.503497
2732.976783	392.588112
2734.346517	391.949650
2735.717592	384.927273
2737.086858	387.011888
2738.455891	379.469930
2739.823118	382.857343
2741.190112	387.402797
2742.556872	389.972028
2743.923401	391.046154
2745.288124	386.636364
2746.652615	388.062937
2748.016875	394.591608
2749.380902	396.090210
2750.744698	399.593007
2752.105120	403.152448
2753.468452	405.151049
2754.826842	405.170629
2756.188142	404.830769
2757.546072	394.206993
2758.906910	394.615385
2760.265949	385.544056
2761.621619	378.209091
2762.980197	377.701399
2764.335408	374.537762
2765.690390	368.514685
2767.043576	369.744056
2768.399668	371.874126
2769.752395	367.158042
2771.104895	367.374126
2772.457166	358.911888
2773.810776	355.732867
2775.161024	361.076923
2776.509478	361.809790
2777.860838	366.173427
2779.208838	373.330769
2780.558176	379.430769
2781.905722	384.647552
2783.253042	388.251049
2784.600135	389.363636
2785.945437	381.827972
2787.290512	379.355245
2788.635362	379.605594
2789.979986	376.430769
2791.321258	377.684615
2792.663868	376.073427
2794.006252	371.362937
2795.348411	372.607692
2796.687221	373.990909
2798.028931	370.389510
2799.367293	368.339860
2800.706991	369.158741
2802.044905	370.791608
2803.381034	370.281119
2804.716939	371.574126
2806.054182	365.099301
2807.389641	368.195804
2808.724877	364.781119
2810.058330	365.330070
2811.393120	369.043357
2812.724570	372.938462
2814.058915	376.885315
2815.388362	379.471329
2816.719146	387.407692
2818.049708	386.545455
2819.378491	384.583217
2820.708610	378.330769
2822.036951	369.941958
2823.365071	366.183916
2824.691413	364.606993
2826.019092	361.538462
2827.343437	359.127273
2828.669119	355.880420
2829.993025	353.295105
2831.316712	351.688811
2832.641734	353.230769
2833.963426	353.044755
2835.284900	356.057343
2836.606155	350.567832
2837.927191	350.330070
2839.246454	345.653147
2840.567053	340.727273
2841.885881	342.195105
2843.204490	344.606993
2844.521328	343.551049
2845.837949	345.042657
2847.154353	350.819580
2848.468987	358.262937
2849.784957	366.486713
2851.097606	367.058042
2852.411590	365.449650
2853.725358	361.536364
2855.038909	350.181119
2856.350694	344.557343
2857.660712	341.425874
2858.972065	338.404196
2860.280103	332.016084
2861.589475	332.304196
2862.898633	333.674126
2864.207575	336.501399
2865.514753	339.037762
2866.820169	343.323077
2868.126919	344.027972
2869.431906	346.039161
2870.736680	350.211888
2872.039692	352.700699
2873.345585	351.826573
2874.646624	350.030769
2875.948997	344.820979
2877.249610	343.855944
2878.551557	344.319580
2879.853290	342.014685
2881.151720	348.483217
2882.451483	350.348951
2883.749489	352.676923
2885.047283	355.202797
2886.343321	356.034965
2887.640692	358.178322
2888.936307	355.068531
2890.231711	351.165035
2891.526904	351.620979
2892.818800	345.654545
2894.113572	350.727972
2895.405047	348.002797
2896.697855	355.810490
2897.990453	355.534266
2899.279757	361.697203
2900.570393	355.644755
2901.859278	352.155245
2903.149495	354.323776
2904.436421	345.118881
2905.724679	347.132867
2907.011188	343.862238
2908.297489	341.617483
2909.583581	347.421678
2910.867925	347.910490
2912.155140	354.115385
2913.437529	352.693007
2914.721250	351.841259
2916.003225	351.781119
2917.284992	350.422378
2918.565015	348.802797
2919.847907	341.888811
2921.129054	344.057343
2922.406919	341.706993
2923.687653	346.475524
2924.965106	339.897203
2926.242353	340.497203
2927.517858	337.453846
2928.796231	335.020280
2930.069790	336.960839
2931.346216	340.657343
2932.620901	338.935664
2933.893845	336.735664
2935.168121	340.570629
2936.440657	341.688811
2937.712988	343.418881
2938.982047	344.597902
2940.253971	337.043357
2941.524157	338.629371
2942.794139	329.551748
2944.063918	327.716084
2945.331961	323.971329
2946.598267	317.148951
2947.864372	310.033566
2949.131806	306.279720
2950.397506	314.253846
2951.663003	311.382517
2952.928298	309.063636
2954.190328	314.825175
2955.453688	322.567133
2956.716847	323.721678
2957.978274	322.806294
2959.241030	321.330769
2960.502054	321.115385
2961.761348	314.233566
2963.020442	306.844755
2964.279335	310.375524
2965.538028	313.295804
2966.796521	306.322378
2968.053285	305.866434
2969.309849	308.327972
2970.564686	313.419580
2971.820851	314.958042
2973.073762	322.635664
2974.328002	323.349650
2975.582043	330.732867
2976.834358	327.344755
2978.086474	319.179021
2979.336866	319.572727
2980.590113	314.744755
2981.838583	311.207692
2983.089908	311.626573
2984.337983	307.139161
2985.585862	306.376923
2986.833543	305.325874
2988.081027	309.561538
2989.326790	309.866434
2990.572357	313.578322
2991.819251	312.297902
2993.062901	307.679021
2994.307879	308.234266
2995.549613	308.053147
2996.794199	310.991608
2998.037066	311.434266
2999.276692	310.982517
3000.519168	302.300699
3001.758404	296.784615
3002.998968	297.788811
3004.237816	298.360839
3005.476468	303.986014
3006.713406	307.719580
3007.951670	303.788811
3009.188219	301.786713
3010.424575	303.986713
3011.660737	303.776224
3012.895185	302.269930
3014.129441	301.960839
3015.363503	304.034965
3016.595853	306.560839
3017.826491	312.101399
3019.059975	311.679021
3020.291747	308.949650
3021.521809	303.601399
3022.751679	300.198601
3023.979839	293.827273
3025.209325	296.703497
3026.437102	290.651049
3027.664688	295.181818
3028.893601	298.406294
3030.117771	306.693007
3031.344784	308.412587
3032.568573	304.190210
3033.793689	299.160140
3035.017098	298.158042
3036.240317	297.863636
3037.461831	299.335664
3038.686186	296.857343
3039.905806	301.375524
3041.126752	299.129371
3042.347509	307.574825
3043.566562	307.702098
3044.786940	309.918182
3046.004102	309.058042
3047.222590	304.855944
3048.439375	305.811888
3049.655973	308.143357
3050.872382	307.737762
3052.085579	307.780420
3053.301613	306.341958
3054.514435	302.609091
3055.730094	298.048252
3056.941030	294.204196
3058.153291	290.634965
3059.365366	289.596503
3060.577253	284.662937
3061.787444	284.000000
3062.997448	284.354895
3064.207266	287.688811
3065.415388	287.681469
3066.623325	283.812587
3067.829566	285.608042
3069.037132	290.044755
3070.243003	291.125524
3071.448690	289.500699
3072.654191	291.135315
3073.857999	291.627972
3075.063131	288.033916
3076.266570	287.818182
3077.468318	280.045804
3078.669881	274.091608
3079.871261	268.436364
3081.072457	266.826573
3082.271963	269.147552
3083.471286	272.855245
3084.671932	272.897203
3085.870888	273.657343
3087.066650	274.720280
3088.265241	276.517483
3089.460638	276.586014
3090.657358	276.860839
3091.850886	266.517483
3093.047242	270.116783
3094.241912	271.120280
3095.433391	275.239161
3096.629201	275.750350
3097.820318	276.632867
3099.012757	275.592308
3100.202009	278.540559
3101.394086	277.467133
3102.584480	278.279021
3103.771688	275.371329
3104.960219	278.576923
3106.150071	274.244755
3107.336740	274.227273
3108.523228	273.166434
3109.709538	274.796503
3110.897169	273.999301
3112.081618	269.390909
3113.264388	267.070629
3114.449980	267.062238
3115.633893	268.279720
3116.816127	265.483217
3117.998182	259.840559
3119.180059	261.202098
3120.361758	258.379720
3121.541780	254.425175
3122.720125	256.292308
3123.901290	260.094406
3125.079280	264.202098
3126.257094	263.906294
3127.434730	261.337762
3128.610691	262.524476
3129.786475	263.288112
3130.963581	258.417483
3132.139012	254.652448
3133.312770	254.433566
3134.484855	256.887413
3135.658262	258.147552
3136.831492	259.995804
3138.003051	261.134965
3139.175930	261.370629
3140.345642	259.520280
3141.516675	257.588112
3142.686038	261.380420
3143.853730	258.003497
3145.024238	256.534965
3146.190088	252.806993
3147.360246	251.608392
3148.525748	251.474825
3149.691075	255.352448
3150.856229	252.304196
3152.021210	244.268531
3153.187510	244.629371
3154.349158	246.669231
3155.512125	249.584615
3156.674920	255.117483
3157.837542	251.743357
3158.998499	250.454545
3160.159283	248.162238
3161.319895	248.558042
3162.478843	246.990210
3163.637620	248.142657
3164.796225	243.035664
3165.954657	243.939860
3167.112919	245.910490
3168.269518	246.832168
3169.424456	251.541958
3170.580713	252.949650
3171.735309	251.830769
3172.889735	255.228671
3174.042501	253.048951
3175.195096	256.247552
3176.347522	246.484615
3177.499778	239.228671
3178.651863	239.113287
3179.800803	244.285315
3180.952549	241.145455
3182.102637	242.648951
3183.251069	246.202797
3184.399331	246.365035
3185.547425	251.008392
3186.695350	254.175524
3187.841619	250.160839
3188.987720	256.806993
3190.132167	242.525175
3191.276446	240.296503
3192.420557	245.183217
3193.565985	244.220280
3194.708275	244.876224
3195.850398	243.197203
3196.992353	246.209790
3198.134141	247.987413
3199.275762	244.476923
3200.414248	239.072727
3201.554051	235.949650
3202.695172	238.095804
3203.833158	228.991608
3204.969495	228.711189
3206.105666	230.638462
3207.243154	227.320280
3208.378994	233.111888
3209.516151	233.433566
3210.648695	238.979021
3211.785521	240.360140
3212.917735	236.272727
3214.051266	237.590210
3215.184633	240.593007
3216.314872	240.061538
3217.447909	232.513287
3218.577820	227.120280
3219.709047	222.336364
3220.837150	217.627972
3221.968049	224.698601
3223.097304	225.325175
3224.224916	228.443357
3225.349405	230.093706
3226.478170	234.258741
3227.603813	239.876224
3228.729294	239.420979
3229.853133	237.551748
3230.979766	232.665734
3232.101802	227.960839
3233.225154	223.444056
3234.348344	227.260839
3235.471372	233.646154
3236.592760	232.578322
3237.713986	234.566434
3238.833575	235.619580
3239.953002	241.607692
3241.070791	240.567832
3242.191372	234.632168
3243.308840	234.474126
3244.426147	227.779720
3245.543294	230.338462
3246.658805	230.969930
3247.775630	232.820979
3248.889346	235.346853
3250.005851	235.877622
3251.120722	235.266434
3252.232484	238.666434
3253.344086	234.913287
3254.457004	228.658042
3255.569762	222.645455
3256.679414	220.899301
3257.790381	223.345455
3258.901189	228.189510
3260.010365	226.117483
3261.117911	230.117483
3262.226770	236.774126
3263.335472	237.211189
3264.441071	237.078322
3265.547984	239.460140
3266.653268	234.728671
3267.759866	231.445455
3268.863364	230.649650
3269.968177	229.594406
3271.072832	226.844056
3272.174388	221.448252
3273.275788	218.002797
3274.378502	222.297902
3275.481060	218.020280
3276.580521	213.687413
3277.682766	213.150350
3278.781915	219.474126
3279.879440	224.983217
3280.976809	227.867133
3282.076960	230.139161
3283.174019	232.229371
3284.270922	227.760839
3285.367670	229.471329
3286.459860	226.888112
3287.556298	229.777622
3288.651114	221.816783
3289.745776	214.381119
3290.838816	214.688112
3291.931701	218.445455
3293.022967	214.010490
3294.115544	213.241958
3295.206502	212.580420
3296.295840	215.565035
3297.385025	213.626573
3298.475523	216.432867
3299.562936	217.897902
3300.650196	223.280420
3301.738769	218.862238
3302.827190	219.073427
3303.911063	219.498601
3304.999178	219.203497
3306.084211	211.734965
3307.167629	214.812587
3308.252359	214.622378
3309.335473	216.774126
3310.419900	217.636364
3311.501248	219.051748
3312.583908	216.725874
3313.664954	222.265035
3314.745849	219.539860
3315.825130	219.224476
3316.904261	217.366434
3317.984704	213.044755
3319.062072	205.216084
3320.140752	203.855245
3321.217820	202.008392
3322.294739	202.474825
3323.370046	205.502098
3324.445204	209.084615
3325.521673	211.609790
3326.595072	218.127972
3327.668322	219.316084
3328.742882	222.890909
3329.815834	230.710490
3330.887177	223.451049
3331.959831	217.515385
3333.029419	211.731469
3334.100317	205.365035
3335.169608	205.227972
3336.240210	210.953147
3337.309205	210.473427
3338.376594	206.639161
3339.442378	206.750350
3340.512388	206.294406
3341.579335	207.383217
3342.643220	204.532867
3343.709873	200.596503
3344.774921	198.132867
3345.838366	197.469930
3346.901665	197.161538
3347.964817	200.839860
3349.027823	201.319580
3350.090683	194.209091
3351.151941	190.607692
3352.210142	192.955245
3353.272563	191.513986
3354.331929	189.930769
3355.391149	190.662238
3356.451679	194.413986
3357.507699	196.125175
3358.566483	195.567133
3359.620760	194.129371
3360.677801	191.353147
3361.733243	189.848951
3362.789995	184.125874
3363.845148	185.510490
3364.898704	191.342657
3365.950664	193.863636
3367.005385	194.903497
3368.057057	199.255944
3369.108586	202.688112
3370.161423	208.342657
3371.211213	210.420280
3372.262312	215.119580
3373.310365	220.005594
3374.361177	225.830769
3375.408945	221.807692
3376.456570	218.846154
3377.504052	215.806993
3378.549942	209.051049
3379.597140	201.617483
3380.641296	202.542657
3381.688210	201.015385
3382.733532	200.283217
3383.775813	202.827972
3384.817954	206.231469
3385.861402	216.726573
3386.904709	221.160140
3387.946427	215.602797
3388.988003	209.263636
3390.029438	208.247552
3391.069285	206.405594
3392.107543	201.737762
3393.147109	201.510490
3394.186535	197.232867
3395.224373	196.204895
3396.260624	197.400000
3397.296736	202.520979
3398.334155	207.751049
3399.368541	206.176224
3400.404234	204.931469
3401.439788	203.251748
3402.472311	203.529371
3403.507587	199.239161
3404.539832	196.473427
3405.571939	193.925874
3406.602462	192.209790
3407.634292	192.449650
3408.665984	193.100699
3409.694648	193.944755
3410.723175	192.976923
3411.753008	196.111888
3412.782704	195.421678
3413.809374	191.661538
3414.837351	192.793007
3415.862303	188.809790
3416.890005	190.258042
3417.914684	190.857343
3418.940669	192.678322
3419.965074	195.855944
3420.989343	194.090210
3422.012033	195.609790
3423.034587	197.867832
3424.058447	199.765035
3425.079287	197.176923
3426.099991	197.407792
3427.122002	196.741933
3428.140994	194.722178
3429.159850	190.891359
3430.180013	184.792308
3431.197159	175.967857
