-118.059454	-9.791758
-115.389854	-2.406593
-112.723189	1.257243
-110.057276	2.003596
-107.394295	0.636314
-104.729885	-2.040759
-102.068405	-5.223776
-99.405496	-5.819580
-96.747693	-6.698601
-94.088461	-6.433566
-91.429977	-3.720979
-88.774417	-1.376224
-86.117429	0.674126
-83.465539	1.697203
-80.812218	0.666434
-78.161818	0.706993
-75.509988	-1.193007
-72.863249	0.158741
-70.215081	-0.382517
-67.567655	0.817483
-64.923143	-0.551748
-62.277203	1.290210
-59.636344	-0.611888
-56.994056	-1.637063
-54.354677	-0.271329
-51.713868	-4.084615
-49.073800	-5.658042
-46.438804	-4.734965
-43.802380	-5.486713
-41.168858	-3.731469
-38.533908	-1.758042
-35.904023	0.183916
-33.270546	-0.076224
-30.642131	-0.409790
-28.014450	-2.800000
-25.385340	-5.060839
-22.761287	-7.248252
-20.133645	-33.100699
-17.511056	-72.560140
-14.889199	-77.761538
-12.268072	60.665734
-9.647675	311.187413
-7.030167	524.355245
-4.411230	674.614685
-1.795178	757.306294
0.820145	774.014685
3.434741	727.442657
6.046454	614.153147
8.659596	445.613986
11.267704	222.847552
13.879394	7.055245
16.486053	-114.090909
19.094140	-84.169930
21.701503	-10.847552
24.303841	2.817483
26.909757	4.578322
29.510651	4.706993
32.112973	6.357343
34.710278	6.600699
37.311158	3.718182
39.907023	4.353846
42.504317	0.620280
45.100891	1.117483
47.692456	1.579021
50.285449	0.031469
52.875581	1.011189
55.467141	-0.328671
58.055841	-0.394406
60.645968	-0.551049
63.231096	-0.517483
65.817652	-2.139161
68.403494	-3.257343
70.986482	-4.832168
73.570896	-3.414685
76.148182	-0.272028
78.729034	-0.696503
81.307037	-3.073427
83.884330	-1.139161
86.463049	1.346154
89.036786	6.116783
91.611951	6.078322
94.184272	5.544755
96.755885	6.558741
99.324658	7.109790
101.894858	6.136364
104.462220	3.230070
107.031007	-0.005594
109.596958	-6.824476
112.160074	-13.078322
114.726746	-4.110490
117.284197	25.124476
119.847333	68.886014
122.405509	116.416084
124.967240	161.224476
127.524014	203.848951
130.082215	244.706993
132.635462	282.955944
135.188012	318.677622
137.744112	350.734266
140.295264	373.990909
142.845719	396.277622
145.395476	423.312587
147.942414	452.193706
150.488657	476.425874
153.036325	488.386014
155.583297	487.766434
158.125334	485.187413
160.666677	487.793706
163.207327	501.753147
165.749403	526.181119
168.288667	556.708392
170.825123	603.101399
173.360887	660.279021
175.898077	723.984615
178.434576	810.305594
180.968269	931.027972
183.499158	1084.339161
186.029360	1293.590909
188.560986	1572.853147
191.089811	1937.029371
193.615837	2385.055245
196.141177	2875.477622
198.667942	3366.325874
201.191911	3785.441958
203.715195	4078.200000
206.237794	4201.860839
208.757600	4148.930769
211.276723	3914.904895
213.795163	3535.976923
216.315027	3073.941259
218.827890	2586.716783
221.344284	2136.369231
223.859996	1761.179021
226.370818	1461.515385
228.883065	1238.661538
231.392530	1068.510490
233.901316	944.257343
236.409423	845.871329
238.918955	771.087413
241.423606	704.886014
243.927581	654.847552
246.432980	609.682517
248.933504	576.731469
251.437552	580.752448
253.934628	624.409790
256.435228	683.363636
258.933056	730.989510
261.430211	762.864336
263.926693	760.665035
266.418312	733.449650
268.913451	681.113287
271.405823	605.149650
273.897525	510.796503
276.386464	407.299301
278.876827	321.423776
281.364427	276.319580
283.849268	263.128671
286.337624	263.105594
288.819040	260.877622
291.303970	260.554545
293.784055	255.520979
296.267652	253.269930
298.746406	252.776224
301.226584	256.151049
303.704009	256.231469
306.180771	255.030070
308.656870	256.921678
311.130220	258.525175
313.602908	258.725175
316.074935	261.221678
318.546301	263.874825
321.014922	261.940559
323.482885	262.513287
325.952269	262.169231
328.416831	263.994406
330.884897	268.077622
333.348143	265.130070
335.810731	254.628671
338.272663	247.749650
340.733938	272.419580
343.192479	371.702098
345.652442	531.497902
348.109672	681.237762
350.566248	787.144056
353.022170	847.818881
355.475362	856.683916
357.929977	813.269231
360.379790	728.960839
362.833099	597.567832
365.281610	441.404895
367.729469	295.390210
370.178751	207.504895
372.623239	199.595804
375.069149	223.227273
377.514409	228.144755
379.956951	248.117483
382.398845	313.775524
384.840092	404.248951
387.278623	482.537063
389.718576	551.864336
392.155815	602.295804
394.590342	634.782517
397.028357	636.079021
399.461595	607.579720
401.896254	550.409790
404.326141	473.162937
406.759513	387.951748
409.188115	340.603497
411.616075	330.323776
414.045457	327.706294
416.470073	314.885315
418.896111	314.270629
421.321508	324.531469
423.746265	339.579720
426.166264	353.196503
428.587684	367.790210
431.006407	387.319580
433.426551	411.453846
435.844000	439.079720
438.262869	477.156643
440.679045	515.022378
443.090473	543.802797
445.505379	549.796503
447.917594	669.218182
450.329175	1295.028671
452.740122	2845.375524
455.148383	5181.487413
457.556011	7691.305594
459.963007	9817.348252
462.369372	11250.246154
464.773054	11851.648951
467.176106	11565.868531
469.578528	10417.895804
471.980320	8519.720979
474.379435	6134.356643
476.779969	3766.741259
479.179874	2036.093706
481.575056	1244.035664
483.973705	1064.303497
486.367634	1035.002098
488.760937	974.587413
491.153614	898.825175
493.545666	823.479021
495.939136	766.232867
498.327894	739.760140
500.713986	734.274825
503.101498	736.104196
505.488387	735.108392
507.872612	723.210490
510.258255	702.855245
512.641237	670.937762
515.021558	622.390210
517.403298	564.469231
519.782379	502.579720
522.162879	444.950350
524.540721	409.332867
526.915908	397.689510
529.290477	392.911888
531.666464	384.267832
534.039799	376.735664
536.414551	368.847552
538.784618	361.190210
541.154069	354.553147
543.524938	346.631469
545.891127	339.081119
548.258734	326.696503
550.623695	318.828671
552.988043	309.866434
555.351778	304.731469
557.716931	295.814685
560.077412	288.440559
562.439311	285.996503
564.798569	283.702098
567.155190	282.353846
569.515255	284.288112
571.868629	285.487413
574.225448	284.147552
576.579632	282.406993
578.933208	281.855245
581.286175	278.499301
583.636510	278.589510
585.988263	273.213287
588.333339	273.197203
590.683879	270.683916
593.027745	269.592308
595.377073	267.233566
597.721752	265.981818
600.063807	261.742657
602.407279	257.972028
604.748128	253.923077
607.088375	249.330070
609.426001	248.094406
611.767062	248.098601
614.103485	245.588811
616.441325	246.995105
618.776548	243.589510
621.109155	245.655245
623.443178	246.037762
625.774587	247.160140
628.105398	247.968531
630.435612	247.296503
632.765227	245.397203
635.090220	242.586713
637.420653	242.687413
639.746466	239.865734
642.069671	235.855944
644.394293	234.664336
646.716309	232.136364
649.037731	234.061538
651.356551	233.794406
653.676786	237.201399
655.996428	237.792308
658.313469	236.248951
660.629918	231.811189
662.943769	229.663636
665.259036	227.513986
667.571706	226.504895
669.885791	226.493007
672.195276	229.108392
674.506177	231.247552
676.814485	233.123077
679.122205	234.483217
681.431339	245.904895
683.735881	260.739860
686.039837	286.682517
688.343207	314.566434
690.647991	343.450350
692.948189	363.790210
695.249801	374.518182
697.550829	377.398601
699.847274	364.875524
702.145135	343.460839
704.442412	316.569930
706.739106	286.584615
709.031224	261.669930
711.326753	243.339161
713.617708	236.264336
715.910078	234.331469
718.199873	234.426573
720.489087	233.286014
722.777722	233.118881
725.063784	235.225874
727.351261	235.965734
729.636166	239.376923
731.920494	243.468531
734.202253	243.502797
736.485426	240.895804
738.768022	238.242657
741.046062	235.405594
743.325517	234.648252
745.604395	230.680420
747.882699	228.062238
750.156453	226.590210
752.431620	227.158741
754.706214	226.776923
756.978249	228.404895
759.251697	230.750350
761.522587	232.069231
763.790921	233.250350
766.060668	235.169930
768.327861	237.929371
770.594483	238.085315
772.860535	238.088112
775.124036	240.383217
777.388950	240.885315
779.653294	246.072727
781.913109	247.487413
784.174336	250.727972
786.434996	254.902098
788.693110	258.591608
790.948679	264.441259
793.207639	272.500000
795.460100	292.853147
797.717927	334.117483
799.971236	395.330769
802.222005	455.690210
804.474186	504.839161
806.723828	539.650350
808.974883	546.156643
811.221426	533.841259
813.469381	503.232867
815.714802	450.913986
817.961634	388.811189
820.207905	326.230070
822.449671	283.017483
824.694821	263.706294
826.933498	259.039161
829.175557	254.147552
831.413118	250.758741
833.652091	251.130070
835.888537	248.846154
838.126394	254.044755
840.361726	258.177622
842.594535	258.695105
844.828755	259.497902
847.060452	259.661538
849.291595	261.636364
851.522183	259.268531
853.752217	256.990210
855.981697	251.001399
858.206695	247.045455
860.435068	245.813986
862.658961	242.897203
864.884266	244.987413
867.105095	244.262238
869.329296	242.816084
871.549024	240.436364
873.770162	240.600699
875.990750	240.113986
878.208829	238.397902
880.428317	237.923776
882.643339	237.354545
884.857814	238.872028
887.071740	243.418182
889.285120	246.359441
891.497952	250.143357
893.710238	250.202797
895.920021	249.248252
898.129259	249.321678
900.337952	249.319580
902.544146	245.686713
904.751749	243.448252
906.956854	241.358741
909.161416	239.579720
911.363483	242.969930
913.566959	244.411189
915.767941	243.439860
917.968381	244.189510
920.170230	244.388811
922.365688	245.555944
924.564505	247.913287
926.758883	247.758042
928.956619	246.018182
931.149919	245.555944
933.344628	242.742657
935.536851	241.222378
937.728535	239.964336
939.919682	236.814685
942.108346	233.800000
944.296474	233.939860
946.482121	234.392308
948.671120	236.316084
950.855696	237.999301
953.039737	240.475524
955.227128	240.381818
957.406215	240.418182
959.588653	238.384615
961.770557	234.688112
963.949986	231.460140
966.126943	228.792308
968.305308	225.082517
970.485080	228.651049
972.658503	229.919580
974.835272	233.143357
977.007634	235.132168
979.181404	238.236364
981.350770	237.970629
983.523480	238.137762
985.693725	240.504895
987.863441	237.369231
990.032628	237.426573
992.197418	234.304895
994.365549	235.366434
996.529286	237.706993
998.694429	234.995105
1000.857113	237.800000
1003.019272	235.689510
1005.178974	233.169231
1007.338151	231.380420
1009.498735	232.297203
1011.656865	236.462937
1013.814470	233.683916
1015.971552	231.355245
1018.128110	234.258741
1020.280289	236.386014
1022.433875	231.472727
1024.586939	232.120280
1026.737554	231.889510
1028.889576	229.280420
1031.037224	226.818881
1033.188204	230.120280
1035.334813	231.578322
1037.480903	231.523776
1039.626475	232.560140
1041.773452	235.102098
1043.914140	235.963636
1046.058158	236.041259
1048.199735	234.729371
1050.340796	238.530769
1052.483261	235.029371
1054.619447	238.974825
1056.758958	242.083916
1058.894115	243.931469
1061.032596	245.161538
1063.166723	249.465035
1065.300337	256.190909
1067.435356	256.949650
1069.566025	257.258042
1071.698099	264.281119
1073.827744	273.913986
1075.956877	281.736364
1078.085498	284.641958
1080.213608	287.653147
1082.339292	288.793706
1084.464466	279.467133
1086.591044	273.102098
1088.713284	266.800699
1090.836929	255.678322
1092.956239	247.934266
1095.080779	245.739860
1097.199073	245.197902
1099.318772	247.134266
1101.436052	245.932168
1103.552826	244.125874
1105.669093	243.640559
1107.782944	245.924476
1109.898200	243.548951
1112.009132	243.574825
1114.123377	242.809091
1116.233301	241.357343
1118.344629	246.571329
1120.455452	246.594406
1122.561959	243.166434
1124.671776	240.894406
1126.777278	243.406294
1128.884183	244.581119
1130.984873	246.693706
1133.090775	246.922378
1135.192368	249.579021
1137.295364	251.596503
1139.397859	254.812587
1141.494147	261.479720
1143.595643	265.122378
1145.692835	271.771329
1147.789530	290.378322
1149.885726	330.337063
1151.981425	389.871329
1154.076625	451.153846
1156.169429	504.120979
1158.263636	537.986713
1160.351651	556.172727
1162.444864	546.329371
1164.531889	515.241259
1166.622213	462.716084
1168.708250	396.765734
1170.797584	334.049650
1172.880737	283.231469
1174.965292	248.938462
1177.051249	237.144755
1179.132924	236.000699
1181.216001	234.936364
1183.296692	231.230769
1185.376891	232.762937
1187.456599	233.390909
1189.535816	234.987413
1191.612651	232.595804
1193.687105	232.108392
1195.764850	233.593007
1197.838326	235.105594
1199.913202	234.085315
1201.983811	237.975524
1204.055821	237.651748
1206.125456	234.846853
1208.196491	231.961538
1210.267038	234.718881
1212.333324	237.935664
1214.401011	234.730070
1216.466326	233.834266
1218.533041	236.467832
1220.595500	241.254545
1222.661244	247.018182
1224.722734	249.846853
1226.785625	253.045455
1228.846148	250.548252
1230.906187	249.579021
1232.965744	248.122378
1235.022935	247.986014
1237.079645	245.481119
1239.133991	239.862937
1241.191619	236.590909
1243.246884	234.718182
1245.297908	230.941259
1247.350332	227.768531
1249.402276	224.005594
1251.451862	226.238462
1253.500969	223.060839
1255.549598	222.479720
1257.597748	223.581818
1259.645419	225.670629
1261.688860	226.542657
1263.735577	227.010490
1265.779940	225.754545
1267.823827	225.343357
1269.865362	221.968531
1271.904548	218.888811
1273.947007	221.382517
1275.985243	224.035664
1278.024878	221.351748
1280.064038	225.020979
1282.098979	225.276224
1284.135319	224.755944
1286.169315	226.223776
1288.204708	229.290210
1290.235889	227.273427
1292.268467	227.118881
1294.300574	223.702098
1296.330340	221.655245
1298.361504	219.711189
1300.388460	214.937063
1302.416814	208.716084
1304.440963	210.201399
1306.468378	207.897203
1308.491590	209.067832
1310.516200	208.325175
1312.538476	211.390909
1314.562149	212.076224
1316.583489	214.537063
1318.604361	215.523776
1320.624766	217.549650
1322.640978	217.662238
1324.658587	215.660839
1326.673868	215.948951
1328.692408	214.587413
1330.706759	215.964336
1332.718784	215.857343
1334.734066	212.265035
1336.745163	214.854545
1338.757657	215.081119
1340.765968	214.914685
1342.777534	216.472727
1344.783062	217.974825
1346.791845	219.531469
1348.796450	221.385315
1350.804309	222.763636
1352.811706	220.469231
1354.813072	222.874126
1356.815834	219.976224
1358.818137	216.876224
1360.819980	215.258042
1362.821363	211.160140
1364.820433	209.627273
1366.819044	205.661538
1368.817197	203.163636
1370.814891	202.462937
1372.808423	202.463636
1374.803351	201.274825
1376.797821	202.132168
1378.791835	200.262937
1380.783542	198.660839
1382.774794	194.788112
1384.763740	194.445455
1386.754081	196.741958
1388.743967	202.061538
1390.731549	201.772727
1392.718678	205.115385
1394.703505	206.329371
1396.689727	207.056643
1398.673649	207.069930
1400.657118	206.381818
1402.640134	204.835664
1404.620853	203.041259
1406.602966	199.016783
1408.582783	199.704895
1410.562148	200.234965
1412.537375	200.305594
1414.515840	202.706294
1416.492012	205.537762
1418.467735	206.958042
1420.443008	206.007692
1422.415990	206.019580
1424.388524	206.071329
1426.360610	204.948951
1428.332249	207.802098
1430.299759	204.122378
1432.272343	202.020280
1434.237122	202.753147
1436.206972	202.703497
1438.172699	208.427972
1440.139818	208.767832
1442.104654	209.346853
1444.065370	207.986713
1446.031154	209.318182
1447.990983	207.305594
1449.952206	206.960140
1451.914821	213.529371
1453.873321	209.641958
1455.831378	210.883217
1457.788994	210.477622
1459.746167	208.400699
1461.701065	208.212587
1463.657356	211.340559
1465.611372	209.478322
1467.564947	206.823776
1469.516250	206.203497
1471.468946	202.817483
1473.419369	204.537063
1475.369354	207.732867
1477.318900	207.712587
1479.266177	208.880420
1481.211186	206.709091
1483.157588	206.828671
1485.103552	207.585315
1487.049079	211.716783
1488.992340	206.132867
1490.935166	200.617483
1492.875728	198.809091
1494.817681	195.703497
1496.757372	195.186014
1498.696629	196.980420
1500.635450	198.681818
1502.572012	200.195105
1504.509965	199.373427
1506.445659	199.283916
1508.380920	201.844755
1510.313925	203.829371
1512.246497	201.269231
1514.178637	204.288811
1516.110345	204.378322
1518.039799	206.202098
1519.970644	206.881818
1521.901057	212.090210
1523.827398	213.825874
1525.755130	214.970629
1527.680611	213.411888
1529.605663	210.830070
1531.530286	210.707692
1533.454480	209.230769
1535.376426	207.856643
1537.299763	207.341259
1539.220853	203.117483
1541.139700	204.571329
1543.059935	203.565035
1544.977928	204.839860
1546.895494	205.739161
1548.810818	205.705594
1550.727532	206.525874
1552.640191	207.095105
1554.556054	209.004196
1556.469677	210.411888
1558.381062	209.034965
1560.293837	207.388811
1562.202562	210.572727
1564.112676	212.594406
1566.022367	210.372727
1567.931635	208.267832
1569.838669	210.670629
1571.743470	212.899301
1573.649660	214.309790
1575.553618	213.940559
1577.457155	214.202098
1579.360272	213.044755
1581.261159	208.360140
1583.163435	206.103497
1585.063483	206.112587
1586.964918	207.466434
1588.862320	203.013287
1590.759303	202.616084
1592.655868	204.925874
1594.553821	201.960140
1596.445939	202.443357
1598.341250	204.424476
1600.236144	207.825874
1602.128816	206.278322
1604.021071	203.723776
1605.911107	203.384615
1607.800727	205.269930
1609.689932	211.766434
1611.578722	212.777622
1613.465294	213.248252
1615.353254	209.263636
1617.237197	205.174825
1619.122527	210.180420
1621.007444	210.859441
1622.890147	209.923776
1624.774237	205.820280
1626.654315	205.934266
1628.535781	206.917483
1630.415036	210.685315
1632.295677	215.471329
1634.170514	213.363636
1636.050332	210.058741
1637.926146	206.762238
1639.801549	203.810490
1641.678338	203.652448
1643.549331	203.478322
1645.423505	202.183916
1647.293680	200.799301
1649.167037	198.823077
1651.038190	196.196503
1652.907141	197.734965
1654.777477	193.631469
1656.643821	190.032168
1658.511550	190.674126
1660.377080	189.581818
1662.243996	187.707692
1664.106923	189.600000
1665.971235	192.920979
1667.833351	191.800000
1669.695062	191.048252
1671.558159	190.843357
1673.419060	190.338462
1675.277769	190.420280
1677.136074	189.125874
1678.995764	190.596503
1680.849686	189.820280
1682.706782	189.082517
1684.563475	190.288112
1686.416191	192.084615
1688.272079	189.180420
1690.123993	186.023776
1691.975506	185.650350
1693.826618	185.546154
1695.677330	182.225175
1697.527641	183.822378
1699.375767	183.218881
1701.225278	180.107692
1703.069040	177.556643
1704.917751	181.637063
1706.760716	186.197902
1708.606848	186.912587
1710.449017	186.410490
1712.294352	188.170629
1714.133946	188.815385
1715.974924	188.523776
1717.817285	190.026573
1719.655690	194.458741
1721.495478	190.741259
1723.333091	188.150350
1725.170308	190.362937
1727.005352	192.715385
1728.841779	188.818182
1730.676034	187.676224
1732.509894	190.390909
1734.343360	186.770629
1736.172881	184.330070
1738.005560	184.518182
1739.834295	185.405594
1741.666187	186.106993
1743.494137	187.317483
1745.321696	183.439860
1747.148862	182.383916
1748.975637	182.588811
1750.802020	181.453147
1752.624467	185.434965
1754.450069	185.497203
1756.271736	179.361538
1758.094785	175.104895
1759.915672	174.976923
1761.736171	177.126573
1763.558051	178.000000
1765.374231	177.453846
1767.193563	172.802797
1769.008968	174.680420
1770.827523	178.534965
1772.642153	177.051748
1774.456396	178.041259
1776.270253	175.760140
1778.083723	172.519580
1779.895040	170.004196
1781.707737	170.800000
1783.520049	174.140559
1785.328443	169.793007
1787.138217	169.534266
1788.944077	175.136364
1790.753082	179.209091
1792.558174	180.921678
1794.364647	179.955944
1796.170736	180.932867
1797.972914	183.714685
1799.778237	184.344755
1801.579651	180.946853
1803.382445	175.432867
1805.181333	175.025175
1806.981602	170.573427
1808.781489	171.825874
1810.579234	173.241259
1812.376599	174.499301
1814.173584	173.913986
1815.970188	173.054545
1817.764653	176.169231
1819.560497	179.567133
1821.350686	178.262937
1823.145772	177.420979
1824.935206	178.558741
1826.727776	181.227972
1828.518211	179.948951
1830.306512	175.684615
1832.097948	174.900000
1833.883738	172.678322
1835.670908	172.595804
1837.455946	170.960839
1839.244118	173.933566
1841.028404	173.816783
1842.810560	177.762238
1844.594096	181.530769
1846.375503	184.990909
1848.158289	185.676923
1849.937194	185.612587
1851.717479	182.551049
1853.495637	185.246853
1855.275174	182.599301
1857.052586	179.481818
1858.827874	171.630769
1860.604540	168.218881
1862.379084	168.241958
1864.155006	170.399301
1865.925307	170.541259
1867.698736	169.072727
1869.470045	170.545455
1871.240983	172.469930
1873.013299	173.634266
1874.780001	174.688112
1876.549829	172.192308
1878.315793	166.808392
1880.084880	163.441958
1881.850106	165.911189
1883.614964	168.160839
1885.381199	168.800000
1887.143575	169.429371
1888.905584	168.065734
1890.667225	169.644056
1892.428500	168.606993
1894.189407	168.827273
1895.949948	169.393007
1897.708379	172.161538
1899.466444	172.101399
1901.222402	174.975524
1902.979736	178.307692
1904.736705	177.484615
1906.491567	175.456643
1908.244325	177.214685
1909.996718	173.975524
1911.750488	170.614685
1913.502154	169.312587
1915.251718	169.947552
1917.002657	168.043357
1918.753234	168.495105
1920.499971	166.663636
1922.248085	165.555245
1923.994099	164.964336
1925.741488	165.532168
1927.486780	166.810490
1929.229974	168.765734
1930.974543	168.722378
1932.717017	170.564336
1934.459130	172.138462
1936.200883	169.231469
1937.942276	163.189510
1939.681576	161.323776
1941.420517	159.295105
1943.159099	156.823776
1944.895590	157.018881
1946.631723	160.869231
1948.369230	165.933566
1950.102915	169.896503
1951.837975	177.207692
1953.570946	177.289510
1955.303561	174.945455
1957.035820	169.251049
1958.767722	165.607692
1960.497538	165.822378
1962.225269	162.408392
1963.954375	157.528671
1965.683126	158.232168
1967.409793	162.388811
1969.136106	169.312587
1970.863792	173.672727
1972.585942	174.923077
1974.311193	171.692308
1976.032637	169.846853
1977.757182	168.002098
1979.479646	167.760839
1981.198308	167.143357
1982.920068	162.713986
1984.638026	163.651049
1986.357357	167.401399
1988.072889	169.283217
1989.793241	171.555944
1991.509795	171.683217
1993.222552	171.848252
1994.938405	173.565035
1996.652186	175.783217
1998.365617	174.633566
2000.076977	171.662937
2001.789709	170.150350
2003.498651	169.106993
2005.210685	166.053147
2006.917211	165.204196
2008.626828	161.376224
2010.334379	160.811888
2012.041581	164.389510
2013.746718	168.674126
2015.451509	175.100000
2017.157671	177.727972
2018.860051	176.868531
2020.563802	176.080420
2022.265491	174.530769
2023.966835	171.488112
2025.667833	166.714685
2027.366770	163.813287
2029.067079	158.932168
2030.763613	154.816084
2032.461518	157.074825
2034.157364	156.356643
2035.856296	156.799301
2037.549742	152.086014
2039.244559	153.348951
2040.939034	152.990210
2042.629740	149.759441
2044.323530	153.293706
2046.013553	156.413287
2047.704947	156.895105
2049.394288	155.975524
2051.084999	152.817483
2052.771947	156.033566
2054.458556	154.888811
2056.146534	153.120280
2057.830753	153.230070
2059.516343	154.907692
2061.201593	152.354545
2062.884794	150.515385
2064.569366	156.223077
2066.248475	157.411888
2067.932369	157.293706
2069.610802	155.134266
2071.292313	153.525874
2072.970072	154.988811
2074.647495	155.372727
2076.326287	156.546154
2078.003037	157.786014
2079.677745	154.757343
2081.353822	151.593007
2083.027859	155.102797
2084.701560	153.804895
2086.374926	151.497203
2088.046253	149.120979
2089.717246	147.128671
2091.387905	148.245455
2093.058230	150.281818
2094.728221	153.699301
2096.396176	156.888811
2098.063798	157.896503
2099.729385	157.047552
2101.396341	157.953846
2103.061264	161.586014
2104.725855	154.483916
2106.388414	151.551748
2108.052341	148.225175
2109.714237	150.492308
2111.375803	152.247552
2113.037037	156.561538
2114.696243	161.768531
2116.355118	165.791608
2118.013664	168.727273
2119.671880	170.995105
2121.326372	172.179720
2122.983929	170.181119
2124.641157	164.779720
2126.294663	162.873427
2127.949537	162.051049
2129.600692	161.716084
2131.254910	160.727972
2132.905411	162.156643
2134.557278	160.220979
2136.203737	157.723077
2137.854951	157.260140
2139.502451	158.809790
2141.151318	159.838462
2142.798166	157.630070
2144.444689	156.494406
2146.090886	157.409790
2147.733375	158.949650
2149.378922	156.448252
2151.020762	156.381818
2152.665659	157.160839
2154.306850	155.836364
2155.947719	152.882517
2157.588263	151.345455
2159.226795	152.578322
2160.866693	154.369930
2162.502891	153.574825
2164.140455	152.297203
2165.777697	152.109790
2167.412929	152.189510
2169.047840	152.245455
2170.682428	154.113986
2172.316696	156.105594
2173.947270	155.388112
2175.580896	154.025175
2177.210830	154.475524
2178.842129	154.295804
2180.471423	152.742657
2182.100398	150.056643
2183.729053	145.636364
2185.357389	144.974825
2186.983723	142.918182
2188.609738	142.756643
2190.233751	139.772028
2191.859130	142.022378
2193.482508	141.797902
2195.107251	144.844056
2196.728313	148.495105
2198.349058	149.222378
2199.971168	154.498601
2201.591280	155.640559
2203.209395	154.921678
2204.827195	153.723077
2206.444680	152.031469
2208.061849	149.995804
2209.678703	149.814685
2211.295241	149.526573
2212.909787	145.955245
2214.522340	149.777622
2216.136257	153.880420
2217.748183	157.093007
2219.361472	158.420979
2220.972771	156.226573
2222.582080	152.561538
2224.192753	152.030769
2225.801437	152.256643
2227.409808	152.593706
2229.016193	154.440559
2230.623941	153.540559
2232.229702	154.540559
2233.835152	155.397902
2235.438617	154.813287
2237.043445	150.966434
2238.646289	147.357343
2240.247150	145.913986
2241.849374	142.572028
2243.449616	140.774825
2245.051220	138.201399
2246.649171	140.844755
2248.248485	144.272028
2249.845819	145.147552
2251.442845	146.424476
2253.041233	144.751748
2254.635972	147.997902
2256.228734	148.579720
2257.822859	151.511189
2259.418345	151.467133
2261.010186	151.047552
2262.601721	149.379021
2264.194618	146.519580
2265.782205	150.069930
2267.374488	149.651049
2268.961465	146.308392
2270.551469	145.739161
2272.136169	144.179720
2273.725563	144.526573
2275.309655	144.132867
2276.895107	145.513986
2278.478591	147.326573
2280.065100	146.386014
2281.647976	147.681119
2283.230549	148.009441
2284.812818	150.800699
2286.391457	150.177273
2287.973121	146.320280
2289.551156	146.271678
2291.132214	143.579021
2292.709645	141.461888
2294.285113	140.407692
2295.863603	142.549301
2297.438469	143.651049
2299.013034	143.815035
2300.587299	143.928671
2302.161263	142.237413
2303.734926	142.282517
2305.308290	142.885315
2306.878035	140.344056
2308.447481	139.880420
2310.019945	134.651049
2311.587135	129.360140
2313.157343	125.769231
2314.723936	131.041259
2316.291889	130.073427
2317.857886	137.532867
2319.423586	135.855245
2320.988988	139.849650
2322.552437	144.331469
2324.117245	149.630070
2325.678445	149.595804
2327.242659	146.044755
2328.801611	143.390210
2330.363578	136.251049
2331.923593	135.567832
2333.483314	137.374825
2335.041085	136.944056
2336.598561	139.419580
2338.155743	139.011189
2339.710977	140.590909
2341.265918	141.369231
2342.820564	141.406993
2344.374917	139.326573
2345.928977	138.337063
2347.482742	138.557343
2349.034564	136.427273
2350.584442	142.620979
2352.137328	144.802098
2353.684972	150.886713
2355.235623	147.950350
2356.782683	145.862937
2358.331101	140.432867
2359.879228	136.523776
2361.423766	131.828671
2362.969662	130.407692
2364.513620	131.471329
2366.058935	132.114685
2367.600665	134.259441
2369.143752	135.565734
2370.684903	137.974126
2372.225765	143.401399
2373.766338	140.388811
2375.306622	138.602797
2376.846617	136.465035
2378.383034	131.162238
2379.922452	129.739161
2381.458293	127.930769
2382.995490	126.411888
2384.529112	123.123077
2386.065734	120.709790
2387.600426	120.473427
2389.133188	124.941259
2390.665663	125.684615
2392.196210	126.952448
2393.729755	131.437762
2395.258089	130.827972
2396.787780	134.629371
2398.317184	140.257343
2399.846304	133.623077
2401.375139	132.081818
2402.898768	133.127972
2404.427033	131.370629
2405.950096	135.320979
2407.477792	132.495105
2408.998649	131.722378
2410.524139	131.871329
2412.046068	131.937063
2413.569353	129.071329
2415.090716	127.644755
2416.610160	123.026573
2418.130959	113.653846
2419.649840	116.095804
2421.168438	115.995804
2422.685119	115.704196
2424.203154	120.657343
2425.720908	121.770629
2427.235111	129.769231
2428.749033	133.872727
2430.262675	135.606993
2431.777672	135.410490
2433.289120	130.493007
2434.801923	129.409790
2436.312812	129.283217
2437.823423	127.190210
2439.332122	122.693706
2440.843807	121.355245
2442.351949	120.642657
2443.859813	121.348252
2445.367399	121.711888
2446.871444	123.853147
2448.378474	124.262937
2449.883597	122.320979
2451.388441	124.449650
2452.891379	122.874126
2454.394041	122.600000
2455.896426	118.900000
2457.396906	117.838462
2458.898739	119.273427
2460.398667	121.004895
2461.898320	121.235664
2463.397698	119.541259
2464.895173	119.201399
2466.390746	116.687413
2467.889299	116.290210
2469.384324	118.450350
2470.880701	116.226573
2472.373552	118.609790
2473.867756	118.570629
2475.361686	121.979720
2476.852092	121.183916
2478.345476	124.353846
2479.836962	126.325874
2481.326551	127.819580
2482.815868	127.309091
2484.303289	126.351748
2485.793686	129.176923
2487.280565	127.755944
2488.768795	129.660839
2490.253508	128.939161
2491.737952	125.511888
2493.223746	123.381818
2494.707649	120.465035
2496.192902	119.244056
2497.673022	117.206993
2499.156115	118.124476
2500.637317	112.503497
2502.118250	109.346853
2503.597294	112.321678
2505.076069	113.392308
2506.554576	111.458042
2508.032815	109.783916
2509.510785	109.993007
2510.985250	111.990210
2512.462685	119.351049
2513.936616	119.929371
2515.411897	122.256643
2516.886911	125.034266
2518.358425	126.531469
2519.831288	126.761538
2521.302269	125.602098
2522.774600	126.331469
2524.241817	124.469930
2525.712001	123.718182
2527.180304	123.827273
2528.648342	123.913986
2530.116115	125.073427
2531.583623	122.666434
2533.050866	121.569231
2534.514617	119.566434
2535.979718	116.635664
2537.442942	110.104196
2538.907516	111.229371
2540.368600	117.940559
2541.831034	123.669930
2543.293205	126.182517
2544.751890	131.082517
2546.215147	132.437063
2547.673307	128.124476
2549.132816	127.037063
2550.587231	124.653147
2552.046217	117.962238
2553.503331	110.989510
2554.958574	112.074126
2556.413555	110.969231
2557.866668	111.187413
2559.321129	114.243357
2560.773720	118.074825
2562.226052	120.402098
2563.676517	119.191608
2565.129937	117.542657
2566.578275	123.614685
2568.029569	123.906993
2569.478996	123.266434
2570.924951	124.154545
2572.373861	127.397203
2573.819301	123.345455
2575.266088	121.376923
2576.711013	121.222378
2578.155679	121.164336
2579.601693	118.667133
2581.044241	115.479021
2582.488136	114.025175
2583.928566	112.932867
2585.370343	107.224476
2586.810261	111.780420
2588.251526	111.863636
2589.689329	111.287413
2591.130082	112.260839
2592.565773	113.427273
2594.004413	115.730070
2595.441195	120.234965
2596.876122	119.853147
2598.313996	120.088112
2599.746813	120.855944
2601.180977	121.993706
2602.613287	122.599301
2604.046943	124.753147
2605.478746	120.640559
2606.910295	120.949650
2608.341592	123.326573
2609.771036	121.722378
2611.200228	120.202797
2612.627570	121.141958
2614.056257	117.040559
2615.484693	117.085315
2616.909681	119.070629
2618.336016	123.135664
2619.760502	121.490909
2621.186334	119.616783
2622.608722	121.436364
2624.032456	127.468531
2625.454343	126.516084
2626.875981	121.483217
2628.295773	122.314685
2629.716911	120.791608
2631.137799	118.725175
2632.555249	117.534965
2633.975638	121.268531
2635.392590	120.946154
2636.809293	119.355245
2638.225748	118.866434
2639.641955	119.876224
2641.057914	119.367133
2642.472032	113.862238
2643.885902	109.420979
2645.297934	111.949650
2646.711309	112.356643
2648.121255	111.318182
2649.534137	107.893706
2650.943590	111.506993
2652.352797	111.602098
2653.760168	111.214685
2655.170473	111.511888
2656.578943	109.313986
2657.985577	107.446853
2659.391966	106.719580
2660.796521	103.525874
2662.202420	106.230070
2663.606486	108.438462
2665.010307	109.589510
2666.413884	108.883916
2667.815630	111.809790
2669.218719	112.347552
2670.618390	112.732168
2672.019405	117.111189
2673.417004	116.407692
2674.817533	116.445455
2676.214646	113.816783
2677.613103	109.569930
2679.009733	109.848951
2680.406120	107.815385
2681.802265	107.005594
2683.196585	106.857343
2684.592246	104.756643
2685.984499	105.023077
2687.378094	107.074825
2688.769865	110.144056
2690.162979	112.075524
2691.554269	111.544755
2692.943736	112.568531
2694.332963	112.779021
2695.721951	111.496503
2697.112280	108.943357
2698.497626	107.409790
2699.885895	110.834965
2701.272344	107.332867
2702.658554	107.434266
2704.044525	108.374126
2705.427098	110.144056
2706.811013	111.811189
2708.194690	113.608392
2709.578128	118.279720
2710.958172	122.331469
2712.339556	117.662937
2713.719126	115.393007
2715.100036	113.251049
2716.479132	113.097203
2717.856414	106.286713
2719.235037	100.591608
2720.611847	97.187413
2721.988420	93.660140
2723.364758	91.682517
2724.739285	95.730070
2726.115152	94.537063
2727.487632	95.400000
2728.863028	93.581119
2730.233464	98.595804
2731.605241	103.644755
2732.976783	105.955944
2734.346517	104.918881
2735.717592	104.860140
2737.086858	107.521678
2738.455891	105.564336
2739.823118	104.693007
2741.190112	105.478322
2742.556872	103.249650
2743.923401	103.544056
2745.288124	100.309091
2746.652615	98.644056
2748.016875	98.297203
2749.380902	98.358741
2750.744698	97.478322
2752.105120	96.892308
2753.468452	98.852448
2754.826842	96.991608
2756.188142	95.059441
2757.546072	94.068531
2758.906910	97.766434
2760.265949	94.587413
2761.621619	91.272028
2762.980197	95.138462
2764.335408	99.609091
2765.690390	100.932867
2767.043576	101.816783
2768.399668	101.576923
2769.752395	103.692308
2771.104895	101.362238
2772.457166	100.523776
2773.810776	101.368531
2775.161024	101.479021
2776.509478	96.388811
2777.860838	98.902098
2779.208838	103.778322
2780.558176	104.488112
2781.905722	102.516783
2783.253042	102.204895
2784.600135	98.969231
2785.945437	96.440559
2787.290512	93.253846
2788.635362	91.097203
2789.979986	90.137762
2791.321258	85.653147
2792.663868	83.001399
2794.006252	88.408392
2795.348411	92.646853
2796.687221	94.129371
2798.028931	95.439161
2799.367293	97.333566
2800.706991	98.255944
2802.044905	96.599301
2803.381034	94.027273
2804.716939	92.909091
2806.054182	93.021678
2807.389641	91.106294
2808.724877	90.046154
2810.058330	93.186713
2811.393120	92.058042
2812.724570	94.039860
2814.058915	95.352448
2815.388362	99.931469
2816.719146	100.465734
2818.049708	98.159441
2819.378491	93.056643
2820.708610	93.244755
2822.036951	92.406294
2823.365071	93.169231
2824.691413	93.277622
2826.019092	95.033566
2827.343437	94.699301
2828.669119	99.589510
2829.993025	99.979720
2831.316712	102.620979
2832.641734	97.286713
2833.963426	95.365734
2835.284900	89.345455
2836.606155	89.843357
2837.927191	88.681119
2839.246454	89.410490
2840.567053	88.968531
2841.885881	88.451748
2843.204490	88.516783
2844.521328	88.032168
2845.837949	88.199301
2847.154353	90.649650
2848.468987	90.353147
2849.784957	94.375524
2851.097606	93.916783
2852.411590	94.805594
2853.725358	96.838462
2855.038909	96.137063
2856.350694	92.623776
2857.660712	88.800699
2858.972065	84.621678
2860.280103	80.669231
2861.589475	78.599301
2862.898633	80.687413
2864.207575	80.458741
2865.514753	82.799301
2866.820169	82.838462
2868.126919	85.269930
2869.431906	89.253846
2870.736680	89.472028
2872.039692	92.587413
2873.345585	94.948252
2874.646624	96.974126
2875.948997	97.079021
2877.249610	96.693007
2878.551557	96.929371
2879.853290	95.867133
2881.151720	94.890909
2882.451483	89.495105
2883.749489	89.088112
2885.047283	88.544056
2886.343321	87.741958
2887.640692	88.157343
2888.936307	92.478322
2890.231711	94.952448
2891.526904	95.046853
2892.818800	92.579720
2894.113572	91.070629
2895.405047	89.054545
2896.697855	83.251049
2897.990453	80.353846
2899.279757	83.112587
2900.570393	82.889510
2901.859278	81.577622
2903.149495	82.000000
2904.436421	85.714685
2905.724679	89.086014
2907.011188	88.315385
2908.297489	86.381119
2909.583581	88.591608
2910.867925	86.234266
2912.155140	82.992308
2913.437529	82.951049
2914.721250	84.311888
2916.003225	78.505594
2917.284992	77.693007
2918.565015	78.406294
2919.847907	80.035664
2921.129054	86.048252
2922.406919	87.082517
2923.687653	87.909790
2924.965106	90.237063
2926.242353	90.522378
2927.517858	89.800000
2928.796231	90.383916
2930.069790	91.158741
2931.346216	89.155944
2932.620901	91.781119
2933.893845	94.824476
2935.168121	97.165035
2936.440657	101.757343
2937.712988	99.587413
2938.982047	94.972028
2940.253971	92.967133
2941.524157	92.151049
2942.794139	88.281119
2944.063918	88.425175
2945.331961	89.393007
2946.598267	92.583916
2947.864372	91.220280
2949.131806	91.681119
2950.397506	91.660140
2951.663003	92.551049
2952.928298	88.502797
2954.190328	88.077622
2955.453688	83.111888
2956.716847	81.090909
2957.978274	78.175524
2959.241030	78.309790
2960.502054	80.072028
2961.761348	81.643357
2963.020442	79.944056
2964.279335	77.693706
2965.538028	79.987413
2966.796521	84.053147
2968.053285	84.711189
2969.309849	88.184615
2970.564686	86.090210
2971.820851	90.520979
2973.073762	93.246853
2974.328002	92.182517
2975.582043	92.046154
2976.834358	90.697902
2978.086474	88.636364
2979.336866	85.915385
2980.590113	84.574825
2981.838583	83.453846
2983.089908	81.341958
2984.337983	81.343357
2985.585862	79.884615
2986.833543	81.080420
2988.081027	77.883916
2989.326790	75.813287
2990.572357	75.395804
2991.819251	75.030070
2993.062901	77.386713
2994.307879	79.109091
2995.549613	78.165035
2996.794199	79.735664
2998.037066	82.997203
2999.276692	86.777622
3000.519168	87.018182
3001.758404	89.633566
3002.998968	83.972028
3004.237816	82.238462
3005.476468	79.377622
3006.713406	77.309790
3007.951670	75.585315
3009.188219	72.066434
3010.424575	69.667832
3011.660737	70.011888
3012.895185	72.645455
3014.129441	77.532867
3015.363503	80.802797
3016.595853	83.432168
3017.826491	83.404196
3019.059975	84.185315
3020.291747	84.329371
3021.521809	80.892308
3022.751679	82.289510
3023.979839	80.353147
3025.209325	78.035664
3026.437102	75.486713
3027.664688	73.385315
3028.893601	76.462937
3030.117771	77.702797
3031.344784	78.104196
3032.568573	80.681818
3033.793689	83.613287
3035.017098	86.038462
3036.240317	88.500000
3037.461831	95.990909
3038.686186	95.086713
3039.905806	94.336364
3041.126752	89.104196
3042.347509	83.479720
3043.566562	79.961538
3044.786940	71.837063
3046.004102	66.582517
3047.222590	67.104895
3048.439375	69.878322
3049.655973	69.525874
3050.872382	71.318881
3052.085579	77.460140
3053.301613	81.661538
3054.514435	82.119580
3055.730094	83.348951
3056.941030	83.027972
3058.153291	81.247552
3059.365366	79.402797
3060.577253	81.881119
3061.787444	84.413287
3062.997448	84.555245
3064.207266	84.758741
3065.415388	87.340559
3066.623325	89.430070
3067.829566	87.208392
3069.037132	82.646853
3070.243003	83.935664
3071.448690	83.960140
3072.654191	79.716783
3073.857999	77.885315
3075.063131	78.386713
3076.266570	78.198601
3077.468318	79.788811
3078.669881	80.862238
3079.871261	80.432168
3081.072457	75.820979
3082.271963	72.144755
3083.471286	73.691608
3084.671932	74.715385
3085.870888	77.717483
3087.066650	74.365035
3088.265241	73.090909
3089.460638	77.500699
3090.657358	77.779021
3091.850886	76.111888
3093.047242	71.236364
3094.241912	68.660839
3095.433391	66.901399
3096.629201	66.817483
3097.820318	68.566434
3099.012757	68.967832
3100.202009	69.930769
3101.394086	69.454545
3102.584480	71.222378
3103.771688	75.853147
3104.960219	76.327972
3106.150071	75.951049
3107.336740	75.659441
3108.523228	79.244755
3109.709538	75.739860
3110.897169	74.007692
3112.081618	70.285315
3113.264388	68.382517
3114.449980	63.461538
3115.633893	64.991608
3116.816127	66.739161
3117.998182	66.587413
3119.180059	65.985315
3120.361758	67.241259
3121.541780	69.110490
3122.720125	69.354545
3123.901290	65.313287
3125.079280	68.232867
3126.257094	66.705594
3127.434730	66.920280
3128.610691	70.174126
3129.786475	74.010490
3130.963581	75.225175
3132.139012	74.191608
3133.312770	74.474126
3134.484855	75.435664
3135.658262	74.362937
3136.831492	70.904895
3138.003051	70.287413
3139.175930	71.827273
3140.345642	69.507692
3141.516675	70.123077
3142.686038	71.835664
3143.853730	69.146853
3145.024238	70.282517
3146.190088	70.765035
3147.360246	69.209091
3148.525748	69.678322
3149.691075	70.433566
3150.856229	68.220280
3152.021210	72.653846
3153.187510	77.553846
3154.349158	78.259441
3155.512125	79.352448
3156.674920	75.274825
3157.837542	70.611888
3158.998499	69.549650
3160.159283	68.252448
3161.319895	66.053147
3162.478843	66.962238
3163.637620	63.909790
3164.796225	61.443357
3165.954657	63.595105
3167.112919	66.165734
3168.269518	65.186713
3169.424456	65.394406
3170.580713	59.167133
3171.735309	60.472028
3172.889735	63.095105
3174.042501	63.448951
3175.195096	62.789510
3176.347522	60.213986
3177.499778	58.839161
3178.651863	59.574825
3179.800803	60.831469
3180.952549	60.971329
3182.102637	61.993007
3183.251069	59.082517
3184.399331	59.693007
3185.547425	64.949650
3186.695350	63.920280
3187.841619	63.669930
3188.987720	62.659441
3190.132167	60.848951
3191.276446	61.774825
3192.420557	61.176224
3193.565985	60.737063
3194.708275	59.941958
3195.850398	59.807692
3196.992353	52.788811
3198.134141	58.448252
3199.275762	60.025874
3200.414248	58.613287
3201.554051	61.068531
3202.695172	58.750350
3203.833158	54.397902
3204.969495	54.074126
3206.105666	55.178322
3207.243154	57.607692
3208.378994	58.309790
3209.516151	57.494406
3210.648695	57.848951
3211.785521	62.880420
3212.917735	65.123776
3214.051266	63.286713
3215.184633	65.802797
3216.314872	62.781119
3217.447909	61.127972
3218.577820	65.023077
3219.709047	64.730769
3220.837150	62.707692
3221.968049	57.404196
3223.097304	54.981119
3224.224916	53.332867
3225.349405	53.327273
3226.478170	56.105594
3227.603813	54.550350
3228.729294	56.955245
3229.853133	58.453846
3230.979766	62.899301
3232.101802	65.280420
3233.225154	64.276224
3234.348344	59.670629
3235.471372	57.646853
3236.592760	55.049650
3237.713986	51.495105
3238.833575	54.269231
3239.953002	55.662238
3241.070791	51.890210
3242.191372	51.364336
3243.308840	55.439161
3244.426147	56.535664
3245.543294	56.278322
3246.658805	54.494406
3247.775630	53.597902
3248.889346	56.167832
3250.005851	57.287413
3251.120722	58.857343
3252.232484	61.065734
3253.344086	62.513287
3254.457004	59.828671
3255.569762	61.067832
3256.679414	58.695105
3257.790381	56.567832
3258.901189	54.002797
3260.010365	51.510490
3261.117911	55.995105
3262.226770	56.251049
3263.335472	57.399301
3264.441071	61.613986
3265.547984	61.779021
3266.653268	65.149650
3267.759866	66.295105
3268.863364	68.126573
3269.968177	66.220979
3271.072832	67.034266
3272.174388	64.509091
3273.275788	63.370629
3274.378502	61.897203
3275.481060	57.300000
3276.580521	55.713986
3277.682766	57.276224
3278.781915	53.611189
3279.879440	55.452448
3280.976809	57.491608
3282.076960	59.407692
3283.174019	59.481119
3284.270922	61.787413
3285.367670	60.619580
3286.459860	61.122378
3287.556298	59.531469
3288.651114	61.011888
3289.745776	60.186014
3290.838816	59.733566
3291.931701	58.183916
3293.022967	55.802098
3294.115544	55.870629
3295.206502	55.367133
3296.295840	53.822378
3297.385025	57.239161
3298.475523	57.767133
3299.562936	61.051049
3300.650196	62.548252
3301.738769	63.946853
3302.827190	62.669930
3303.911063	60.970629
3304.999178	59.673427
3306.084211	53.719580
3307.167629	50.920280
3308.252359	47.409091
3309.335473	45.271329
3310.419900	47.691608
3311.501248	49.091608
3312.583908	50.961538
3313.664954	51.016783
3314.745849	52.783916
3315.825130	53.136364
3316.904261	50.266434
3317.984704	48.642657
3319.062072	44.643357
3320.140752	44.427972
3321.217820	43.683217
3322.294739	42.340559
3323.370046	41.337762
3324.445204	40.762937
3325.521673	39.916783
3326.595072	40.437762
3327.668322	45.158042
3328.742882	44.597203
3329.815834	45.059441
3330.887177	49.113986
3331.959831	53.413986
3333.029419	53.725874
3334.100317	55.396503
3335.169608	56.962937
3336.240210	52.667832
3337.309205	51.069930
3338.376594	49.009790
3339.442378	49.185315
3340.512388	47.809091
3341.579335	46.192308
3342.643220	49.193706
3343.709873	50.499301
3344.774921	50.213986
3345.838366	48.612587
3346.901665	51.385315
3347.964817	49.905594
3349.027823	48.479720
3350.090683	47.495105
3351.151941	45.497203
3352.210142	46.960839
3353.272563	46.239860
3354.331929	47.836364
3355.391149	47.956643
3356.451679	46.974825
3357.507699	48.004196
3358.566483	46.013986
3359.620760	43.726573
3360.677801	41.721678
3361.733243	46.511189
3362.789995	45.151748
3363.845148	47.192308
3364.898704	54.128671
3365.950664	55.704895
3367.005385	58.608392
3368.057057	58.705594
3369.108586	60.827972
3370.161423	61.111189
3371.211213	59.226573
3372.262312	57.608392
3373.310365	55.784615
3374.361177	54.903497
3375.408945	50.480420
3376.456570	52.095804
3377.504052	51.956643
3378.549942	49.639161
3379.597140	48.665734
3380.641296	44.787413
3381.688210	43.841259
3382.733532	42.340559
3383.775813	41.853846
3384.817954	40.111189
3385.861402	39.067832
3386.904709	41.213287
3387.946427	44.770629
3388.988003	50.512587
3390.029438	53.732867
3391.069285	54.225874
3392.107543	58.122378
3393.147109	59.263636
3394.186535	60.355245
3395.224373	58.335664
3396.260624	56.051748
3397.296736	53.300699
3398.334155	48.041958
3399.368541	47.281818
3400.404234	42.230070
3401.439788	40.962937
3402.472311	41.762238
3403.507587	42.865734
3404.539832	45.889510
3405.571939	46.287413
3406.602462	47.408392
3407.634292	47.630769
3408.665984	50.565734
3409.694648	52.904895
3410.723175	53.061538
3411.753008	54.671329
3412.782704	51.837762
3413.809374	54.789510
3414.837351	56.341958
3415.862303	56.519580
3416.890005	51.923077
3417.914684	53.434266
3418.940669	54.502098
3419.965074	49.706294
3420.989343	49.311189
3422.012033	50.263636
3423.034587	51.489510
3424.058447	50.862238
3425.079287	48.006993
3426.099991	48.395504
3427.122002	48.693182
3428.140994	48.567333
3429.159850	47.685265
3430.180013	45.714286
3431.197159	42.321703
