-118.059454	0.587363
-115.389854	2.053846
-112.723189	3.983716
-110.057276	6.142358
-107.394295	8.295155
-104.729885	10.207493
-102.068405	11.644755
-99.405496	11.106294
-96.747693	12.030070
-94.088461	7.428671
-91.429977	6.146853
-88.774417	1.976923
-86.117429	5.069231
-83.465539	2.780420
-80.812218	5.309091
-78.161818	5.272727
-75.509988	6.398601
-72.863249	7.631469
-70.215081	11.565734
-67.567655	11.663636
-64.923143	11.772028
-62.277203	9.515385
-59.636344	9.360140
-56.994056	7.611888
-54.354677	9.427972
-51.713868	10.134266
-49.073800	11.458741
-46.438804	11.984615
-43.802380	11.023077
-41.168858	9.496503
-38.533908	10.825175
-35.904023	8.895804
-33.270546	6.023776
-30.642131	2.523077
-28.014450	1.188811
-25.385340	-0.443357
-22.761287	-10.216084
-20.133645	-55.497203
-17.511056	-150.455944
-14.889199	-160.225874
-12.268072	179.665035
-9.647675	736.164336
-7.030167	1194.174126
-4.411230	1508.011189
-1.795178	1680.443357
0.820145	1705.315385
3.434741	1595.618881
6.046454	1341.901399
8.659596	955.904196
11.267704	470.381818
13.879394	-7.891608
16.486053	-257.844755
19.094140	-158.255944
21.701503	-10.110490
24.303841	7.390210
26.909757	5.868531
29.510651	6.143357
32.112973	2.001399
34.710278	5.272028
37.311158	4.964336
39.907023	9.693706
42.504317	10.458741
45.100891	13.580420
47.692456	14.444056
50.285449	15.584615
52.875581	16.288811
55.467141	17.893007
58.055841	17.955245
60.645968	18.294406
63.231096	15.727972
65.817652	18.416783
68.403494	17.856643
70.986482	19.352448
73.570896	16.484615
76.148182	17.541259
78.729034	11.309790
81.307037	9.430769
83.884330	12.801399
86.463049	15.686014
89.036786	17.090909
91.611951	18.923776
94.184272	16.496503
96.755885	18.806993
99.324658	15.883217
101.894858	16.874825
104.462220	11.381119
107.031007	5.752448
109.596958	-8.779720
112.160074	-12.886713
114.726746	9.386014
117.284197	81.883916
119.847333	184.067133
122.405509	288.654545
124.967240	381.766434
127.524014	472.978322
130.082215	557.872028
132.635462	643.631469
135.188012	723.437063
137.744112	799.803497
140.295264	860.689510
142.845719	917.798601
145.395476	985.208392
147.942414	1059.189510
150.488657	1107.920979
153.036325	1124.043357
155.583297	1117.862937
158.125334	1105.374126
160.666677	1100.445455
163.207327	1119.355944
165.749403	1165.386014
168.288667	1246.162937
170.825123	1350.001399
173.360887	1477.790909
175.898077	1633.254545
178.434576	1832.626573
180.968269	2091.304895
183.499158	2438.100000
186.029360	2911.228671
188.560986	3549.841259
191.089811	4388.048951
193.615837	5416.208392
196.141177	6549.634266
198.667942	7683.072028
201.191911	8646.168531
203.715195	9327.486014
206.237794	9612.600699
208.757600	9472.233566
211.276723	8920.118182
213.795163	8048.527273
216.315027	6982.273427
218.827890	5872.424476
221.344284	4843.251049
223.859996	3980.241958
226.370818	3299.420280
228.883065	2795.705594
231.392530	2416.179720
233.901316	2141.415385
236.409423	1918.716783
238.918955	1743.326573
241.423606	1600.418881
243.927581	1482.669231
246.432980	1379.502797
248.933504	1310.300000
251.437552	1311.569231
253.934628	1411.476224
256.435228	1547.939161
258.933056	1660.941259
261.430211	1718.683916
263.926693	1719.874825
266.418312	1658.583217
268.913451	1539.202098
271.405823	1366.616084
273.897525	1150.528671
276.386464	921.732168
278.876827	735.543357
281.364427	640.177622
283.849268	627.205594
286.337624	629.737762
288.819040	621.978322
291.303970	605.857343
293.784055	598.095105
296.267652	590.750350
298.746406	583.286713
301.226584	579.601399
303.704009	576.092308
306.180771	573.712587
308.656870	577.251748
311.130220	588.858741
313.602908	603.261538
316.074935	610.309790
318.546301	617.848951
321.014922	617.493706
323.482885	618.883217
325.952269	616.651748
328.416831	612.172028
330.884897	608.015385
333.348143	598.864336
335.810731	579.531469
338.272663	560.125175
340.733938	615.806993
343.192479	846.230070
345.652442	1205.344056
348.109672	1547.925175
350.566248	1791.092308
353.022170	1928.194406
355.475362	1946.239161
357.929977	1851.681818
360.379790	1648.304196
362.833099	1356.648951
365.281610	1008.783217
367.729469	676.628671
370.178751	474.733566
372.623239	460.815385
375.069149	508.702098
377.514409	519.255944
379.956951	564.261538
382.398845	716.531469
384.840092	918.909790
387.278623	1101.965035
389.718576	1249.060140
392.155815	1377.160140
394.590342	1453.876923
397.028357	1458.802098
399.461595	1386.130769
401.896254	1247.031469
404.326141	1054.734965
406.759513	864.520280
409.188115	754.011888
411.616075	730.477622
414.045457	718.637063
416.470073	697.141259
418.896111	697.758741
421.321508	729.611189
423.746265	762.797902
426.166264	793.566434
428.587684	827.252448
431.006407	871.830070
433.426551	927.756643
435.844000	998.840559
438.262869	1084.080420
440.679045	1174.134266
443.090473	1215.717483
445.505379	1236.247552
447.917594	1498.667133
450.329175	2897.498601
452.740122	6416.339860
455.148383	11775.396503
457.556011	17538.928671
459.963007	22411.076224
462.369372	25702.114685
464.773054	27081.464336
467.176106	26435.379720
469.578528	23810.062238
471.980320	19457.036364
474.379435	14013.586713
476.779969	8575.948951
479.179874	4587.969930
481.575056	2768.288811
483.973705	2381.153846
486.367634	2325.520280
488.760937	2201.884615
491.153614	2037.278322
493.545666	1864.776224
495.939136	1733.548252
498.327894	1674.416084
500.713986	1664.068531
503.101498	1666.686014
505.488387	1651.019580
507.872612	1622.130769
510.258255	1573.572727
512.641237	1496.301399
515.021558	1399.055245
517.403298	1272.186014
519.782379	1130.981818
522.162879	1000.768531
524.540721	920.453147
526.915908	892.646154
529.290477	875.530070
531.666464	857.693007
534.039799	834.432168
536.414551	818.312587
538.784618	800.930769
541.154069	785.089510
543.524938	772.398601
545.891127	759.816783
548.258734	746.804895
550.623695	733.873427
552.988043	721.468531
555.351778	707.080420
557.716931	692.164336
560.077412	682.673427
562.439311	670.953846
564.798569	657.375524
567.155190	647.862937
569.515255	642.259441
571.868629	636.038462
574.225448	636.387413
576.579632	631.020979
578.933208	626.601399
581.286175	622.245455
583.636510	618.140559
585.988263	614.229371
588.333339	614.526573
590.683879	612.479720
593.027745	608.254545
595.377073	606.797902
597.721752	603.020280
600.063807	599.806294
602.407279	599.894406
604.748128	595.679720
607.088375	587.840559
609.426001	579.005594
611.767062	573.424476
614.103485	571.477622
616.441325	572.232168
618.776548	571.646853
621.109155	570.874825
623.443178	565.149650
625.774587	561.241958
628.105398	556.646853
630.435612	554.122378
632.765227	551.185315
635.090220	547.827273
637.420653	545.527273
639.746466	546.965035
642.069671	548.293007
644.394293	552.033566
646.716309	552.867133
649.037731	553.530769
651.356551	548.823077
653.676786	543.037762
655.996428	536.003497
658.313469	531.589510
660.629918	525.883217
662.943769	523.090210
665.259036	519.960140
667.571706	519.440559
669.885791	518.201399
672.195276	527.853147
674.506177	531.783217
676.814485	536.905594
679.122205	543.057343
681.431339	562.070629
683.735881	603.449650
686.039837	663.046154
688.343207	730.316783
690.647991	792.719580
692.948189	835.004196
695.249801	853.509091
697.550829	849.544056
699.847274	822.748252
702.145135	767.726573
704.442412	703.772028
706.739106	634.584615
709.031224	581.731469
711.326753	548.862238
713.617708	532.876923
715.910078	529.179021
718.199873	528.230070
720.489087	524.189510
722.777722	523.862238
725.063784	523.946853
727.351261	518.617483
729.636166	515.787413
731.920494	519.695804
734.202253	517.239161
736.485426	520.009790
738.768022	519.180420
741.046062	521.302098
743.325517	524.043357
745.604395	527.164336
747.882699	525.641259
750.156453	528.626573
752.431620	526.072028
754.706214	526.718881
756.978249	524.605594
759.251697	527.361538
761.522587	523.341958
763.790921	526.973427
766.060668	527.689510
768.327861	534.321678
770.594483	537.972727
772.860535	541.536364
775.124036	545.262238
777.388950	552.981818
779.653294	558.660839
781.913109	573.267832
784.174336	584.828671
786.434996	602.107692
788.693110	614.893007
790.948679	633.425175
793.207639	651.979021
795.460100	698.660839
797.717927	787.459441
799.971236	911.053147
802.222005	1036.206993
804.474186	1138.313986
806.723828	1197.025175
808.974883	1219.342657
811.221426	1190.621678
813.469381	1119.973427
815.714802	1008.607692
817.961634	875.186713
820.207905	743.526573
822.449671	647.529371
824.694821	604.213287
826.933498	594.283217
829.175557	590.889510
831.413118	589.507692
833.652091	583.681818
835.888537	584.825874
838.126394	581.351049
840.361726	581.554545
842.594535	579.998601
844.828755	580.502098
847.060452	579.904196
849.291595	578.211189
851.522183	577.140559
853.752217	575.707692
855.981697	572.047552
858.206695	566.220979
860.435068	557.448951
862.658961	552.365035
864.884266	542.095804
867.105095	540.611189
869.329296	536.477622
871.549024	541.174825
873.770162	542.499301
875.990750	546.717483
878.208829	549.306993
880.428317	556.494406
882.643339	561.718881
884.857814	568.291608
887.071740	575.952448
889.285120	579.640559
891.497952	578.176923
893.710238	579.124476
895.920021	576.212587
898.129259	573.441958
900.337952	564.541958
902.544146	558.547552
904.751749	555.148252
906.956854	559.333566
909.161416	558.018182
911.363483	563.948252
913.566959	566.311189
915.767941	568.039161
917.968381	571.046853
920.170230	572.562937
922.365688	571.983217
924.564505	566.872028
926.758883	564.821678
928.956619	562.508392
931.149919	556.586014
933.344628	554.791608
935.536851	550.028671
937.728535	544.377622
939.919682	537.316084
942.108346	538.997203
944.296474	535.229371
946.482121	535.368531
948.671120	532.400699
950.855696	533.659441
953.039737	536.388811
955.227128	532.865734
957.406215	531.497203
959.588653	534.053147
961.770557	532.774825
963.949986	530.848951
966.126943	531.870629
968.305308	531.026573
970.485080	521.390210
972.658503	523.416783
974.835272	521.255944
977.007634	524.795105
979.181404	524.007692
981.350770	527.912587
983.523480	531.749650
985.693725	535.902098
987.863441	529.864336
990.032628	529.318182
992.197418	524.538462
994.365549	515.750350
996.529286	513.144755
998.694429	512.925175
1000.857113	507.200699
1003.019272	508.362937
1005.178974	504.636364
1007.338151	513.846154
1009.498735	510.724476
1011.656865	520.971329
1013.814470	520.666434
1015.971552	523.318881
1018.128110	519.213986
1020.280289	519.841259
1022.433875	521.714685
1024.586939	519.583916
1026.737554	523.383916
1028.889576	525.830070
1031.037224	525.353147
1033.188204	531.448252
1035.334813	529.711189
1037.480903	544.579720
1039.626475	549.675524
1041.773452	549.541958
1043.914140	543.944056
1046.058158	549.094406
1048.199735	547.325874
1050.340796	551.476923
1052.483261	560.888811
1054.619447	566.697203
1056.758958	576.993706
1058.894115	595.448252
1061.032596	612.455245
1063.166723	627.226573
1065.300337	633.003497
1067.435356	629.904895
1069.566025	630.363636
1071.698099	632.533566
1073.827744	631.820979
1075.956877	637.711189
1078.085498	644.132867
1080.213608	645.381818
1082.339292	646.155245
1084.464466	651.516084
1086.591044	638.197902
1088.713284	618.290909
1090.836929	600.506993
1092.956239	582.389510
1095.080779	566.375524
1097.199073	554.206993
1099.318772	550.310490
1101.436052	551.148951
1103.552826	543.789510
1105.669093	540.623776
1107.782944	537.573427
1109.898200	533.589510
1112.009132	528.855944
1114.123377	528.918182
1116.233301	523.423776
1118.344629	518.709091
1120.455452	514.019580
1122.561959	513.425874
1124.671776	517.049650
1126.777278	523.262937
1128.884183	526.841259
1130.984873	534.496503
1133.090775	537.974126
1135.192368	547.848951
1137.295364	559.844056
1139.397859	565.811189
1141.494147	565.267832
1143.595643	578.884615
1145.692835	598.988112
1147.789530	648.253147
1149.885726	745.361538
1151.981425	882.566434
1154.076625	1027.161538
1156.169429	1153.447552
1158.263636	1234.188811
1160.351651	1268.077622
1162.444864	1242.069231
1164.531889	1164.812587
1166.622213	1042.869231
1168.708250	898.825874
1170.797584	749.463636
1172.880737	640.836364
1174.965292	572.734266
1177.051249	548.432867
1179.132924	538.769930
1181.216001	538.637063
1183.296692	527.146154
1185.376891	525.853846
1187.456599	521.313986
1189.535816	516.220979
1191.612651	515.058042
1193.687105	514.113986
1195.764850	511.004196
1197.838326	514.817483
1199.913202	514.023077
1201.983811	520.999301
1204.055821	523.590210
1206.125456	526.787413
1208.196491	522.067832
1210.267038	524.106294
1212.333324	521.765035
1214.401011	520.135664
1216.466326	524.502797
1218.533041	528.867832
1220.595500	533.395105
1222.661244	543.393007
1224.722734	553.438462
1226.785625	561.120979
1228.846148	569.577622
1230.906187	572.566434
1232.965744	570.180420
1235.022935	563.123776
1237.079645	551.393007
1239.133991	543.219580
1241.191619	532.914685
1243.246884	524.805594
1245.297908	514.453147
1247.350332	508.374126
1249.402276	505.237063
1251.451862	501.246853
1253.500969	504.269930
1255.549598	504.135664
1257.597748	504.057343
1259.645419	503.985315
1261.688860	506.729371
1263.735577	509.551748
1265.779940	508.451049
1267.823827	508.088811
1269.865362	504.370629
1271.904548	502.857343
1273.947007	500.362238
1275.985243	500.908392
1278.024878	498.772727
1280.064038	498.400699
1282.098979	492.594406
1284.135319	491.448951
1286.169315	496.958741
1288.204708	498.114685
1290.235889	496.904895
1292.268467	496.567133
1294.300574	493.389510
1296.330340	492.811888
1298.361504	490.319580
1300.388460	489.048252
1302.416814	485.960140
1304.440963	483.567133
1306.468378	475.483217
1308.491590	474.509790
1310.516200	478.078322
1312.538476	483.753846
1314.562149	483.739161
1316.583489	487.002098
1318.604361	487.260839
1320.624766	490.481818
1322.640978	486.670629
1324.658587	487.814685
1326.673868	491.341958
1328.692408	488.118182
1330.706759	485.851748
1332.718784	487.432168
1334.734066	486.911888
1336.745163	491.776224
1338.757657	489.600699
1340.765968	490.663636
1342.777534	487.770629
1344.783062	486.960839
1346.791845	480.679720
1348.796450	485.802797
1350.804309	486.177622
1352.811706	487.376224
1354.813072	488.460839
1356.815834	490.720979
1358.818137	486.577622
1360.819980	485.409091
1362.821363	479.919580
1364.820433	478.213986
1366.819044	469.864336
1368.817197	466.822378
1370.814891	460.560839
1372.808423	463.613986
1374.803351	465.259441
1376.797821	469.713986
1378.791835	470.032867
1380.783542	471.634965
1382.774794	470.133566
1384.763740	469.416084
1386.754081	469.415385
1388.743967	472.764336
1390.731549	473.168531
1392.718678	471.661538
1394.703505	471.020979
1396.689727	472.441958
1398.673649	473.162937
1400.657118	471.830070
1402.640134	470.920280
1404.620853	466.735664
1406.602966	463.783217
1408.582783	464.857343
1410.562148	466.561538
1412.537375	467.140559
1414.515840	467.446154
1416.492012	465.566434
1418.467735	465.511189
1420.443008	464.234266
1422.415990	464.476224
1424.388524	469.637063
1426.360610	473.251748
1428.332249	473.941259
1430.299759	475.032168
1432.272343	485.601399
1434.237122	485.036364
1436.206972	485.679720
1438.172699	480.849650
1440.139818	479.382517
1442.104654	475.947552
1444.065370	473.360140
1446.031154	473.661538
1447.990983	476.565734
1449.952206	475.740559
1451.914821	475.225175
1453.873321	475.020280
1455.831378	480.304196
1457.788994	474.306294
1459.746167	467.251049
1461.701065	459.302098
1463.657356	455.785315
1465.611372	454.312587
1467.564947	457.011189
1469.516250	459.362937
1471.468946	463.134965
1473.419369	466.995105
1475.369354	473.360839
1477.318900	477.179021
1479.266177	477.499301
1481.211186	476.530769
1483.157588	474.649650
1485.103552	474.256643
1487.049079	470.910490
1488.992340	473.490210
1490.935166	474.801399
1492.875728	470.897902
1494.817681	469.436364
1496.757372	467.030769
1498.696629	470.453147
1500.635450	470.201399
1502.572012	468.739860
1504.509965	469.223077
1506.445659	470.694406
1508.380920	466.386014
1510.313925	467.675524
1512.246497	465.976224
1514.178637	463.639161
1516.110345	458.474825
1518.039799	456.065035
1519.970644	449.139161
1521.901057	453.774126
1523.827398	456.097203
1525.755130	458.009091
1527.680611	458.073427
1529.605663	460.893007
1531.530286	460.339860
1533.454480	464.684615
1535.376426	463.232168
1537.299763	465.016084
1539.220853	464.503497
1541.139700	462.156643
1543.059935	458.530070
1544.977928	462.425175
1546.895494	463.667832
1548.810818	468.267832
1550.727532	469.356643
1552.640191	470.413287
1554.556054	474.077622
1556.469677	476.138462
1558.381062	473.890210
1560.293837	474.239860
1562.202562	474.748951
1564.112676	473.264336
1566.022367	469.760839
1567.931635	468.700699
1569.838669	466.955245
1571.743470	473.054545
1573.649660	476.423077
1575.553618	477.556643
1577.457155	485.642657
1579.360272	486.979720
1581.261159	483.076224
1583.163435	486.563636
1585.063483	484.176923
1586.964918	482.174825
1588.862320	476.410490
1590.759303	474.311189
1592.655868	471.672727
1594.553821	475.331469
1596.445939	476.138462
1598.341250	472.303497
1600.236144	471.290909
1602.128816	474.405594
1604.021071	474.534965
1605.911107	476.585315
1607.800727	476.151748
1609.689932	477.838462
1611.578722	473.833566
1613.465294	476.016783
1615.353254	475.453846
1617.237197	478.366434
1619.122527	475.719580
1621.007444	472.618182
1622.890147	466.771329
1624.774237	474.723776
1626.654315	474.121678
1628.535781	473.400699
1630.415036	466.368531
1632.295677	464.188811
1634.170514	457.243357
1636.050332	460.783916
1637.926146	456.518182
1639.801549	454.125874
1641.678338	452.047552
1643.549331	453.857343
1645.423505	454.176923
1647.293680	463.095804
1649.167037	462.258042
1651.038190	462.829371
1652.907141	456.818881
1654.777477	459.253846
1656.643821	454.172028
1658.511550	449.788811
1660.377080	440.772727
1662.243996	437.511189
1664.106923	437.951748
1665.971235	442.551049
1667.833351	439.279720
1669.695062	444.822378
1671.558159	445.816783
1673.419060	443.739860
1675.277769	435.395105
1677.136074	430.650350
1678.995764	421.430070
1680.849686	418.458741
1682.706782	415.555944
1684.563475	418.644056
1686.416191	419.534965
1688.272079	433.821678
1690.123993	435.729371
1691.975506	446.020280
1693.826618	448.625175
1695.677330	440.562238
1697.527641	435.243357
1699.375767	435.003497
1701.225278	429.952448
1703.069040	430.253846
1704.917751	425.111189
1706.760716	424.732168
1708.606848	420.265035
1710.449017	432.761538
1712.294352	433.923077
1714.133946	431.458741
1715.974924	430.900000
1717.817285	426.897902
1719.655690	431.148951
1721.495478	434.176923
1723.333091	431.231469
1725.170308	429.240559
1727.005352	424.238462
1728.841779	421.299301
1730.676034	411.955245
1732.509894	414.506294
1734.343360	411.666434
1736.172881	403.806294
1738.005560	405.281818
1739.834295	407.943357
1741.666187	411.349650
1743.494137	417.792308
1745.321696	416.130070
1747.148862	418.838462
1748.975637	422.909091
1750.802020	423.676923
1752.624467	419.607692
1754.450069	423.181119
1756.271736	424.809790
1758.094785	429.648951
1759.915672	428.185315
1761.736171	430.676923
1763.558051	431.762937
1765.374231	430.444056
1767.193563	424.622378
1769.008968	421.383916
1770.827523	419.878322
1772.642153	416.767133
1774.456396	409.055245
1776.270253	409.869231
1778.083723	409.634266
1779.895040	414.437762
1781.707737	409.437063
1783.520049	417.286713
1785.328443	420.199301
1787.138217	417.266434
1788.944077	420.807692
1790.753082	418.078322
1792.558174	419.618182
1794.364647	423.413287
1796.170736	420.331469
1797.972914	421.195105
1799.778237	421.960839
1801.579651	421.867133
1803.382445	420.044056
1805.181333	421.851748
1806.981602	421.545455
1808.781489	418.553846
1810.579234	415.927972
1812.376599	408.295804
1814.173584	407.124476
1815.970188	405.603497
1817.764653	404.186014
1819.560497	401.498601
1821.350686	400.875524
1823.145772	400.320979
1824.935206	400.032867
1826.727776	399.072727
1828.518211	397.898601
1830.306512	399.051049
1832.097948	392.933566
1833.883738	394.165035
1835.670908	396.904895
1837.455946	397.519580
1839.244118	396.686014
1841.028404	396.976224
1842.810560	397.773427
1844.594096	401.190210
1846.375503	400.846154
1848.158289	397.967133
1849.937194	395.337762
1851.717479	396.417483
1853.495637	388.433566
1855.275174	392.942657
1857.052586	394.395105
1858.827874	394.687413
1860.604540	390.196503
1862.379084	390.028671
1864.155006	387.341259
1865.925307	387.973427
1867.698736	387.832168
1869.470045	390.511888
1871.240983	388.197902
1873.013299	393.210490
1874.780001	389.329371
1876.549829	396.097902
1878.315793	398.000699
1880.084880	399.455944
1881.850106	401.319580
1883.614964	402.453846
1885.381199	400.068531
1887.143575	402.067832
1888.905584	401.037063
1890.667225	401.351748
1892.428500	395.851049
1894.189407	398.108392
1895.949948	395.159441
1897.708379	397.444056
1899.466444	391.706993
1901.222402	392.183217
1902.979736	391.351748
1904.736705	391.434266
1906.491567	391.982517
1908.244325	392.180420
1909.996718	390.641259
1911.750488	388.736364
1913.502154	389.424476
1915.251718	391.016084
1917.002657	390.907692
1918.753234	387.799301
1920.499971	382.270629
1922.248085	382.716084
1923.994099	380.190210
1925.741488	377.423776
1927.486780	377.346853
1929.229974	377.444056
1930.974543	378.913287
1932.717017	383.130070
1934.459130	384.004895
1936.200883	386.709441
1937.942276	390.514685
1939.681576	391.224126
1941.420517	394.497902
1943.159099	398.516434
1944.895590	395.551748
1946.631723	390.896154
1948.369230	388.069930
1950.102915	386.263287
1951.837975	386.644056
1953.570946	388.617133
1955.303561	382.526573
1957.035820	386.776573
1958.767722	387.997203
1960.497538	385.372028
1962.225269	386.362937
1963.954375	385.793706
1965.683126	379.716084
1967.409793	380.695804
1969.136106	378.871329
1970.863792	380.162238
1972.585942	380.928671
1974.311193	383.097902
1976.032637	383.806993
1977.757182	388.330769
1979.479646	382.565035
1981.198308	379.809790
1982.920068	376.105594
1984.638026	372.011888
1986.357357	369.514685
1988.072889	372.560140
1989.793241	370.159441
1991.509795	375.325874
1993.222552	376.097203
1994.938405	381.004895
1996.652186	384.104895
1998.365617	386.151748
2000.076977	381.740559
2001.789709	383.688811
2003.498651	380.802797
2005.210685	380.594406
2006.917211	380.950350
2008.626828	379.626573
2010.334379	377.209091
2012.041581	379.380420
2013.746718	375.244755
2015.451509	374.290210
2017.157671	371.875524
2018.860051	375.416783
2020.563802	375.811189
2022.265491	379.767133
2023.966835	378.618182
2025.667833	379.759441
2027.366770	383.536364
2029.067079	386.398601
2030.763613	386.030769
2032.461518	385.508392
2034.157364	383.475524
2035.856296	379.861538
2037.549742	376.302098
2039.244559	377.230070
2040.939034	373.858042
2042.629740	371.853846
2044.323530	368.854545
2046.013553	369.790210
2047.704947	372.389510
2049.394288	374.073427
2051.084999	371.307692
2052.771947	371.520280
2054.458556	368.987413
2056.146534	368.532867
2057.830753	367.841259
2059.516343	368.690210
2061.201593	367.921678
2062.884794	365.240559
2064.569366	362.939860
2066.248475	363.183217
2067.932369	361.742657
2069.610802	360.728671
2071.292313	355.918881
2072.970072	353.156643
2074.647495	348.708392
2076.326287	355.060839
2078.003037	356.523776
2079.677745	360.785315
2081.353822	363.704196
2083.027859	364.532168
2084.701560	361.366434
2086.374926	362.821678
2088.046253	360.731469
2089.717246	359.340559
2091.387905	353.413287
2093.058230	353.411189
2094.728221	352.055245
2096.396176	354.992308
2098.063798	352.829371
2099.729385	352.379720
2101.396341	355.344755
2103.061264	357.341259
2104.725855	356.942657
2106.388414	360.544056
2108.052341	361.661538
2109.714237	365.355245
2111.375803	364.365734
2113.037037	368.916783
2114.696243	367.058042
2116.355118	367.633566
2118.013664	365.172028
2119.671880	360.753846
2121.326372	356.753147
2122.983929	361.127273
2124.641157	360.034266
2126.294663	360.167133
2127.949537	362.262937
2129.600692	362.520280
2131.254910	361.696503
2132.905411	361.290909
2134.557278	361.092308
2136.203737	365.099301
2137.854951	363.911888
2139.502451	364.060140
2141.151318	366.323776
2142.798166	373.039860
2144.444689	367.945455
2146.090886	371.537063
2147.733375	369.017483
2149.378922	362.350350
2151.020762	358.596503
2152.665659	352.734965
2154.306850	347.294406
2155.947719	348.596503
2157.588263	345.820280
2159.226795	350.604196
2160.866693	355.554545
2162.502891	357.766434
2164.140455	355.850350
2165.777697	359.809091
2167.412929	356.588112
2169.047840	354.521678
2170.682428	351.006993
2172.316696	348.415385
2173.947270	342.553846
2175.580896	341.044755
2177.210830	339.996503
2178.842129	345.547552
2180.471423	348.586014
2182.100398	351.727972
2183.729053	353.075524
2185.357389	353.848252
2186.983723	353.280420
2188.609738	353.090909
2190.233751	348.892308
2191.859130	349.837762
2193.482508	344.713287
2195.107251	343.028671
2196.728313	344.549650
2198.349058	346.087413
2199.971168	345.819580
2201.591280	348.703497
2203.209395	345.695804
2204.827195	343.390210
2206.444680	340.428671
2208.061849	339.596503
2209.678703	336.151049
2211.295241	337.746853
2212.909787	335.161538
2214.522340	336.751748
2216.136257	338.058741
2217.748183	337.883916
2219.361472	337.519580
2220.972771	341.589510
2222.582080	339.836364
2224.192753	342.620979
2225.801437	343.206294
2227.409808	346.824476
2229.016193	348.401399
2230.623941	350.164336
2232.229702	351.840559
2233.835152	353.698601
2235.438617	351.986713
2237.043445	349.834965
2238.646289	346.676923
2240.247150	346.174825
2241.849374	342.783916
2243.449616	339.220979
2245.051220	335.176224
2246.649171	335.711189
2248.248485	333.448951
2249.845819	334.355944
2251.442845	335.517483
2253.041233	340.021678
2254.635972	343.160839
2256.228734	345.446853
2257.822859	342.995804
2259.418345	347.397902
2261.010186	343.268531
2262.601721	339.423077
2264.194618	334.331469
2265.782205	331.404196
2267.374488	328.927972
2268.961465	328.407692
2270.551469	329.248951
2272.136169	336.372028
2273.725563	336.472028
2275.309655	333.916783
2276.895107	330.571329
2278.478591	335.002797
2280.065100	329.560839
2281.647976	329.855944
2283.230549	325.611189
2284.812818	321.397902
2286.391457	322.764336
2287.973121	320.606294
2289.551156	321.547552
2291.132214	325.365734
2292.709645	320.376923
2294.285113	317.962937
2295.863603	316.644056
2297.438469	313.260839
2299.013034	313.816084
2300.587299	313.623776
2302.161263	308.627972
2303.734926	307.803497
2305.308290	306.920280
2306.878035	307.242657
2308.447481	307.797203
2310.019945	315.162937
2311.587135	314.565734
2313.157343	323.995105
2314.723936	324.093007
2316.291889	322.993706
2317.857886	327.194406
2319.423586	321.872028
2320.988988	324.269231
2322.552437	325.183916
2324.117245	324.818182
2325.678445	331.657343
2327.242659	330.304895
2328.801611	336.620979
2330.363578	332.461538
2331.923593	335.549650
2333.483314	326.686713
2335.041085	321.506993
2336.598561	313.284615
2338.155743	307.027972
2339.710977	310.206993
2341.265918	309.553147
2342.820564	313.374126
2344.374917	319.108392
2345.928977	319.944056
2347.482742	324.988112
2349.034564	325.710490
2350.584442	327.155245
2352.137328	320.435664
2353.684972	318.016783
2355.235623	309.411189
2356.782683	303.533566
2358.331101	304.486014
2359.879228	301.634266
2361.423766	303.223077
2362.969662	307.767832
2364.513620	307.770629
2366.058935	312.253147
2367.600665	315.714685
2369.143752	315.018881
2370.684903	313.002098
2372.225765	316.696503
2373.766338	314.688811
2375.306622	314.200000
2376.846617	313.417483
2378.383034	308.688811
2379.922452	307.793706
2381.458293	314.005594
2382.995490	308.867832
2384.529112	310.197203
2386.065734	305.623776
2387.600426	305.932867
2389.133188	306.177622
2390.665663	309.019580
2392.196210	311.776923
2393.729755	317.202098
2395.258089	315.826573
2396.787780	315.641259
2398.317184	321.645455
2399.846304	330.693007
2401.375139	326.811189
2402.898768	327.872028
2404.427033	334.853846
2405.950096	337.528671
2407.477792	333.366434
2408.998649	332.260839
2410.524139	323.747552
2412.046068	321.644755
2413.569353	314.002098
2415.090716	311.904196
2416.610160	310.215385
2418.130959	309.339161
2419.649840	305.850350
2421.168438	312.176923
2422.685119	320.348252
2424.203154	318.669930
2425.720908	317.856643
2427.235111	317.100000
2428.749033	304.697902
2430.262675	305.895105
2431.777672	308.408392
2433.289120	307.216084
2434.801923	305.635664
2436.312812	313.044755
2437.823423	308.384615
2439.332122	306.674126
2440.843807	305.670629
2442.351949	304.008392
2443.859813	297.838462
2445.367399	293.548252
2446.871444	280.678322
2448.378474	280.345455
2449.883597	280.730070
2451.388441	279.717483
2452.891379	279.611888
2454.394041	279.737762
2455.896426	278.069231
2457.396906	279.935664
2458.898739	280.004196
2460.398667	280.733566
2461.898320	282.062937
2463.397698	283.428671
2464.895173	278.522378
2466.390746	288.004895
2467.889299	289.203497
2469.384324	296.492308
2470.880701	295.897203
2472.373552	292.407692
2473.867756	292.733566
2475.361686	289.841958
2476.852092	284.679021
2478.345476	289.434266
2479.836962	285.504895
2481.326551	282.883217
2482.815868	278.681119
2484.303289	279.689510
2485.793686	274.604895
2487.280565	281.848252
2488.768795	281.074825
2490.253508	274.628671
2491.737952	271.423077
2493.223746	275.813986
2494.707649	278.819580
2496.192902	283.690210
2497.673022	285.604196
2499.156115	290.617483
2500.637317	290.128671
2502.118250	291.393706
2503.597294	289.967832
2505.076069	293.205594
2506.554576	289.376923
2508.032815	282.741958
2509.510785	280.784615
2510.985250	280.499301
2512.462685	277.325874
2513.936616	281.374825
2515.411897	284.322378
2516.886911	288.264336
2518.358425	290.117483
2519.831288	289.374126
2521.302269	287.518182
2522.774600	285.125874
2524.241817	280.847552
2525.712001	279.672028
2527.180304	274.620280
2528.648342	271.297902
2530.116115	269.423776
2531.583623	270.990909
2533.050866	271.575524
2534.514617	274.111189
2535.979718	271.604895
2537.442942	267.106294
2538.907516	267.565035
2540.368600	268.700000
2541.831034	270.709091
2543.293205	275.583916
2544.751890	277.837063
2546.215147	281.153846
2547.673307	285.944755
2549.132816	294.829371
2550.587231	294.777622
2552.046217	294.227972
2553.503331	289.318182
2554.958574	285.478322
2556.413555	282.028671
2557.866668	281.850350
2559.321129	282.091608
2560.773720	284.222378
2562.226052	277.235664
2563.676517	275.201399
2565.129937	273.957343
2566.578275	276.227273
2568.029569	270.752448
2569.478996	272.558741
2570.924951	271.185315
2572.373861	272.279720
2573.819301	270.303497
2575.266088	276.799301
2576.711013	276.788811
2578.155679	276.156643
2579.601693	268.646154
2581.044241	269.715385
2582.488136	266.151049
2583.928566	266.386713
2585.370343	262.155944
2586.810261	260.151049
2588.251526	261.351748
2589.689329	263.013287
2591.130082	259.754545
2592.565773	261.883217
2594.004413	257.747552
2595.441195	257.079021
2596.876122	255.020280
2598.313996	261.822378
2599.746813	260.380420
2601.180977	262.724476
2602.613287	259.626573
2604.046943	259.967832
2605.478746	258.515385
2606.910295	258.720280
2608.341592	251.219580
2609.771036	254.359441
2611.200228	251.073427
2612.627570	254.164336
2614.056257	256.020979
2615.484693	261.555944
2616.909681	260.220979
2618.336016	266.513287
2619.760502	257.325874
2621.186334	258.692308
2622.608722	256.358741
2624.032456	259.011189
2625.454343	256.076923
2626.875981	260.829371
2628.295773	261.710490
2629.716911	264.554545
2631.137799	263.395105
2632.555249	266.596503
2633.975638	266.373427
2635.392590	267.219580
2636.809293	263.037063
2638.225748	267.306294
2639.641955	270.539860
2641.057914	273.519580
2642.472032	268.957343
2643.885902	268.157343
2645.297934	264.156643
2646.711309	259.932867
2648.121255	255.045455
2649.534137	254.244755
2650.943590	248.971329
2652.352797	249.272727
2653.760168	252.975524
2655.170473	254.934266
2656.578943	255.240559
2657.985577	253.771329
2659.391966	252.268531
2660.796521	252.388112
2662.202420	247.404895
2663.606486	247.527972
2665.010307	245.080420
2666.413884	249.832867
2667.815630	250.702098
2669.218719	254.734266
2670.618390	263.930070
2672.019405	264.349650
2673.417004	261.698601
2674.817533	264.442657
2676.214646	266.795105
2677.613103	266.223077
2679.009733	260.560839
2680.406120	258.318881
2681.802265	257.374126
2683.196585	257.065035
2684.592246	251.260839
2685.984499	251.795105
2687.378094	256.584615
2688.769865	259.587413
2690.162979	264.173427
2691.554269	268.929371
2692.943736	268.363636
2694.332963	269.516783
2695.721951	265.619580
2697.112280	264.623776
2698.497626	260.537762
2699.885895	255.852448
2701.272344	243.544755
2702.658554	247.220979
2704.044525	242.116783
2705.427098	245.630070
2706.811013	244.239860
2708.194690	245.966434
2709.578128	241.523776
2710.958172	246.976923
2712.339556	251.183217
2713.719126	258.322378
2715.100036	258.197902
2716.479132	262.415385
2717.856414	258.516783
2719.235037	264.105594
2720.611847	255.164336
2721.988420	258.206294
2723.364758	249.436364
2724.739285	249.027273
2726.115152	244.648252
2727.487632	249.019580
2728.863028	255.490909
2730.233464	260.206294
2731.605241	263.052448
2732.976783	267.403497
2734.346517	259.369231
2735.717592	258.664336
2737.086858	252.251049
2738.455891	252.060839
2739.823118	244.216783
2741.190112	241.503497
2742.556872	239.661538
2743.923401	241.829371
2745.288124	250.773427
2746.652615	252.476923
2748.016875	254.069930
2749.380902	253.362238
2750.744698	245.614685
2752.105120	242.406993
2753.468452	237.041259
2754.826842	234.551049
2756.188142	230.434965
2757.546072	227.651748
2758.906910	228.137762
2760.265949	229.661538
2761.621619	231.753147
2762.980197	230.060839
2764.335408	226.074825
2765.690390	229.428671
2767.043576	226.069930
2768.399668	229.320979
2769.752395	229.640559
2771.104895	230.003497
2772.457166	230.930769
2773.810776	229.521678
2775.161024	231.767832
2776.509478	234.306294
2777.860838	229.801399
2779.208838	229.639161
2780.558176	228.354545
2781.905722	233.057343
2783.253042	231.807692
2784.600135	235.673427
2785.945437	233.711888
2787.290512	234.642657
2788.635362	237.028671
2789.979986	233.489510
2791.321258	234.846853
2792.663868	235.634965
2794.006252	231.186713
2795.348411	233.693706
2796.687221	229.818881
2798.028931	229.384615
2799.367293	223.112587
2800.706991	218.957343
2802.044905	216.759441
2803.381034	220.434965
2804.716939	226.761538
2806.054182	227.144755
2807.389641	227.745455
2808.724877	229.275524
2810.058330	230.558741
2811.393120	234.688112
2812.724570	232.644056
2814.058915	231.728671
2815.388362	227.402797
2816.719146	226.639161
2818.049708	225.000000
2819.378491	228.890909
2820.708610	227.415385
2822.036951	225.779720
2823.365071	221.786713
2824.691413	220.543357
2826.019092	219.116783
2827.343437	218.874825
2828.669119	213.606294
2829.993025	210.448951
2831.316712	214.205594
2832.641734	217.361538
2833.963426	218.233566
2835.284900	218.645455
2836.606155	218.008392
2837.927191	222.695804
2839.246454	227.795804
2840.567053	227.290909
2841.885881	224.241259
2843.204490	221.100000
2844.521328	218.569231
2845.837949	216.948951
2847.154353	218.346853
2848.468987	214.125874
2849.784957	212.215385
2851.097606	209.536364
2852.411590	209.669231
2853.725358	211.967133
2855.038909	216.300699
2856.350694	216.120280
2857.660712	212.746853
2858.972065	215.553147
2860.280103	217.904196
2861.589475	218.345455
2862.898633	216.925874
2864.207575	215.032867
2865.514753	214.477622
2866.820169	210.937762
2868.126919	208.004895
2869.431906	204.962238
2870.736680	208.560839
2872.039692	210.947552
2873.345585	206.981818
2874.646624	211.253147
2875.948997	213.897203
2877.249610	219.739860
2878.551557	217.518182
2879.853290	221.848252
2881.151720	220.251049
2882.451483	219.300000
2883.749489	215.658042
2885.047283	213.451049
2886.343321	212.109790
2887.640692	206.178322
2888.936307	199.002098
2890.231711	200.213986
2891.526904	200.695804
2892.818800	199.497902
2894.113572	197.762937
2895.405047	202.781119
2896.697855	204.811189
2897.990453	210.523776
2899.279757	208.698601
2900.570393	214.706294
2901.859278	216.793007
2903.149495	217.461538
2904.436421	216.100699
2905.724679	219.206993
2907.011188	216.830070
2908.297489	217.254545
2909.583581	215.308392
2910.867925	212.872727
2912.155140	214.503497
2913.437529	212.560839
2914.721250	206.137063
2916.003225	208.211189
2917.284992	204.791608
2918.565015	205.182517
2919.847907	207.604196
2921.129054	210.508392
2922.406919	213.832867
2923.687653	218.033566
2924.965106	214.779021
2926.242353	218.969231
2927.517858	223.460140
2928.796231	220.254545
2930.069790	215.325175
2931.346216	213.155944
2932.620901	205.332867
2933.893845	205.735664
2935.168121	206.162937
2936.440657	200.755245
2937.712988	199.147552
2938.982047	197.376923
2940.253971	195.811189
2941.524157	193.648252
2942.794139	193.219580
2944.063918	194.040559
2945.331961	191.823776
2946.598267	197.181119
2947.864372	194.749650
2949.131806	198.718182
2950.397506	198.030769
2951.663003	198.183217
2952.928298	198.595105
2954.190328	199.651049
2955.453688	201.243357
2956.716847	199.549650
2957.978274	200.888811
2959.241030	205.139161
2960.502054	204.995804
2961.761348	208.920979
2963.020442	206.983217
2964.279335	206.373427
2965.538028	193.186713
2966.796521	187.745455
2968.053285	182.825175
2969.309849	184.690909
2970.564686	182.841259
2971.820851	182.174825
2973.073762	181.438462
2974.328002	186.141958
2975.582043	192.121678
2976.834358	199.758741
2978.086474	207.769930
2979.336866	211.570629
2980.590113	210.574825
2981.838583	218.579720
2983.089908	222.142657
2984.337983	227.848252
2985.585862	221.429371
2986.833543	218.509790
2988.081027	210.490909
2989.326790	200.935664
2990.572357	197.581119
2991.819251	193.455944
2993.062901	189.297902
2994.307879	185.313287
2995.549613	186.257343
2996.794199	188.718182
2998.037066	181.890210
2999.276692	182.130070
3000.519168	178.810490
3001.758404	179.474126
3002.998968	176.549650
3004.237816	180.671329
3005.476468	184.272727
3006.713406	191.332867
3007.951670	197.825874
3009.188219	202.606993
3010.424575	206.318881
3011.660737	211.916783
3012.895185	203.562937
3014.129441	203.106993
3015.363503	197.027273
3016.595853	189.946853
3017.826491	182.397203
3019.059975	183.170629
3020.291747	175.310490
3021.521809	180.939161
3022.751679	182.829371
3023.979839	182.916783
3025.209325	187.118182
3026.437102	198.071329
3027.664688	196.397203
3028.893601	196.828671
3030.117771	190.756643
3031.344784	189.469231
3032.568573	189.311888
3033.793689	190.861538
3035.017098	184.955944
3036.240317	185.731469
3037.461831	181.166434
3038.686186	179.882517
3039.905806	177.463636
3041.126752	177.534965
3042.347509	173.749650
3043.566562	170.393706
3044.786940	169.313986
3046.004102	172.297203
3047.222590	173.460140
3048.439375	177.414685
3049.655973	173.530070
3050.872382	176.392308
3052.085579	176.674126
3053.301613	180.348252
3054.514435	175.011888
3055.730094	177.211189
3056.941030	176.660140
3058.153291	177.108392
3059.365366	176.588112
3060.577253	176.762238
3061.787444	176.829371
3062.997448	179.635664
3064.207266	178.777622
3065.415388	183.633566
3066.623325	182.976923
3067.829566	187.511888
3069.037132	186.984615
3070.243003	188.946154
3071.448690	184.633566
3072.654191	181.362238
3073.857999	176.467832
3075.063131	175.869231
3076.266570	172.750350
3077.468318	172.132867
3078.669881	168.971329
3079.871261	170.755245
3081.072457	169.418182
3082.271963	171.829371
3083.471286	175.972028
3084.671932	180.412587
3085.870888	179.339161
3087.066650	181.250350
3088.265241	184.227273
3089.460638	187.750350
3090.657358	184.037762
3091.850886	178.402098
3093.047242	175.927972
3094.241912	175.495804
3095.433391	172.853846
3096.629201	170.241259
3097.820318	173.634266
3099.012757	176.188112
3100.202009	174.602098
3101.394086	180.289510
3102.584480	185.211189
3103.771688	184.713287
3104.960219	181.044056
3106.150071	174.045455
3107.336740	175.930769
3108.523228	175.821678
3109.709538	176.079720
3110.897169	172.904895
3112.081618	167.937762
3113.264388	167.588811
3114.449980	165.313986
3115.633893	165.704895
3116.816127	167.220979
3117.998182	165.823776
3119.180059	163.447552
3120.361758	160.480420
3121.541780	157.499301
3122.720125	159.497902
3123.901290	155.956643
3125.079280	154.531469
3126.257094	152.475524
3127.434730	157.858042
3128.610691	157.382517
3129.786475	154.898601
3130.963581	157.367133
3132.139012	162.406294
3133.312770	164.504196
3134.484855	167.295105
3135.658262	162.837063
3136.831492	162.513986
3138.003051	156.788811
3139.175930	158.181818
3140.345642	159.193706
3141.516675	160.169930
3142.686038	159.304895
3143.853730	159.965734
3145.024238	162.634965
3146.190088	168.144755
3147.360246	167.525874
3148.525748	168.612587
3149.691075	169.357343
3150.856229	168.928671
3152.021210	167.332867
3153.187510	171.378322
3154.349158	170.256643
3155.512125	168.467832
3156.674920	164.748252
3157.837542	163.760839
3158.998499	159.826573
3160.159283	157.934965
3161.319895	153.751049
3162.478843	151.770629
3163.637620	149.667133
3164.796225	152.683217
3165.954657	154.514685
3167.112919	157.704196
3168.269518	154.432168
3169.424456	151.151049
3170.580713	145.038462
3171.735309	145.670629
3172.889735	145.941958
3174.042501	144.924476
3175.195096	138.949650
3176.347522	135.447552
3177.499778	134.099301
3178.651863	140.741259
3179.800803	145.739161
3180.952549	149.788112
3182.102637	151.038462
3183.251069	153.202098
3184.399331	154.838462
3185.547425	158.293007
3186.695350	163.206993
3187.841619	164.830769
3188.987720	163.157343
3190.132167	161.148951
3191.276446	162.464336
3192.420557	160.741958
3193.565985	159.729371
3194.708275	160.914685
3195.850398	158.758042
3196.992353	154.972727
3198.134141	148.821678
3199.275762	145.291608
3200.414248	146.526573
3201.554051	145.362937
3202.695172	143.448951
3203.833158	139.539860
3204.969495	142.841259
3206.105666	142.466434
3207.243154	141.304196
3208.378994	143.703497
3209.516151	144.258741
3210.648695	146.587413
3211.785521	148.523776
3212.917735	149.253846
3214.051266	151.776224
3215.184633	151.079021
3216.314872	151.837762
3217.447909	151.836364
3218.577820	148.924476
3219.709047	146.765035
3220.837150	141.158741
3221.968049	137.974825
3223.097304	136.684615
3224.224916	138.169930
3225.349405	137.794406
3226.478170	140.493706
3227.603813	141.772727
3228.729294	140.715385
3229.853133	138.809790
3230.979766	136.255245
3232.101802	131.325175
3233.225154	135.932168
3234.348344	136.037063
3235.471372	136.579720
3236.592760	133.274825
3237.713986	133.621678
3238.833575	135.513287
3239.953002	142.676923
3241.070791	140.306993
3242.191372	138.517483
3243.308840	135.565734
3244.426147	136.616783
3245.543294	136.076224
3246.658805	140.858741
3247.775630	139.841259
3248.889346	142.279720
3250.005851	139.223776
3251.120722	141.467832
3252.232484	140.166434
3253.344086	141.098601
3254.457004	137.994406
3255.569762	135.696503
3256.679414	135.145455
3257.790381	137.129371
3258.901189	137.128671
3260.010365	142.787413
3261.117911	143.981818
3262.226770	145.946853
3263.335472	145.975524
3264.441071	147.304196
3265.547984	145.169231
3266.653268	143.275524
3267.759866	142.630070
3268.863364	140.737762
3269.968177	135.617483
3271.072832	138.376923
3272.174388	139.701399
3273.275788	143.192308
3274.378502	140.751049
3275.481060	140.882517
3276.580521	140.380420
3277.682766	139.143357
3278.781915	136.989510
3279.879440	137.370629
3280.976809	136.410490
3282.076960	134.623077
3283.174019	130.627972
3284.270922	133.893706
3285.367670	135.490210
3286.459860	136.854545
3287.556298	136.276224
3288.651114	140.750350
3289.745776	134.755245
3290.838816	130.390909
3291.931701	126.478322
3293.022967	130.293007
3294.115544	125.176923
3295.206502	126.573427
3296.295840	123.837762
3297.385025	125.204196
3298.475523	124.872028
3299.562936	125.126573
3300.650196	126.508392
3301.738769	128.065035
3302.827190	118.093007
3303.911063	119.563636
3304.999178	120.525874
3306.084211	127.620979
3307.167629	129.570629
3308.252359	139.023077
3309.335473	141.131469
3310.419900	148.079720
3311.501248	148.487413
3312.583908	151.328671
3313.664954	146.190210
3314.745849	141.790210
3315.825130	134.052448
3316.904261	136.463636
3317.984704	134.272727
3319.062072	135.311888
3320.140752	133.806294
3321.217820	141.030070
3322.294739	144.830070
3323.370046	148.993706
3324.445204	146.922378
3325.521673	144.913287
3326.595072	141.869930
3327.668322	140.669231
3328.742882	141.512587
3329.815834	139.406294
3330.887177	139.064336
3331.959831	136.305594
3333.029419	132.709091
3334.100317	136.888112
3335.169608	137.572028
3336.240210	136.289510
3337.309205	133.201399
3338.376594	132.866434
3339.442378	135.134965
3340.512388	133.488811
3341.579335	133.374825
3342.643220	131.637063
3343.709873	135.362238
3344.774921	132.540559
3345.838366	129.467832
3346.901665	132.348252
3347.964817	132.047552
3349.027823	132.323776
3350.090683	130.157343
3351.151941	134.588811
3352.210142	132.280420
3353.272563	130.508392
3354.331929	127.999301
3355.391149	127.433566
3356.451679	125.104196
3357.507699	121.818182
3358.566483	119.334965
3359.620760	121.632168
3360.677801	117.650350
3361.733243	119.607692
3362.789995	117.590909
3363.845148	119.658042
3364.898704	119.568531
3365.950664	126.405594
3367.005385	130.065035
3368.057057	128.093007
3369.108586	128.836364
3370.161423	130.149650
3371.211213	128.954545
3372.262312	127.503497
3373.310365	124.175524
3374.361177	129.672727
3375.408945	127.920280
3376.456570	130.335664
3377.504052	133.045455
3378.549942	139.368531
3379.597140	139.297902
3380.641296	136.497203
3381.688210	137.010490
3382.733532	133.922378
3383.775813	130.765035
3384.817954	130.944056
3385.861402	129.000699
3386.904709	131.079021
3387.946427	127.958042
3388.988003	125.558741
3390.029438	123.696503
3391.069285	126.665734
3392.107543	126.386014
3393.147109	128.432867
3394.186535	129.598601
3395.224373	128.416783
3396.260624	129.592308
3397.296736	131.634266
3398.334155	129.373427
3399.368541	127.571329
3400.404234	123.729371
3401.439788	123.943357
3402.472311	124.082517
3403.507587	127.190210
3404.539832	128.739860
3405.571939	132.276224
3406.602462	135.596503
3407.634292	137.195105
3408.665984	137.808392
3409.694648	138.741958
3410.723175	137.152448
3411.753008	134.344056
3412.782704	131.497203
3413.809374	131.773427
3414.837351	126.049650
3415.862303	122.504196
3416.890005	115.085315
3417.914684	112.634965
3418.940669	110.643357
3419.965074	107.455245
3420.989343	104.688112
3422.012033	106.839161
3423.034587	106.532867
3424.058447	109.432867
3425.079287	111.313986
3426.099991	111.746953
3427.122002	111.731244
3428.140994	111.266334
3429.159850	110.351698
3430.180013	108.986813
3431.197159	107.171154
