-118.059454	-12.719780
-115.389854	0.936264
-112.723189	9.561838
-110.057276	14.073726
-107.394295	15.388711
-104.729885	14.423576
-102.068405	12.095105
-99.405496	12.218182
-96.747693	10.996503
-94.088461	9.778322
-91.429977	9.207692
-88.774417	10.610490
-86.117429	8.913287
-83.465539	8.139161
-80.812218	6.998601
-78.161818	4.739161
-75.509988	6.112587
-72.863249	5.888811
-70.215081	3.365035
-67.567655	6.681818
-64.923143	8.041259
-62.277203	10.093007
-59.636344	10.682517
-56.994056	10.977622
-54.354677	11.000000
-51.713868	6.731469
-49.073800	5.920979
-46.438804	5.590909
-43.802380	11.156643
-41.168858	11.316084
-38.533908	10.163636
-35.904023	12.881818
-33.270546	12.120979
-30.642131	12.914685
-28.014450	13.666434
-25.385340	10.906294
-22.761287	-1.044056
-20.133645	-39.769930
-17.511056	-113.289510
-14.889199	-131.320979
-12.268072	123.167133
-9.647675	555.243357
-7.030167	914.089510
-4.411230	1165.736364
-1.795178	1302.769930
0.820145	1332.771329
3.434741	1248.944755
6.046454	1055.304895
8.659596	758.101399
11.267704	381.625874
13.879394	7.611189
16.486053	-198.652448
19.094140	-127.175524
21.701503	-6.725175
24.303841	11.866434
26.909757	12.903497
29.510651	12.489510
32.112973	12.484615
34.710278	12.203497
37.311158	9.963636
39.907023	7.883916
42.504317	6.316084
45.100891	10.675524
47.692456	10.179021
50.285449	11.778322
52.875581	10.048951
55.467141	11.804895
58.055841	8.196503
60.645968	7.447552
63.231096	4.957343
65.817652	5.222378
68.403494	1.699301
70.986482	1.004196
73.570896	3.184615
76.148182	7.644755
78.729034	7.867832
81.307037	12.240559
83.884330	13.132168
86.463049	15.537762
89.036786	12.686713
91.611951	11.413287
94.184272	9.395804
96.755885	9.034266
99.324658	8.185315
101.894858	7.169231
104.462220	6.994406
107.031007	4.106993
109.596958	-3.307692
112.160074	-5.564336
114.726746	10.476923
117.284197	65.765035
119.847333	141.958042
122.405509	222.662238
124.967240	297.492308
127.524014	368.365734
130.082215	436.234965
132.635462	501.918881
135.188012	568.360140
137.744112	623.302098
140.295264	668.567133
142.845719	716.327273
145.395476	767.604196
147.942414	823.114685
150.488657	859.385315
153.036325	870.561538
155.583297	864.893706
158.125334	857.416783
160.666677	859.171329
163.207327	875.755245
165.749403	914.406993
168.288667	979.930769
170.825123	1063.265035
173.360887	1169.145455
175.898077	1286.273427
178.434576	1435.672028
180.968269	1634.559441
183.499158	1906.560140
186.029360	2273.583916
188.560986	2771.637762
191.089811	3419.702098
193.615837	4210.253147
196.141177	5081.403497
198.667942	5957.195105
201.191911	6699.998601
203.715195	7227.186713
206.237794	7444.341958
208.757600	7335.825874
211.276723	6911.420979
213.795163	6242.362937
216.315027	5424.240559
218.827890	4563.826573
221.344284	3763.651748
223.859996	3095.951049
226.370818	2565.990909
228.883065	2175.373427
231.392530	1884.886713
233.901316	1671.574825
236.409423	1497.005594
238.918955	1355.144056
241.423606	1235.634965
243.927581	1145.812587
246.432980	1067.414685
248.933504	1004.834266
251.437552	1009.431469
253.934628	1096.365734
256.435228	1208.204196
258.933056	1301.026573
261.430211	1352.861538
263.926693	1355.027273
266.418312	1307.540559
268.913451	1211.227972
271.405823	1073.701399
273.897525	906.205594
276.386464	721.277622
278.876827	571.967832
281.364427	498.168531
283.849268	490.742657
286.337624	493.015385
288.819040	487.431469
291.303970	477.739860
293.784055	469.924476
296.267652	462.651748
298.746406	457.292308
301.226584	449.322378
303.704009	444.312587
306.180771	441.757343
308.656870	443.962238
311.130220	453.757343
313.602908	461.894406
316.074935	468.761538
318.546301	477.169930
321.014922	479.571329
323.482885	483.271329
325.952269	482.451748
328.416831	480.537762
330.884897	473.466434
333.348143	466.870629
335.810731	452.915385
338.272663	437.690210
340.733938	484.365035
343.192479	657.479720
345.652442	935.409790
348.109672	1198.777622
350.566248	1386.458042
353.022170	1492.551049
355.475362	1505.318182
357.929977	1430.953147
360.379790	1273.666434
362.833099	1048.315385
365.281610	774.060140
367.729469	519.890909
370.178751	367.739161
372.623239	359.090909
375.069149	396.587413
377.514409	403.837063
379.956951	442.263636
382.398845	562.983217
384.840092	725.852448
387.278623	869.684615
389.718576	985.404196
392.155815	1083.653147
394.590342	1139.886014
397.028357	1149.856643
399.461595	1092.767133
401.896254	985.890909
404.326141	835.884615
406.759513	686.636364
409.188115	598.209091
411.616075	579.004196
414.045457	571.886014
416.470073	552.567832
418.896111	546.820280
421.321508	566.705594
423.746265	594.160839
426.166264	620.092308
428.587684	646.959441
431.006407	682.923077
433.426551	726.946154
435.844000	779.269930
438.262869	843.055944
440.679045	909.559441
443.090473	953.979021
445.505379	961.740559
447.917594	1164.801399
450.329175	2251.025874
452.740122	4974.004895
455.148383	9139.567133
457.556011	13617.345455
459.963007	17393.628671
462.369372	19934.108392
464.773054	20994.954545
467.176106	20487.283217
469.578528	18447.595105
471.980320	15086.357343
474.379435	10860.121678
476.779969	6653.426573
479.179874	3563.049650
481.575056	2154.884615
483.973705	1874.762238
486.367634	1830.518182
488.760937	1732.067133
491.153614	1595.717483
493.545666	1460.290210
495.939136	1360.875524
498.327894	1316.891608
500.713986	1315.510490
503.101498	1318.865035
505.488387	1308.016783
507.872612	1284.418881
510.258255	1246.992308
512.641237	1183.889510
515.021558	1098.202797
517.403298	1000.192308
519.782379	889.328671
522.162879	786.444755
524.540721	729.434965
526.915908	705.790909
529.290477	696.708392
531.666464	687.573427
534.039799	670.046853
536.414551	658.800000
538.784618	647.662937
541.154069	633.239860
543.524938	617.377622
545.891127	603.811189
548.258734	588.528671
550.623695	571.695804
552.988043	557.333566
555.351778	539.757343
557.716931	527.130769
560.077412	519.162937
562.439311	514.686713
564.798569	514.069930
567.155190	511.968531
569.515255	506.572028
571.868629	501.275524
574.225448	500.903497
576.579632	495.018881
578.933208	488.990909
581.286175	481.658042
583.636510	479.142657
585.988263	478.577622
588.333339	481.995105
590.683879	486.481119
593.027745	483.800000
595.377073	477.844755
597.721752	471.674126
600.063807	469.199301
602.407279	465.800699
604.748128	454.388112
607.088375	446.589510
609.426001	441.426573
611.767062	438.090909
614.103485	440.493007
616.441325	443.381119
618.776548	444.282517
621.109155	442.521678
623.443178	439.883916
625.774587	439.519580
628.105398	440.800699
630.435612	436.677622
632.765227	430.744755
635.090220	428.511189
637.420653	427.396503
639.746466	428.478322
642.069671	429.647552
644.394293	428.994406
646.716309	429.035664
649.037731	425.559441
651.356551	425.055245
653.676786	422.181119
655.996428	420.690210
658.313469	414.220979
660.629918	409.567133
662.943769	405.627273
665.259036	405.555245
667.571706	407.182517
669.885791	407.830769
672.195276	414.097203
674.506177	417.245455
676.814485	422.512587
679.122205	431.007692
681.431339	446.976923
683.735881	475.328671
686.039837	521.209790
688.343207	573.532867
690.647991	618.407692
692.948189	653.725175
695.249801	669.613287
697.550829	668.362937
699.847274	648.503497
702.145135	604.298601
704.442412	553.125874
706.739106	499.522378
709.031224	457.379720
711.326753	427.205594
713.617708	418.489510
715.910078	411.602797
718.199873	410.205594
720.489087	409.109790
722.777722	408.828671
725.063784	413.345455
727.351261	416.439860
729.636166	415.160839
731.920494	414.956643
734.202253	415.533566
736.485426	415.146154
738.768022	411.841259
741.046062	414.586713
743.325517	412.049650
745.604395	413.962937
747.882699	411.121678
750.156453	416.437063
752.431620	420.951049
754.706214	422.513986
756.978249	421.533566
759.251697	419.895105
761.522587	418.590210
763.790921	418.301399
766.060668	416.073427
768.327861	423.376224
770.594483	425.190909
772.860535	426.197902
775.124036	429.409790
777.388950	435.836364
779.653294	438.761538
781.913109	445.088112
784.174336	455.002797
786.434996	466.933566
788.693110	477.308392
790.948679	488.475524
793.207639	501.606993
795.460100	542.906294
797.717927	614.066434
799.971236	713.337063
802.222005	815.041259
804.474186	896.091608
806.723828	943.188811
808.974883	956.914685
811.221426	934.404895
813.469381	879.145455
815.714802	793.761538
817.961634	689.074126
820.207905	583.099301
822.449671	509.434965
824.694821	475.458741
826.933498	468.818881
829.175557	463.370629
831.413118	461.921678
833.652091	455.597203
835.888537	453.097902
838.126394	451.483217
840.361726	454.502098
842.594535	456.708392
844.828755	456.593706
847.060452	453.060839
849.291595	451.169231
851.522183	452.751748
853.752217	450.699301
855.981697	443.986014
858.206695	439.127972
860.435068	433.089510
862.658961	431.665734
864.884266	426.901399
867.105095	427.789510
869.329296	425.809790
871.549024	426.736364
873.770162	427.532867
875.990750	428.576923
878.208829	430.822378
880.428317	432.653147
882.643339	433.722378
884.857814	434.356643
887.071740	438.925175
889.285120	441.288112
891.497952	440.037063
893.710238	443.576224
895.920021	441.606294
898.129259	441.905594
900.337952	442.921678
902.544146	441.325175
904.751749	439.288112
906.956854	439.931469
909.161416	441.590210
911.363483	440.303497
913.566959	441.563636
915.767941	443.969930
917.968381	447.395804
920.170230	451.261538
922.365688	451.813287
924.564505	452.960140
926.758883	451.197902
928.956619	448.387413
931.149919	438.590210
933.344628	435.406993
935.536851	428.838462
937.728535	424.368531
939.919682	422.115385
942.108346	423.786713
944.296474	422.881818
946.482121	424.951049
948.671120	425.869930
950.855696	427.460140
953.039737	425.193706
955.227128	424.622378
957.406215	422.277622
959.588653	422.394406
961.770557	417.730070
963.949986	422.122378
966.126943	420.427972
968.305308	419.134266
970.485080	417.633566
972.658503	418.333566
974.835272	416.740559
977.007634	412.423077
979.181404	409.906993
981.350770	407.106993
983.523480	408.915385
985.693725	405.133566
987.863441	403.379720
990.032628	403.413986
992.197418	401.907692
994.365549	405.951748
996.529286	410.235664
998.694429	411.399301
1000.857113	411.830070
1003.019272	411.518881
1005.178974	414.898601
1007.338151	410.206294
1009.498735	413.097902
1011.656865	412.669930
1013.814470	408.798601
1015.971552	406.923077
1018.128110	403.565734
1020.280289	406.474825
1022.433875	409.218881
1024.586939	409.334965
1026.737554	413.625175
1028.889576	418.486713
1031.037224	420.181818
1033.188204	418.128671
1035.334813	422.278322
1037.480903	426.458042
1039.626475	426.157343
1041.773452	430.630769
1043.914140	424.940559
1046.058158	431.399301
1048.199735	425.650350
1050.340796	426.553147
1052.483261	430.669930
1054.619447	437.669930
1056.758958	446.699301
1058.894115	460.409091
1061.032596	472.251049
1063.166723	482.655944
1065.300337	491.182517
1067.435356	493.315385
1069.566025	492.662238
1071.698099	499.076923
1073.827744	500.120979
1075.956877	514.399301
1078.085498	520.146154
1080.213608	522.559441
1082.339292	519.349650
1084.464466	515.809091
1086.591044	502.990909
1088.713284	485.156643
1090.836929	470.702098
1092.956239	449.980420
1095.080779	435.051748
1097.199073	426.966434
1099.318772	423.867832
1101.436052	422.892308
1103.552826	416.018881
1105.669093	409.799301
1107.782944	403.901399
1109.898200	406.981818
1112.009132	406.595804
1114.123377	405.437762
1116.233301	407.122378
1118.344629	406.793706
1120.455452	403.869930
1122.561959	404.763636
1124.671776	404.481818
1126.777278	405.908392
1128.884183	410.404895
1130.984873	413.321678
1133.090775	416.960140
1135.192368	430.041958
1137.295364	426.238462
1139.397859	432.192308
1141.494147	440.896503
1143.595643	451.332867
1145.692835	469.216084
1147.789530	510.166434
1149.885726	584.472028
1151.981425	696.201399
1154.076625	811.597902
1156.169429	905.125175
1158.263636	971.192308
1160.351651	996.940559
1162.444864	967.948951
1164.531889	911.555944
1166.622213	811.897902
1168.708250	695.635664
1170.797584	581.795804
1172.880737	496.032867
1174.965292	445.722378
1177.051249	434.646853
1179.132924	428.383217
1181.216001	426.411888
1183.296692	425.512587
1185.376891	422.075524
1187.456599	417.172028
1189.535816	414.006294
1191.612651	408.134266
1193.687105	409.737063
1195.764850	410.069231
1197.838326	411.713986
1199.913202	406.484615
1201.983811	410.983217
1204.055821	410.736364
1206.125456	407.482517
1208.196491	405.151049
1210.267038	406.972028
1212.333324	406.842657
1214.401011	411.082517
1216.466326	410.329371
1218.533041	420.376923
1220.595500	428.306294
1222.661244	431.348951
1224.722734	437.672028
1226.785625	444.071329
1228.846148	445.132867
1230.906187	440.762238
1232.965744	441.954545
1235.022935	436.752448
1237.079645	427.976224
1239.133991	421.055944
1241.191619	412.090909
1243.246884	411.230070
1245.297908	402.420280
1247.350332	401.425874
1249.402276	404.051748
1251.451862	403.701399
1253.500969	405.363636
1255.549598	405.051049
1257.597748	407.975524
1259.645419	403.530070
1261.688860	401.852448
1263.735577	400.398601
1265.779940	399.965035
1267.823827	398.197203
1269.865362	395.434965
1271.904548	399.054545
1273.947007	397.758741
1275.985243	398.132168
1278.024878	398.690210
1280.064038	396.570629
1282.098979	392.678322
1284.135319	389.122378
1286.169315	383.534266
1288.204708	383.508392
1290.235889	383.072028
1292.268467	381.767133
1294.300574	380.740559
1296.330340	378.588811
1298.361504	374.484615
1300.388460	376.183916
1302.416814	376.551049
1304.440963	379.496503
1306.468378	376.980420
1308.491590	378.578322
1310.516200	379.338462
1312.538476	382.835664
1314.562149	382.591608
1316.583489	381.924476
1318.604361	381.234266
1320.624766	380.823077
1322.640978	380.004895
1324.658587	380.954545
1326.673868	379.948951
1328.692408	381.766434
1330.706759	381.622378
1332.718784	387.523776
1334.734066	387.351049
1336.745163	384.214685
1338.757657	385.078322
1340.765968	381.330769
1342.777534	378.857343
1344.783062	377.966434
1346.791845	377.005594
1348.796450	373.872028
1350.804309	372.817483
1352.811706	376.153147
1354.813072	382.006993
1356.815834	387.399301
1358.818137	381.981119
1360.819980	379.170629
1362.821363	378.516084
1364.820433	374.539161
1366.819044	373.118182
1368.817197	372.138462
1370.814891	370.809790
1372.808423	370.111189
1374.803351	371.213287
1376.797821	376.900699
1378.791835	376.639161
1380.783542	376.106993
1382.774794	372.915385
1384.763740	371.893007
1386.754081	372.557343
1388.743967	373.051748
1390.731549	369.351748
1392.718678	369.628671
1394.703505	363.739161
1396.689727	364.564336
1398.673649	366.279021
1400.657118	366.521678
1402.640134	362.861538
1404.620853	361.783217
1406.602966	359.055245
1408.582783	361.497902
1410.562148	364.420280
1412.537375	365.886713
1414.515840	367.941958
1416.492012	369.120280
1418.467735	366.217483
1420.443008	368.924476
1422.415990	369.581119
1424.388524	369.641958
1426.360610	371.098601
1428.332249	366.467832
1430.299759	363.208392
1432.272343	365.344755
1434.237122	366.741259
1436.206972	368.811189
1438.172699	366.957343
1440.139818	363.818182
1442.104654	365.255944
1444.065370	366.155944
1446.031154	368.351748
1447.990983	374.733566
1449.952206	377.318182
1451.914821	377.588811
1453.873321	375.705594
1455.831378	373.006294
1457.788994	375.088811
1459.746167	374.617483
1461.701065	367.143357
1463.657356	364.227273
1465.611372	362.351748
1467.564947	361.435664
1469.516250	360.789510
1471.468946	364.907692
1473.419369	362.833566
1475.369354	364.641958
1477.318900	362.467832
1479.266177	367.095105
1481.211186	368.909091
1483.157588	368.783217
1485.103552	363.159441
1487.049079	362.232168
1488.992340	362.634266
1490.935166	363.251049
1492.875728	360.892308
1494.817681	362.908392
1496.757372	362.605594
1498.696629	365.647552
1500.635450	370.172727
1502.572012	371.553846
1504.509965	366.016783
1506.445659	366.082517
1508.380920	366.331469
1510.313925	368.029371
1512.246497	365.630769
1514.178637	361.971329
1516.110345	355.298601
1518.039799	353.470629
1519.970644	352.235664
1521.901057	356.655944
1523.827398	360.581818
1525.755130	359.705594
1527.680611	359.412587
1529.605663	365.109091
1531.530286	371.125175
1533.454480	371.383916
1535.376426	369.488112
1537.299763	365.015385
1539.220853	360.465035
1541.139700	361.055944
1543.059935	359.818182
1544.977928	366.527273
1546.895494	367.118881
1548.810818	366.497203
1550.727532	367.651748
1552.640191	373.615385
1554.556054	372.980420
1556.469677	374.631469
1558.381062	376.508392
1560.293837	373.637063
1562.202562	370.395804
1564.112676	367.753147
1566.022367	361.546154
1567.931635	362.756643
1569.838669	360.504895
1571.743470	365.039161
1573.649660	370.033566
1575.553618	374.480420
1577.457155	372.793007
1579.360272	379.571329
1581.261159	381.636364
1583.163435	383.078322
1585.063483	382.829371
1586.964918	382.789510
1588.862320	377.862937
1590.759303	378.473427
1592.655868	378.833566
1594.553821	378.211189
1596.445939	370.803497
1598.341250	367.106993
1600.236144	366.390909
1602.128816	366.548951
1604.021071	366.571329
1605.911107	369.562238
1607.800727	374.000000
1609.689932	375.102098
1611.578722	372.639860
1613.465294	375.080420
1615.353254	375.037762
1617.237197	372.802098
1619.122527	371.654545
1621.007444	374.487413
1622.890147	372.748951
1624.774237	370.513287
1626.654315	369.916783
1628.535781	370.382517
1630.415036	370.208392
1632.295677	364.894406
1634.170514	360.642657
1636.050332	361.341259
1637.926146	358.565035
1639.801549	358.788112
1641.678338	360.232867
1643.549331	356.773427
1645.423505	353.191608
1647.293680	353.125175
1649.167037	354.516783
1651.038190	361.649650
1652.907141	363.462238
1654.777477	365.258042
1656.643821	362.474126
1658.511550	364.344056
1660.377080	362.572727
1662.243996	356.964336
1664.106923	356.172028
1665.971235	351.348252
1667.833351	346.767832
1669.695062	343.681119
1671.558159	340.767832
1673.419060	346.704895
1675.277769	346.365035
1677.136074	347.156643
1678.995764	341.958741
1680.849686	342.093706
1682.706782	338.167133
1684.563475	336.500699
1686.416191	337.955944
1688.272079	333.604196
1690.123993	332.386713
1691.975506	331.981119
1693.826618	332.468531
1695.677330	336.990210
1697.527641	337.157343
1699.375767	342.042657
1701.225278	340.440559
1703.069040	336.104196
1704.917751	335.065734
1706.760716	335.306993
1708.606848	329.132168
1710.449017	324.299301
1712.294352	325.492308
1714.133946	325.903497
1715.974924	329.153846
1717.817285	325.335664
1719.655690	326.049650
1721.495478	337.099301
1723.333091	332.883217
1725.170308	339.672028
1727.005352	338.455245
1728.841779	332.196503
1730.676034	330.017483
1732.509894	327.780420
1734.343360	326.103497
1736.172881	328.681818
1738.005560	326.728671
1739.834295	323.527972
1741.666187	324.464336
1743.494137	329.244755
1745.321696	324.069231
1747.148862	330.546154
1748.975637	323.662937
1750.802020	318.717483
1752.624467	320.681818
1754.450069	322.902797
1756.271736	326.344056
1758.094785	329.942657
1759.915672	326.379720
1761.736171	321.932867
1763.558051	313.164336
1765.374231	311.004196
1767.193563	304.879021
1769.008968	305.345455
1770.827523	308.951049
1772.642153	307.470629
1774.456396	308.390909
1776.270253	316.000000
1778.083723	316.871329
1779.895040	313.182517
1781.707737	311.290210
1783.520049	307.492308
1785.328443	304.918881
1787.138217	310.505594
1788.944077	308.579021
1790.753082	312.421678
1792.558174	320.994406
1794.364647	322.695804
1796.170736	323.260140
1797.972914	329.816084
1799.778237	324.802797
1801.579651	324.727273
1803.382445	327.304196
1805.181333	328.053846
1806.981602	327.024476
1808.781489	323.874825
1810.579234	315.580420
1812.376599	315.948252
1814.173584	315.393706
1815.970188	316.020979
1817.764653	314.169930
1819.560497	315.113287
1821.350686	308.651049
1823.145772	311.881119
1824.935206	311.565734
1826.727776	307.469930
1828.518211	304.797203
1830.306512	305.884615
1832.097948	304.978322
1833.883738	310.077622
1835.670908	312.234266
1837.455946	317.569930
1839.244118	318.684615
1841.028404	320.398601
1842.810560	320.307692
1844.594096	318.402098
1846.375503	313.348951
1848.158289	307.605594
1849.937194	306.793706
1851.717479	308.020280
1853.495637	307.634965
1855.275174	311.553846
1857.052586	313.291608
1858.827874	312.810490
1860.604540	315.472028
1862.379084	320.151748
1864.155006	323.095804
1865.925307	319.823077
1867.698736	320.793007
1869.470045	316.293706
1871.240983	312.438462
1873.013299	309.134965
1874.780001	307.275524
1876.549829	304.605594
1878.315793	298.931469
1880.084880	295.459441
1881.850106	297.493007
1883.614964	300.742657
1885.381199	299.418881
1887.143575	301.055944
1888.905584	303.739860
1890.667225	300.193007
1892.428500	303.769231
1894.189407	305.424476
1895.949948	308.085315
1897.708379	307.681818
1899.466444	303.272028
1901.222402	300.190210
1902.979736	300.762238
1904.736705	303.142657
1906.491567	299.337762
1908.244325	298.778322
1909.996718	296.500699
1911.750488	296.760140
1913.502154	297.483916
1915.251718	297.789510
1917.002657	297.820280
1918.753234	295.879021
1920.499971	293.493007
1922.248085	291.937063
1923.994099	290.472727
1925.741488	293.933566
1927.486780	292.054545
1929.229974	291.729371
1930.974543	292.230769
1932.717017	298.516783
1934.459130	294.426573
1936.200883	295.037063
1937.942276	296.314685
1939.681576	301.060140
1941.420517	303.034266
1943.159099	301.670629
1944.895590	299.074825
1946.631723	301.792308
1948.369230	301.288112
1950.102915	298.318881
1951.837975	297.178322
1953.570946	294.960140
1955.303561	289.836364
1957.035820	293.300000
1958.767722	297.567832
1960.497538	306.052448
1962.225269	309.343357
1963.954375	311.967832
1965.683126	314.609790
1967.409793	315.023077
1969.136106	313.621678
1970.863792	306.870629
1972.585942	300.346154
1974.311193	295.500000
1976.032637	296.569930
1977.757182	298.826573
1979.479646	298.211189
1981.198308	297.920979
1982.920068	300.288811
1984.638026	304.173427
1986.357357	306.779720
1988.072889	305.687413
1989.793241	307.576224
1991.509795	307.158741
1993.222552	307.213986
1994.938405	312.809790
1996.652186	311.160140
1998.365617	304.444056
2000.076977	301.250350
2001.789709	296.165035
2003.498651	295.547552
2005.210685	297.072727
2006.917211	297.386713
2008.626828	297.397902
2010.334379	301.661538
2012.041581	301.627972
2013.746718	301.518881
2015.451509	301.051049
2017.157671	294.010490
2018.860051	289.230769
2020.563802	285.034266
2022.265491	280.223776
2023.966835	279.244755
2025.667833	282.419580
2027.366770	282.779021
2029.067079	287.050350
2030.763613	290.541958
2032.461518	294.440559
2034.157364	297.041958
2035.856296	301.086014
2037.549742	301.460140
2039.244559	301.708392
2040.939034	299.204196
2042.629740	299.060140
2044.323530	297.382517
2046.013553	295.993007
2047.704947	295.953846
2049.394288	296.655245
2051.084999	293.550350
2052.771947	294.761538
2054.458556	289.151748
2056.146534	293.205594
2057.830753	291.447552
2059.516343	295.825874
2061.201593	297.892308
2062.884794	296.388112
2064.569366	294.839161
2066.248475	293.855944
2067.932369	290.516783
2069.610802	291.960839
2071.292313	289.489510
2072.970072	286.492308
2074.647495	283.107692
2076.326287	287.526573
2078.003037	285.305594
2079.677745	291.198601
2081.353822	291.096503
2083.027859	289.391608
2084.701560	288.523077
2086.374926	286.496503
2088.046253	281.462238
2089.717246	287.195105
2091.387905	281.993007
2093.058230	280.014685
2094.728221	277.186713
2096.396176	279.538462
2098.063798	274.949650
2099.729385	278.435664
2101.396341	276.754545
2103.061264	279.339860
2104.725855	281.296503
2106.388414	283.744056
2108.052341	283.509091
2109.714237	289.969930
2111.375803	290.376224
2113.037037	292.733566
2114.696243	291.465035
2116.355118	292.703497
2118.013664	288.670629
2119.671880	292.209091
2121.326372	289.777622
2122.983929	291.944056
2124.641157	290.077622
2126.294663	290.308392
2127.949537	288.422378
2129.600692	293.281119
2131.254910	290.769231
2132.905411	290.618182
2134.557278	288.505594
2136.203737	283.931469
2137.854951	284.228671
2139.502451	287.657343
2141.151318	285.810490
2142.798166	287.150350
2144.444689	285.597203
2146.090886	286.341958
2147.733375	284.169231
2149.378922	288.239860
2151.020762	287.118881
2152.665659	292.292308
2154.306850	290.135664
2155.947719	286.973427
2157.588263	286.951049
2159.226795	288.727972
2160.866693	287.597203
2162.502891	286.260839
2164.140455	282.500699
2165.777697	281.599301
2167.412929	278.168531
2169.047840	279.606993
2170.682428	280.287413
2172.316696	283.074126
2173.947270	280.555944
2175.580896	278.902797
2177.210830	278.119580
2178.842129	278.862937
2180.471423	279.109091
2182.100398	278.321678
2183.729053	276.772727
2185.357389	277.480420
2186.983723	278.238462
2188.609738	282.636364
2190.233751	285.727972
2191.859130	286.447552
2193.482508	284.471329
2195.107251	284.112587
2196.728313	280.805594
2198.349058	278.739161
2199.971168	278.164336
2201.591280	279.427273
2203.209395	275.437762
2204.827195	276.111888
2206.444680	273.847552
2208.061849	276.838462
2209.678703	273.298601
2211.295241	273.110490
2212.909787	268.673427
2214.522340	266.592308
2216.136257	263.451049
2217.748183	264.227273
2219.361472	269.835664
2220.972771	271.644056
2222.582080	268.253846
2224.192753	267.312587
2225.801437	262.555245
2227.409808	269.400699
2229.016193	266.930070
2230.623941	267.774825
2232.229702	262.141259
2233.835152	260.195105
2235.438617	255.492308
2237.043445	257.063636
2238.646289	260.809091
2240.247150	258.329371
2241.849374	257.248252
2243.449616	257.325175
2245.051220	257.957343
2246.649171	262.889510
2248.248485	260.991608
2249.845819	262.251748
2251.442845	261.031469
2253.041233	256.158042
2254.635972	250.078322
2256.228734	249.213986
2257.822859	251.405594
2259.418345	250.997203
2261.010186	251.144755
2262.601721	253.300699
2264.194618	253.934965
2265.782205	260.188811
2267.374488	259.027273
2268.961465	266.175524
2270.551469	262.760839
2272.136169	260.686014
2273.725563	257.451748
2275.309655	260.863636
2276.895107	263.047552
2278.478591	259.577622
2280.065100	253.865734
2281.647976	252.720979
2283.230549	250.781119
2284.812818	251.182517
2286.391457	248.848252
2287.973121	252.714685
2289.551156	252.883916
2291.132214	258.456643
2292.709645	256.756643
2294.285113	265.173427
2295.863603	267.634266
2297.438469	269.307692
2299.013034	264.874825
2300.587299	263.642657
2302.161263	252.802098
2303.734926	245.973427
2305.308290	244.434965
2306.878035	242.144056
2308.447481	239.067832
2310.019945	242.872028
2311.587135	242.214685
2313.157343	252.222378
2314.723936	259.820280
2316.291889	264.790909
2317.857886	266.751748
2319.423586	262.960140
2320.988988	252.969231
2322.552437	253.793706
2324.117245	255.621678
2325.678445	257.001399
2327.242659	252.921678
2328.801611	257.190210
2330.363578	257.881119
2331.923593	258.019580
2333.483314	255.838462
2335.041085	253.660140
2336.598561	251.076224
2338.155743	244.533566
2339.710977	244.769930
2341.265918	241.856643
2342.820564	240.016084
2344.374917	235.740559
2345.928977	226.789510
2347.482742	228.080420
2349.034564	232.483916
2350.584442	231.974825
2352.137328	231.155944
2353.684972	235.001399
2355.235623	239.420280
2356.782683	243.144056
2358.331101	250.348252
2359.879228	244.716084
2361.423766	249.555944
2362.969662	244.712587
2364.513620	238.686713
2366.058935	244.791608
2367.600665	244.053846
2369.143752	240.695105
2370.684903	238.150350
2372.225765	238.240559
2373.766338	240.308392
2375.306622	242.132867
2376.846617	246.661538
2378.383034	244.699301
2379.922452	250.000000
2381.458293	248.218182
2382.995490	243.855245
2384.529112	246.969930
2386.065734	244.770629
2387.600426	240.205594
2389.133188	239.390909
2390.665663	236.004895
2392.196210	235.813986
2393.729755	231.354545
2395.258089	232.834266
2396.787780	233.736364
2398.317184	233.041958
2399.846304	232.116783
2401.375139	228.910490
2402.898768	231.297902
2404.427033	232.583916
2405.950096	233.125175
2407.477792	234.079021
2408.998649	233.533566
2410.524139	231.644755
2412.046068	231.771329
2413.569353	235.765035
2415.090716	240.137063
2416.610160	236.266434
2418.130959	237.543357
2419.649840	240.079720
2421.168438	235.172727
2422.685119	235.787413
2424.203154	237.709790
2425.720908	236.369231
2427.235111	236.346853
2428.749033	231.227972
2430.262675	237.122378
2431.777672	235.802098
2433.289120	236.090909
2434.801923	230.059441
2436.312812	232.860140
2437.823423	233.216783
2439.332122	228.242657
2440.843807	232.553147
2442.351949	231.586014
2443.859813	234.172727
2445.367399	236.218182
2446.871444	234.079021
2448.378474	239.398601
2449.883597	233.793007
2451.388441	233.108392
2452.891379	230.583217
2454.394041	235.127273
2455.896426	232.881818
2457.396906	234.821678
2458.898739	231.501399
2460.398667	226.121678
2461.898320	224.968531
2463.397698	221.151748
2464.895173	217.192308
2466.390746	213.090909
2467.889299	207.381818
2469.384324	206.646853
2470.880701	201.314685
2472.373552	203.780420
2473.867756	206.358741
2475.361686	212.170629
2476.852092	209.627972
2478.345476	212.153147
2479.836962	213.023077
2481.326551	214.946154
2482.815868	219.358042
2484.303289	220.237762
2485.793686	219.560839
2487.280565	216.019580
2488.768795	217.889510
2490.253508	221.509790
2491.737952	221.610490
2493.223746	219.645455
2494.707649	218.223776
2496.192902	224.627972
2497.673022	223.807692
2499.156115	222.816084
2500.637317	224.211888
2502.118250	228.261538
2503.597294	226.699301
2505.076069	223.206993
2506.554576	226.572028
2508.032815	223.665734
2509.510785	214.716084
2510.985250	213.176224
2512.462685	212.947552
2513.936616	216.706993
2515.411897	218.367133
2516.886911	216.821678
2518.358425	216.490210
2519.831288	221.495105
2521.302269	220.288112
2522.774600	222.750350
2524.241817	227.294406
2525.712001	225.065035
2527.180304	217.006294
2528.648342	216.762937
2530.116115	212.195804
2531.583623	208.960140
2533.050866	211.069231
2534.514617	203.109790
2535.979718	202.958741
2537.442942	207.148951
2538.907516	208.306294
2540.368600	210.683916
2541.831034	211.106294
2543.293205	212.465734
2544.751890	216.313986
2546.215147	218.915385
2547.673307	219.444056
2549.132816	223.288112
2550.587231	223.440559
2552.046217	220.700000
2553.503331	223.694406
2554.958574	223.769231
2556.413555	220.343357
2557.866668	218.585315
2559.321129	216.728671
2560.773720	221.413986
2562.226052	223.011888
2563.676517	222.906294
2565.129937	226.057343
2566.578275	229.241259
2568.029569	226.886713
2569.478996	229.623776
2570.924951	231.393706
2572.373861	231.677622
2573.819301	231.069231
2575.266088	232.875524
2576.711013	229.221678
2578.155679	225.739161
2579.601693	220.182517
2581.044241	217.472028
2582.488136	218.294406
2583.928566	216.980420
2585.370343	212.016084
2586.810261	211.748252
2588.251526	207.847552
2589.689329	206.180420
2591.130082	205.669930
2592.565773	208.669231
2594.004413	206.903497
2595.441195	205.369231
2596.876122	210.914685
2598.313996	212.537063
2599.746813	214.588811
2601.180977	208.955245
2602.613287	208.193007
2604.046943	206.849650
2605.478746	204.688811
2606.910295	207.306993
2608.341592	206.710490
2609.771036	207.794406
2611.200228	206.788112
2612.627570	207.983217
2614.056257	213.766434
2615.484693	213.035664
2616.909681	211.816783
2618.336016	213.672028
2619.760502	219.134266
2621.186334	219.571329
2622.608722	220.857343
2624.032456	226.351748
2625.454343	224.180420
2626.875981	219.220979
2628.295773	215.319580
2629.716911	212.514685
2631.137799	211.247552
2632.555249	209.152448
2633.975638	202.283916
2635.392590	205.119580
2636.809293	204.065035
2638.225748	206.795105
2639.641955	209.125175
2641.057914	213.241259
2642.472032	211.146853
2643.885902	208.934266
2645.297934	211.565035
2646.711309	209.100699
2648.121255	212.165035
2649.534137	212.835664
2650.943590	211.195105
2652.352797	214.909790
2653.760168	210.649650
2655.170473	210.628671
2656.578943	208.522378
2657.985577	205.330070
2659.391966	201.948252
2660.796521	201.132867
2662.202420	199.110490
2663.606486	194.076224
2665.010307	193.752448
2666.413884	192.196503
2667.815630	194.817483
2669.218719	195.269231
2670.618390	188.309091
2672.019405	192.790210
2673.417004	198.435664
2674.817533	205.609091
2676.214646	205.327972
2677.613103	206.281119
2679.009733	203.441958
2680.406120	202.578322
2681.802265	201.576923
2683.196585	202.172727
2684.592246	202.039161
2685.984499	199.400000
2687.378094	196.513287
2688.769865	202.300000
2690.162979	206.063636
2691.554269	207.406294
2692.943736	203.146853
2694.332963	199.414685
2695.721951	196.896503
2697.112280	197.936364
2698.497626	196.271329
2699.885895	191.374126
2701.272344	185.760140
2702.658554	182.795105
2704.044525	181.013986
2705.427098	178.472028
2706.811013	181.548951
2708.194690	183.392308
2709.578128	190.407692
2710.958172	192.920280
2712.339556	195.607692
2713.719126	201.631469
2715.100036	198.368531
2716.479132	190.283217
2717.856414	188.374126
2719.235037	189.339161
2720.611847	186.662238
2721.988420	180.813287
2723.364758	185.004895
2724.739285	185.590210
2726.115152	188.944755
2727.487632	187.936364
2728.863028	190.809091
2730.233464	193.975524
2731.605241	187.780420
2732.976783	183.582517
2734.346517	189.286014
2735.717592	192.739860
2737.086858	191.412587
2738.455891	189.515385
2739.823118	193.759441
2741.190112	195.104196
2742.556872	196.965035
2743.923401	197.977622
2745.288124	197.960140
2746.652615	192.488112
2748.016875	191.097902
2749.380902	191.685315
2750.744698	189.331469
2752.105120	190.030769
2753.468452	186.581818
2754.826842	190.252448
2756.188142	192.209790
2757.546072	197.727273
2758.906910	198.975524
2760.265949	195.781818
2761.621619	191.985315
2762.980197	190.037762
2764.335408	186.257343
2765.690390	184.650350
2767.043576	180.729371
2768.399668	181.791608
2769.752395	182.832168
2771.104895	187.665035
2772.457166	189.866434
2773.810776	196.518881
2775.161024	199.219580
2776.509478	201.060140
2777.860838	198.476923
2779.208838	191.189510
2780.558176	179.439161
2781.905722	173.993007
2783.253042	168.655944
2784.600135	165.060839
2785.945437	162.474126
2787.290512	164.033566
2788.635362	165.569231
2789.979986	172.405594
2791.321258	178.554545
2792.663868	180.341958
2794.006252	180.032168
2795.348411	176.369930
2796.687221	169.867832
2798.028931	162.286713
2799.367293	161.177622
2800.706991	163.285315
2802.044905	159.872028
2803.381034	163.116084
2804.716939	166.473427
2806.054182	173.298601
2807.389641	174.518881
2808.724877	179.971329
2810.058330	181.678322
2811.393120	182.707692
2812.724570	179.480420
2814.058915	179.157343
2815.388362	180.921678
2816.719146	182.604196
2818.049708	176.416084
2819.378491	175.605594
2820.708610	176.155944
2822.036951	168.416084
2823.365071	164.907692
2824.691413	165.181818
2826.019092	160.774825
2827.343437	167.598601
2828.669119	165.413287
2829.993025	167.933566
2831.316712	164.211888
2832.641734	163.699301
2833.963426	159.087413
2835.284900	161.513287
2836.606155	163.074126
2837.927191	160.748252
2839.246454	164.988112
2840.567053	167.565035
2841.885881	174.141259
2843.204490	181.659441
2844.521328	175.860140
2845.837949	176.091608
2847.154353	171.700699
2848.468987	173.419580
2849.784957	169.474825
2851.097606	169.380420
2852.411590	167.367832
2853.725358	165.164336
2855.038909	168.287413
2856.350694	166.676923
2857.660712	164.792308
2858.972065	169.406294
2860.280103	171.407692
2861.589475	176.666434
2862.898633	178.601399
2864.207575	181.129371
2865.514753	180.163636
2866.820169	181.348951
2868.126919	178.441259
2869.431906	177.369231
2870.736680	175.878322
2872.039692	170.602797
2873.345585	167.467133
2874.646624	172.244056
2875.948997	174.809091
2877.249610	175.637762
2878.551557	174.731469
2879.853290	175.288112
2881.151720	178.311888
2882.451483	177.741259
2883.749489	178.790909
2885.047283	183.258741
2886.343321	186.869930
2887.640692	192.815385
2888.936307	190.757343
2890.231711	188.156643
2891.526904	186.795105
2892.818800	182.170629
2894.113572	176.301399
2895.405047	173.620280
2896.697855	164.373427
2897.990453	159.958042
2899.279757	160.277622
2900.570393	165.453846
2901.859278	169.881119
2903.149495	176.070629
2904.436421	179.501399
2905.724679	180.883916
2907.011188	179.648252
2908.297489	175.351748
2909.583581	172.422378
2910.867925	169.945455
2912.155140	159.818881
2913.437529	157.015385
2914.721250	152.714685
2916.003225	151.627273
2917.284992	149.319580
2918.565015	152.453147
2919.847907	158.781119
2921.129054	159.402098
2922.406919	159.713986
2923.687653	156.825175
2924.965106	153.244755
2926.242353	153.865035
2927.517858	152.433566
2928.796231	152.204895
2930.069790	149.383217
2931.346216	147.377622
2932.620901	145.380420
2933.893845	149.467133
2935.168121	154.886713
2936.440657	156.489510
2937.712988	156.551049
2938.982047	156.396503
2940.253971	157.739860
2941.524157	158.317483
2942.794139	157.152448
2944.063918	153.869930
2945.331961	149.943357
2946.598267	151.283916
2947.864372	146.802797
2949.131806	148.724476
2950.397506	146.663636
2951.663003	147.063636
2952.928298	142.905594
2954.190328	146.556643
2955.453688	149.083916
2956.716847	149.943357
2957.978274	147.018881
2959.241030	144.952448
2960.502054	144.414685
2961.761348	148.988811
2963.020442	148.054545
2964.279335	147.497902
2965.538028	148.097902
2966.796521	149.996503
2968.053285	146.834965
2969.309849	150.671329
2970.564686	155.406294
2971.820851	153.068531
2973.073762	148.021678
2974.328002	148.020979
2975.582043	146.211189
2976.834358	147.513986
2978.086474	145.627273
2979.336866	148.032867
2980.590113	149.544755
2981.838583	147.045455
2983.089908	147.425874
2984.337983	149.025175
2985.585862	148.024476
2986.833543	145.229371
2988.081027	144.886713
2989.326790	146.652448
2990.572357	146.271329
2991.819251	145.425874
2993.062901	146.362238
2994.307879	146.355944
2995.549613	141.646154
2996.794199	140.608392
2998.037066	142.076923
2999.276692	143.724476
3000.519168	139.711189
3001.758404	141.954545
3002.998968	140.090909
3004.237816	143.346853
3005.476468	142.961538
3006.713406	141.553147
3007.951670	137.534266
3009.188219	133.444755
3010.424575	132.507692
3011.660737	134.522378
3012.895185	137.437762
3014.129441	141.487413
3015.363503	141.620979
3016.595853	143.744056
3017.826491	146.647552
3019.059975	152.369930
3020.291747	153.877622
3021.521809	156.104196
3022.751679	156.838462
3023.979839	158.537063
3025.209325	156.943357
3026.437102	153.288112
3027.664688	152.597902
3028.893601	151.873427
3030.117771	150.472727
3031.344784	148.231469
3032.568573	148.360839
3033.793689	148.088811
3035.017098	145.987413
3036.240317	143.302797
3037.461831	142.202098
3038.686186	140.877622
3039.905806	138.227972
3041.126752	136.783916
3042.347509	140.216084
3043.566562	139.843357
3044.786940	144.835664
3046.004102	147.105594
3047.222590	146.525175
3048.439375	146.293007
3049.655973	140.542657
3050.872382	140.446853
3052.085579	143.460140
3053.301613	143.102797
3054.514435	143.860839
3055.730094	144.490909
3056.941030	144.064336
3058.153291	146.383217
3059.365366	149.743357
3060.577253	147.609091
3061.787444	142.824476
3062.997448	142.151049
3064.207266	141.342657
3065.415388	148.594406
3066.623325	147.530769
3067.829566	146.220280
3069.037132	146.276923
3070.243003	141.611888
3071.448690	141.665734
3072.654191	142.596503
3073.857999	137.653846
3075.063131	136.048252
3076.266570	133.105594
3077.468318	134.207692
3078.669881	133.302797
3079.871261	133.651049
3081.072457	132.572028
3082.271963	136.861538
3083.471286	137.045455
3084.671932	137.252448
3085.870888	140.409091
3087.066650	141.010490
3088.265241	141.046853
3089.460638	143.078322
3090.657358	138.550350
3091.850886	132.931469
3093.047242	128.688112
3094.241912	128.013986
3095.433391	127.670629
3096.629201	131.575524
3097.820318	132.000000
3099.012757	133.113287
3100.202009	136.741958
3101.394086	137.820979
3102.584480	139.055245
3103.771688	142.437063
3104.960219	138.451049
3106.150071	133.802797
3107.336740	133.713287
3108.523228	132.807692
3109.709538	131.332867
3110.897169	129.020280
3112.081618	128.202098
3113.264388	127.946853
3114.449980	129.899301
3115.633893	127.484615
3116.816127	130.151049
3117.998182	134.439860
3119.180059	130.991608
3120.361758	130.495804
3121.541780	130.599301
3122.720125	133.418881
3123.901290	131.937063
3125.079280	131.014685
3126.257094	131.676923
3127.434730	132.310490
3128.610691	132.747552
3129.786475	131.527273
3130.963581	134.810490
3132.139012	137.383916
3133.312770	135.246853
3134.484855	135.482517
3135.658262	131.562238
3136.831492	128.253846
3138.003051	120.886713
3139.175930	120.925874
3140.345642	119.962937
3141.516675	125.067133
3142.686038	129.390210
3143.853730	132.943357
3145.024238	134.781119
3146.190088	138.325175
3147.360246	138.788811
3148.525748	136.480420
3149.691075	128.263636
3150.856229	124.344056
3152.021210	123.508392
3153.187510	127.577622
3154.349158	125.650350
3155.512125	125.426573
3156.674920	122.610490
3157.837542	120.583217
3158.998499	117.305594
3160.159283	119.941958
3161.319895	119.809091
3162.478843	118.664336
3163.637620	116.695105
3164.796225	118.861538
3165.954657	120.690909
3167.112919	120.499301
3168.269518	114.721678
3169.424456	111.650350
3170.580713	109.933566
3171.735309	110.951748
3172.889735	112.027273
3174.042501	113.795804
3175.195096	117.317483
3176.347522	119.820979
3177.499778	121.054545
3178.651863	119.669231
3179.800803	121.563636
3180.952549	123.551748
3182.102637	121.404895
3183.251069	122.158042
3184.399331	121.614685
3185.547425	122.560839
3186.695350	120.269231
3187.841619	118.515385
3188.987720	119.638462
3190.132167	118.286014
3191.276446	117.040559
3192.420557	114.012587
3193.565985	118.205594
3194.708275	124.156643
3195.850398	125.748951
3196.992353	131.155944
3198.134141	131.073427
3199.275762	133.017483
3200.414248	129.628671
3201.554051	128.153147
3202.695172	124.766434
3203.833158	123.541958
3204.969495	117.765035
3206.105666	115.537762
3207.243154	117.455944
3208.378994	120.039161
3209.516151	121.043357
3210.648695	122.922378
3211.785521	121.887413
3212.917735	120.619580
3214.051266	114.960140
3215.184633	113.763636
3216.314872	110.541958
3217.447909	109.712587
3218.577820	106.355944
3219.709047	107.083916
3220.837150	106.453846
3221.968049	106.239860
3223.097304	107.470629
3224.224916	107.567832
3225.349405	111.549650
3226.478170	113.601399
3227.603813	113.023077
3228.729294	114.795804
3229.853133	111.560140
3230.979766	110.788112
3232.101802	109.992308
3233.225154	106.918881
3234.348344	106.733566
3235.471372	103.597902
3236.592760	104.789510
3237.713986	107.413986
3238.833575	111.991608
3239.953002	113.179720
3241.070791	115.045455
3242.191372	113.826573
3243.308840	113.249650
3244.426147	112.737762
3245.543294	112.615385
3246.658805	113.683916
3247.775630	115.726573
3248.889346	116.561538
3250.005851	122.206294
3251.120722	123.722378
3252.232484	116.130769
3253.344086	114.758042
3254.457004	114.698601
3255.569762	108.430769
3256.679414	108.288811
3257.790381	108.824476
3258.901189	111.471329
3260.010365	111.316084
3261.117911	111.119580
3262.226770	110.684615
3263.335472	105.934965
3264.441071	102.083916
3265.547984	96.624476
3266.653268	102.436364
3267.759866	99.244755
3268.863364	100.695105
3269.968177	106.913287
3271.072832	109.470629
3272.174388	111.464336
3273.275788	115.579720
3274.378502	116.803497
3275.481060	117.179021
3276.580521	116.844755
3277.682766	119.525175
3278.781915	121.060140
3279.879440	125.578322
3280.976809	124.389510
3282.076960	127.910490
3283.174019	123.507692
3284.270922	116.016084
3285.367670	112.124476
3286.459860	109.148951
3287.556298	104.016084
3288.651114	100.491608
3289.745776	97.559441
3290.838816	96.821678
3291.931701	95.770629
3293.022967	97.786713
3294.115544	101.097902
3295.206502	102.355944
3296.295840	101.437762
3297.385025	100.620280
3298.475523	104.241958
3299.562936	106.125874
3300.650196	104.181119
3301.738769	104.411189
3302.827190	104.113287
3303.911063	105.291608
3304.999178	100.218182
3306.084211	98.302098
3307.167629	97.933566
3308.252359	95.281119
3309.335473	95.910490
3310.419900	99.294406
3311.501248	104.906294
3312.583908	104.456643
3313.664954	104.609091
3314.745849	104.899301
3315.825130	104.616084
3316.904261	103.957343
3317.984704	102.266434
3319.062072	104.473427
3320.140752	106.195105
3321.217820	105.267832
3322.294739	103.439860
3323.370046	106.993007
3324.445204	104.121678
3325.521673	102.927273
3326.595072	105.405594
3327.668322	106.618182
3328.742882	107.478322
3329.815834	107.393007
3330.887177	107.482517
3331.959831	108.636364
3333.029419	110.429371
3334.100317	106.955245
3335.169608	105.655944
3336.240210	108.472028
3337.309205	104.937063
3338.376594	106.485315
3339.442378	106.605594
3340.512388	105.963636
3341.579335	100.323776
3342.643220	101.513287
3343.709873	97.657343
3344.774921	93.279720
3345.838366	92.749650
3346.901665	92.294406
3347.964817	96.322378
3349.027823	97.000699
3350.090683	95.872727
3351.151941	98.595804
3352.210142	99.988811
3353.272563	98.027972
3354.331929	100.254545
3355.391149	102.580420
3356.451679	100.050350
3357.507699	97.408392
3358.566483	98.576224
3359.620760	99.553147
3360.677801	101.208392
3361.733243	103.076923
3362.789995	101.660839
3363.845148	102.202797
3364.898704	102.021678
3365.950664	98.669930
3367.005385	96.711888
3368.057057	92.929371
3369.108586	92.651748
3370.161423	95.841259
3371.211213	99.472028
3372.262312	99.988112
3373.310365	103.181119
3374.361177	104.515385
3375.408945	103.589510
3376.456570	103.790210
3377.504052	104.128671
3378.549942	102.051748
3379.597140	99.844755
3380.641296	98.370629
3381.688210	98.984615
3382.733532	101.369930
3383.775813	99.213986
3384.817954	96.198601
3385.861402	95.436364
3386.904709	92.495105
3387.946427	93.590909
3388.988003	91.676224
3390.029438	89.247552
3391.069285	90.664336
3392.107543	91.979021
3393.147109	94.774126
3394.186535	96.760839
3395.224373	97.386713
3396.260624	97.335664
3397.296736	97.009790
3398.334155	99.330070
3399.368541	98.371329
3400.404234	100.795105
3401.439788	99.410490
3402.472311	99.437762
3403.507587	101.925874
3404.539832	98.843357
3405.571939	98.369930
3406.602462	92.380420
3407.634292	90.093706
3408.665984	87.301399
3409.694648	84.853147
3410.723175	86.769930
3411.753008	84.035664
3412.782704	81.544056
3413.809374	84.453846
3414.837351	86.423077
3415.862303	90.400699
3416.890005	90.598601
3417.914684	95.744755
3418.940669	97.838462
3419.965074	104.131469
3420.989343	105.109790
3422.012033	106.165734
3423.034587	103.739161
3424.058447	99.523776
3425.079287	91.148951
3426.099991	87.304795
3427.122002	84.323427
3428.140994	82.462537
3429.159850	81.979820
3430.180013	83.132967
3431.197159	86.179670
