-116.521679	1.000000
-113.852079	9.600000
-111.185414	6.600000
-108.519501	18.000000
-105.856521	20.400000
-103.192110	10.400000
-100.530630	-5.600000
-97.867721	7.800000
-95.209918	-5.400000
-92.550686	11.600000
-89.892202	13.200000
-87.236643	-6.000000
-84.579654	2.800000
-81.927764	17.200000
-79.274444	0.600000
-76.624043	-4.000000
-73.972214	-5.400000
-71.325474	15.400000
-68.677306	27.000000
-66.029880	-13.600000
-63.385369	2.200000
-60.739428	14.800000
-58.098569	34.600000
-55.456281	4.600000
-52.816902	3.200000
-50.176093	1.600000
-47.536025	7.600000
-44.901030	20.800000
-42.264605	19.600000
-39.631083	-8.800000
-36.996133	23.400000
-34.366248	12.200000
-31.732771	9.800000
-29.104356	6.000000
-26.476675	12.400000
-23.847565	-16.200000
-21.223512	3.400000
-18.595870	0.600000
-15.973281	28.600000
-13.351424	51.800000
-10.730297	91.400000
-8.109901	102.400000
-5.492392	448.000000
-2.873455	1426.800000
-0.257403	3231.800000
2.357920	3579.000000
4.972515	2330.000000
7.584229	319.200000
10.197371	40.200000
12.805479	16.200000
15.417169	20.800000
18.023828	23.800000
20.631915	32.200000
23.239278	5.200000
25.841616	23.800000
28.447532	-15.600000
31.048426	-9.400000
33.650748	6.200000
36.248053	25.800000
38.848933	-12.800000
41.444798	8.400000
44.042092	-5.000000
46.638666	48.800000
49.230231	2.800000
51.823224	12.200000
54.413356	26.000000
57.004915	13.000000
59.593616	-4.400000
62.183743	2.000000
64.768871	-15.600000
67.355427	12.800000
69.941269	4.800000
72.524257	36.000000
75.108671	-18.200000
77.685957	-5.200000
80.266809	-16.600000
82.844812	14.000000
85.422105	-4.800000
88.000824	-2.200000
90.574561	-17.400000
93.149726	7.000000
95.722047	0.400000
98.293660	5.800000
100.862433	1.000000
103.432633	10.400000
105.999994	2.600000
108.568782	-0.400000
111.134733	3.800000
113.697849	-7.800000
116.264521	-19.600000
118.821972	28.800000
121.385108	14.800000
123.943284	8.400000
126.505015	11.000000
129.061789	30.400000
131.619989	33.200000
134.173237	42.800000
136.725787	58.800000
139.281887	115.000000
141.833039	118.200000
144.383494	186.800000
146.933251	184.800000
149.480189	179.800000
152.026432	179.200000
154.574100	196.400000
157.121072	201.800000
159.663109	210.400000
162.204452	202.600000
164.745102	195.400000
167.287178	145.200000
169.826442	197.600000
172.362898	186.200000
174.898662	211.400000
177.435852	206.400000
179.972351	194.000000
182.506044	174.000000
185.036933	193.600000
187.567134	190.200000
190.098761	187.800000
192.627586	180.600000
195.153612	173.400000
197.678952	200.800000
200.205717	182.400000
202.729686	167.600000
205.252970	204.400000
207.775569	228.600000
210.295375	163.200000
212.814497	179.800000
215.332938	201.200000
217.852802	188.800000
220.365665	224.400000
222.882059	198.200000
225.397771	182.600000
227.908593	165.800000
230.420840	193.000000
232.930305	186.200000
235.439090	207.800000
237.947198	202.000000
240.456730	230.400000
242.961381	212.000000
245.465356	219.000000
247.970755	198.800000
250.471279	190.400000
252.975326	219.600000
255.472403	214.600000
257.973003	192.800000
260.470831	181.200000
262.967986	194.800000
265.464468	219.600000
267.956087	214.000000
270.451226	219.000000
272.943598	185.400000
275.435300	167.400000
277.924239	199.200000
280.414601	221.800000
282.902202	193.600000
285.387043	223.600000
287.875399	221.800000
290.356815	213.200000
292.841745	206.000000
295.321830	213.000000
297.805427	188.400000
300.284181	215.400000
302.764358	232.600000
305.241784	209.200000
307.718546	197.600000
310.194644	242.200000
312.667995	215.000000
315.140683	246.000000
317.612710	255.600000
320.084076	258.400000
322.552697	277.400000
325.020660	265.800000
327.490044	262.800000
329.954606	250.200000
332.422672	231.200000
334.885918	244.800000
337.348506	216.400000
339.810438	242.800000
342.271713	209.800000
344.730254	218.000000
347.190217	180.600000
349.647447	232.400000
352.104023	213.000000
354.559945	223.000000
357.013137	268.600000
359.467752	236.400000
361.917565	214.400000
364.370874	228.800000
366.819384	187.600000
369.267244	224.400000
371.716526	232.000000
374.161014	211.400000
376.606924	244.400000
379.052184	202.200000
381.494726	228.600000
383.936620	222.000000
386.377867	246.400000
388.816398	249.600000
391.256350	245.200000
393.693590	224.400000
396.128117	220.400000
398.566132	250.000000
400.999370	239.200000
403.434029	221.400000
405.863916	210.000000
408.297288	247.200000
410.725890	248.800000
413.153850	216.200000
415.583232	238.800000
418.007848	222.600000
420.433886	220.200000
422.859283	214.000000
425.284040	225.000000
427.704039	235.000000
430.125458	222.200000
432.544182	215.400000
434.964326	207.800000
437.381775	264.400000
439.800644	227.600000
442.216820	255.800000
444.628248	229.000000
447.043153	238.400000
449.455369	248.600000
451.866950	259.600000
454.277897	205.000000
456.686158	238.600000
459.093786	220.200000
461.500782	232.800000
463.907147	225.600000
466.310829	239.800000
468.713881	202.200000
471.116303	224.600000
473.518095	226.200000
475.917209	241.200000
478.317743	226.200000
480.717648	257.600000
483.112831	206.800000
485.511480	249.600000
487.905408	215.000000
490.298711	223.000000
492.691389	220.400000
495.083441	266.400000
497.476911	204.000000
499.865669	215.600000
502.251761	201.000000
504.639273	203.400000
507.026162	188.800000
509.410387	182.400000
511.796030	205.600000
514.179012	175.000000
516.559333	162.400000
518.941073	152.000000
521.320154	150.800000
523.700654	186.600000
526.078496	160.200000
528.453682	168.600000
530.828252	156.200000
533.204239	155.000000
535.577574	137.800000
537.952326	161.800000
540.322393	157.600000
542.691844	148.600000
545.062713	148.600000
547.428901	173.800000
549.796508	165.600000
552.161470	186.400000
554.525818	160.000000
556.889553	158.200000
559.254706	167.400000
561.615187	168.600000
563.977086	124.000000
566.336344	167.000000
568.692964	165.400000
571.053030	163.200000
573.406404	154.400000
575.763223	127.800000
578.117407	143.600000
580.470982	143.800000
582.823950	141.400000
585.174285	136.800000
587.526038	157.400000
589.871114	136.000000
592.221653	132.800000
594.565520	175.200000
596.914848	169.400000
599.259527	157.800000
601.601582	142.400000
603.945054	168.600000
606.285903	131.600000
608.626149	157.000000
610.963776	160.400000
613.304837	155.400000
615.641260	146.800000
617.979100	135.600000
620.314323	125.800000
622.646930	138.800000
624.980953	155.600000
627.312362	140.800000
629.643173	135.800000
631.973387	143.800000
634.303002	155.400000
636.627994	167.200000
638.958428	123.800000
641.284241	127.400000
643.607446	140.600000
645.932068	151.800000
648.254084	155.600000
650.575506	127.000000
652.894326	109.800000
655.214561	150.800000
657.534203	159.200000
659.851244	145.800000
662.167693	144.000000
664.481544	157.400000
666.796811	137.600000
669.109481	167.600000
671.423566	147.400000
673.733051	162.000000
676.043952	128.600000
678.352260	151.800000
680.659980	135.600000
682.969114	131.000000
685.273656	145.600000
687.577612	144.600000
689.880982	132.200000
692.185766	156.800000
694.485963	126.800000
696.787576	169.600000
699.088603	160.400000
701.385049	134.800000
703.682910	163.800000
705.980187	151.200000
708.276881	142.400000
710.568999	136.000000
712.864528	138.600000
715.155483	138.600000
717.447853	124.400000
719.737648	145.600000
722.026862	157.400000
724.315497	141.600000
726.601559	123.200000
728.889036	174.000000
731.173941	141.000000
733.458269	158.400000
735.740028	140.400000
738.023201	170.200000
740.305797	139.400000
742.583837	150.800000
744.863292	136.000000
747.142170	155.800000
749.420474	153.800000
751.694228	167.200000
753.969395	116.400000
756.243989	161.600000
758.516024	143.000000
760.789472	133.800000
763.060362	138.000000
765.328696	150.600000
767.598443	141.000000
769.865636	155.000000
772.132258	140.600000
774.398310	147.200000
776.661811	161.400000
778.926725	191.800000
781.191069	143.200000
783.450884	144.000000
785.712111	139.800000
787.972771	159.200000
790.230885	179.600000
792.486454	138.400000
794.745414	143.200000
796.997874	167.600000
799.255702	144.400000
801.509011	135.600000
803.759780	148.800000
806.011961	154.200000
808.261603	144.000000
810.512658	161.400000
812.759201	151.400000
815.007156	152.800000
817.252577	136.600000
819.499409	149.000000
821.745680	134.200000
823.987446	151.400000
826.232596	143.000000
828.471273	166.800000
830.713332	141.400000
832.950893	139.400000
835.189866	164.200000
837.426312	159.200000
839.664169	147.800000
841.899501	139.800000
844.132310	132.200000
846.366530	136.800000
848.598227	121.000000
850.829370	140.800000
853.059958	127.000000
855.289992	126.600000
857.519472	148.200000
859.744470	133.400000
861.972843	156.600000
864.196736	155.200000
866.422041	150.200000
868.642870	146.400000
870.867071	147.200000
873.086799	135.200000
875.307937	133.800000
877.528525	147.400000
879.746604	153.800000
881.966092	141.600000
884.181114	151.200000
886.395588	162.200000
888.609515	149.400000
890.822895	154.000000
893.035727	154.400000
895.248013	128.200000
897.457796	129.000000
899.667034	164.600000
901.875727	134.400000
904.081920	153.200000
906.289524	162.400000
908.494629	148.800000
910.699191	164.600000
912.901258	163.800000
915.104734	139.800000
917.305716	141.800000
919.506156	143.000000
921.708005	154.600000
923.903463	146.800000
926.102280	174.200000
928.296658	151.200000
930.494394	145.000000
932.687694	168.400000
934.882403	136.400000
937.074626	144.000000
939.266310	146.000000
941.457457	163.200000
943.646121	153.200000
945.834249	166.000000
948.019896	162.200000
950.208895	149.600000
952.393471	162.600000
954.577512	166.400000
956.764903	138.800000
958.943990	147.600000
961.126428	159.000000
963.308332	173.600000
965.487761	176.400000
967.664718	162.600000
969.843083	170.800000
972.022855	187.600000
974.196278	166.800000
976.373047	164.000000
978.545409	155.800000
980.719179	166.000000
982.888545	173.200000
985.061255	191.600000
987.231500	201.600000
989.401215	154.600000
991.570403	176.800000
993.735193	173.400000
995.903324	219.000000
998.067060	172.600000
1000.232204	186.600000
1002.394888	173.200000
1004.557047	174.800000
1006.716749	177.200000
1008.875926	212.600000
1011.036510	172.600000
1013.194639	190.000000
1015.352245	167.400000
1017.509327	209.600000
1019.665885	159.000000
1021.818064	185.400000
1023.971650	192.600000
1026.124714	196.600000
1028.275329	188.200000
1030.427351	188.000000
1032.574999	170.400000
1034.725979	164.400000
1036.872588	173.200000
1039.018678	207.600000
1041.164250	199.600000
1043.311227	189.600000
1045.451915	202.400000
1047.595933	191.600000
1049.737510	212.000000
1051.878571	199.400000
1054.021036	195.600000
1056.157221	205.000000
1058.296733	176.000000
1060.431890	214.400000
1062.570371	197.800000
1064.704498	182.600000
1066.838112	208.400000
1068.973130	184.800000
1071.103800	190.800000
1073.235874	214.000000
1075.365519	201.800000
1077.494652	201.400000
1079.623273	216.800000
1081.751383	197.400000
1083.877067	203.800000
1086.002241	200.400000
1088.128819	182.200000
1090.251059	209.600000
1092.374704	172.600000
1094.494014	181.200000
1096.618553	170.200000
1098.736848	188.600000
1100.856547	179.400000
1102.973827	199.400000
1105.090600	197.600000
1107.206868	201.200000
1109.320719	201.800000
1111.435975	204.600000
1113.546907	165.400000
1115.661152	198.600000
1117.771076	172.000000
1119.882404	188.000000
1121.993227	180.000000
1124.099734	175.400000
1126.209550	175.400000
1128.315053	177.200000
1130.421958	172.200000
1132.522648	170.400000
1134.628550	175.400000
1136.730143	171.400000
1138.833139	183.200000
1140.935634	181.400000
1143.031922	162.000000
1145.133417	179.600000
1147.230610	165.200000
1149.327305	186.000000
1151.423501	160.000000
1153.519199	180.200000
1155.614400	167.800000
1157.707204	176.200000
1159.801410	202.400000
1161.889425	193.200000
1163.982639	171.600000
1166.069664	172.200000
1168.159988	166.800000
1170.246024	183.800000
1172.335359	160.800000
1174.418512	183.600000
1176.503067	149.400000
1178.589024	192.200000
1180.670699	171.600000
1182.753775	157.200000
1184.834466	197.000000
1186.914666	180.800000
1188.994374	168.400000
1191.073591	167.200000
1193.150426	157.200000
1195.224879	187.200000
1197.302625	181.400000
1199.376101	188.600000
1201.450977	168.000000
1203.521586	179.000000
1205.593596	192.400000
1207.663231	183.800000
1209.734265	151.200000
1211.804813	180.200000
1213.871099	171.000000
1215.938786	178.600000
1218.004101	183.200000
1220.070816	155.600000
1222.133275	169.800000
1224.199019	190.600000
1226.260509	165.800000
1228.323400	177.000000
1230.383923	145.000000
1232.443962	167.600000
1234.503518	136.200000
1236.560710	155.000000
1238.617420	154.600000
1240.671766	177.200000
1242.729394	183.600000
1244.784659	170.600000
1246.835683	169.400000
1248.888107	183.600000
1250.940051	165.200000
1252.989637	173.800000
1255.038744	157.600000
1257.087372	177.000000
1259.135522	168.200000
1261.183194	191.000000
1263.226635	169.600000
1265.273352	175.000000
1267.317715	195.400000
1269.361602	198.200000
1271.403137	184.000000
1273.442323	174.800000
1275.484782	184.600000
1277.523018	167.800000
1279.562653	163.000000
1281.601813	193.600000
1283.636754	178.400000
1285.673094	188.600000
1287.707090	170.800000
1289.742483	168.000000
1291.773664	181.600000
1293.806242	199.600000
1295.838349	228.800000
1297.868115	213.200000
1299.899278	176.200000
1301.926235	209.800000
1303.954589	190.600000
1305.978738	211.000000
1308.006153	206.000000
1310.029365	196.000000
1312.053975	209.000000
1314.076251	229.800000
1316.099924	198.400000
1318.121263	233.800000
1320.142136	217.800000
1322.162541	209.400000
1324.178753	258.000000
1326.196362	230.600000
1328.211643	238.400000
1330.230183	219.200000
1332.244534	254.600000
1334.256558	230.000000
1336.271841	246.800000
1338.282938	252.800000
1340.295432	227.400000
1342.303743	247.200000
1344.315309	237.200000
1346.320837	221.000000
1348.329620	210.000000
1350.334225	226.400000
1352.342084	210.800000
1354.349481	235.400000
1356.350847	205.000000
1358.353609	226.200000
1360.355912	195.400000
1362.357755	200.800000
1364.359138	202.600000
1366.358208	192.200000
1368.356819	194.400000
1370.354971	197.600000
1372.352666	191.200000
1374.346198	188.400000
1376.341125	198.600000
1378.335596	190.800000
1380.329610	169.800000
1382.321317	199.800000
1384.312568	193.600000
1386.301514	153.600000
1388.291856	180.600000
1390.281742	183.600000
1392.269324	190.200000
1394.256453	212.000000
1396.241280	175.600000
1398.227502	185.000000
1400.211423	190.000000
1402.194892	187.000000
1404.177909	155.800000
1406.158628	178.200000
1408.140741	158.200000
1410.120558	188.000000
1412.099923	187.800000
1414.075150	177.800000
1416.053615	162.000000
1418.029787	173.200000
1420.005509	174.400000
1421.980783	213.200000
1423.953765	176.800000
1425.926299	153.600000
1427.898385	162.200000
1429.870024	205.000000
1431.837534	174.600000
1433.810118	156.400000
1435.774896	166.400000
1437.744747	179.000000
1439.710474	163.800000
1441.677593	187.600000
1443.642429	179.400000
1445.603145	186.200000
1447.568929	173.000000
1449.528758	167.800000
1451.489981	194.200000
1453.452595	194.200000
1455.411095	197.000000
1457.369153	200.800000
1459.326769	207.800000
1461.283942	184.600000
1463.238840	199.600000
1465.195131	209.200000
1467.149147	181.000000
1469.102722	198.000000
1471.054025	200.000000
1473.006721	215.000000
1474.957144	179.600000
1476.907129	225.800000
1478.856675	220.800000
1480.803952	200.800000
1482.748961	194.000000
1484.695363	206.000000
1486.641327	201.000000
1488.586854	227.600000
1490.530115	197.200000
1492.472941	205.600000
1494.413502	204.600000
1496.355456	204.400000
1498.295147	199.000000
1500.234403	209.400000
1502.173225	221.400000
1504.109787	238.800000
1506.047740	178.600000
1507.983434	233.800000
1509.918695	221.400000
1511.851699	250.400000
1513.784272	257.000000
1515.716412	254.400000
1517.648120	253.800000
1519.577574	280.200000
1521.508419	260.400000
1523.438832	280.400000
1525.365173	274.000000
1527.292904	283.200000
1529.218386	336.800000
1531.143438	328.400000
1533.068061	342.200000
1534.992254	380.600000
1536.914201	396.400000
1538.837538	445.600000
1540.758628	511.200000
1542.677474	582.800000
1544.597710	623.600000
1546.515703	723.400000
1548.433269	816.600000
1550.348593	913.200000
1552.265307	1006.800000
1554.177966	1095.400000
1556.093829	1173.000000
1558.007452	1192.600000
1559.918837	1222.400000
1561.831612	1104.400000
1563.740337	1015.000000
1565.650451	941.800000
1567.560142	872.800000
1569.469410	758.800000
1571.376444	721.400000
1573.281245	630.000000
1575.187435	529.200000
1577.091393	481.000000
1578.994930	448.600000
1580.898047	420.600000
1582.798934	406.800000
1584.701210	359.600000
1586.601258	342.600000
1588.502693	337.400000
1590.400095	322.400000
1592.297078	299.200000
1594.193643	272.800000
1596.091595	294.800000
1597.983713	242.800000
1599.879025	253.000000
1601.773919	270.400000
1603.666591	265.400000
1605.558846	244.200000
1607.448882	239.000000
1609.338502	246.600000
1611.227707	231.000000
1613.116497	205.000000
1615.003069	225.600000
1616.891029	216.200000
1618.774972	204.800000
1620.660302	211.600000
1622.545219	208.600000
1624.427922	182.000000
1626.312012	216.600000
1628.192090	207.800000
1630.073556	207.000000
1631.952811	205.800000
1633.833452	195.800000
1635.708289	189.600000
1637.588107	191.600000
1639.463921	181.800000
1641.339324	205.000000
1643.216113	191.400000
1645.087106	193.000000
1646.961280	214.200000
1648.831455	211.800000
1650.704811	166.200000
1652.575964	180.400000
1654.444916	169.400000
1656.315252	201.000000
1658.181596	204.600000
1660.049325	181.400000
1661.914855	159.800000
1663.781771	183.200000
1665.644698	201.400000
1667.509010	191.000000
1669.371126	187.000000
1671.232837	203.800000
1673.095934	166.200000
1674.956835	176.800000
1676.815544	169.200000
1678.673849	195.000000
1680.533538	172.200000
1682.387461	186.600000
1684.244557	175.600000
1686.101249	166.000000
1687.953966	189.800000
1689.809854	180.000000
1691.661768	161.000000
1693.513281	175.400000
1695.364393	170.600000
1697.215105	160.800000
1699.065415	172.000000
1700.913542	174.000000
1702.763053	183.000000
1704.606814	156.600000
1706.455526	178.600000
1708.298491	182.800000
1710.144623	163.200000
1711.986792	176.000000
1713.832127	160.200000
1715.671721	206.600000
1717.512699	165.200000
1719.355060	191.200000
1721.193465	188.400000
1723.033253	160.200000
1724.870865	168.800000
1726.708083	171.000000
1728.543127	172.600000
1730.379554	173.600000
1732.213809	176.000000
1734.047669	176.400000
1735.881135	187.600000
1737.710656	182.600000
1739.543335	153.600000
1741.372070	151.000000
1743.203962	162.000000
1745.031912	165.400000
1746.859471	138.000000
1748.686637	161.400000
1750.513412	177.600000
1752.339795	153.800000
1754.162242	161.200000
1755.987844	180.600000
1757.809511	161.800000
1759.632560	174.600000
1761.453447	173.600000
1763.273946	191.800000
1765.095825	163.800000
1766.912006	157.400000
1768.731338	186.200000
1770.546742	145.200000
1772.365298	182.000000
1774.179928	164.600000
1775.994171	173.000000
1777.808028	183.800000
1779.621498	147.400000
1781.432815	160.200000
1783.245512	153.600000
1785.057824	174.200000
1786.866217	155.600000
1788.675992	156.600000
1790.481852	165.200000
1792.290857	149.800000
1794.095949	165.600000
1795.902422	170.200000
1797.708511	169.000000
1799.510689	166.600000
1801.316012	162.000000
1803.117426	163.200000
1804.920220	157.400000
1806.719108	166.200000
1808.519377	133.000000
1810.319264	170.200000
1812.117009	153.600000
1813.914374	178.800000
1815.711359	166.800000
1817.507963	155.800000
1819.302428	163.000000
1821.098272	169.200000
1822.888461	174.400000
1824.683547	184.800000
1826.472981	178.800000
1828.265551	197.000000
1830.055986	167.600000
1831.844287	156.200000
1833.635723	150.800000
1835.421513	167.000000
1837.208683	171.400000
1838.993721	157.800000
1840.781893	176.800000
1842.566179	134.200000
1844.348335	188.200000
1846.131871	182.200000
1847.913278	180.400000
1849.696064	190.400000
1851.474969	159.200000
1853.255253	195.400000
1855.033412	147.600000
1856.812949	155.400000
1858.590360	184.400000
1860.365649	178.400000
1862.142315	179.200000
1863.916859	203.400000
1865.692781	161.000000
1867.463082	171.800000
1869.236511	191.800000
1871.007820	177.400000
1872.778758	173.600000
1874.551074	148.600000
1876.317776	164.200000
1878.087603	173.000000
1879.853567	156.800000
1881.622655	166.000000
1883.387881	181.400000
1885.152739	177.000000
1886.918974	184.400000
1888.681350	205.400000
1890.443358	184.400000
1892.205000	182.600000
1893.966275	168.200000
1895.727182	162.200000
1897.487723	181.600000
1899.246154	194.800000
1901.004219	154.800000
1902.760177	169.000000
1904.517511	177.200000
1906.274480	178.200000
1908.029342	175.400000
1909.782100	188.400000
1911.534493	171.600000
1913.288263	182.400000
1915.039929	158.600000
1916.789493	170.200000
1918.540432	173.200000
1920.291009	171.000000
1922.037746	163.800000
1923.785860	171.800000
1925.531874	162.600000
1927.279263	172.800000
1929.024555	159.200000
1930.767749	166.200000
1932.512318	167.800000
1934.254791	179.000000
1935.996905	156.800000
1937.738658	179.800000
1939.480051	147.200000
1941.219351	181.800000
1942.958292	157.000000
1944.696874	180.200000
1946.433365	163.000000
1948.169498	165.700000
1949.907005	168.400000
1951.640690	158.600000
1953.375750	143.600000
1955.108721	159.000000
1956.841336	195.000000
1958.573595	173.600000
1960.305497	156.600000
1962.035313	168.200000
1963.763044	145.400000
1965.492150	164.600000
1967.220900	132.800000
1968.947568	146.800000
1970.673881	163.600000
1972.401567	173.400000
1974.123717	155.600000
1975.848968	170.000000
1977.570412	186.800000
1979.294957	163.800000
1981.017421	147.800000
1982.736083	201.000000
1984.457843	167.400000
1986.175801	193.000000
1987.895132	159.200000
1989.610664	152.400000
1991.331016	164.200000
1993.047570	171.000000
1994.760327	167.400000
1996.476180	166.800000
1998.189961	177.800000
1999.903392	204.000000
2001.614752	156.800000
2003.327484	174.800000
2005.036426	151.200000
2006.748460	180.600000
2008.454985	145.200000
2010.164603	177.000000
2011.872154	179.000000
2013.579356	183.200000
2015.284493	164.400000
2016.989284	193.400000
2018.695446	166.400000
2020.397826	166.600000
2022.101577	193.800000
2023.803266	200.800000
2025.504609	185.600000
2027.205608	164.200000
2028.904545	148.200000
2030.604854	186.600000
2032.301387	189.200000
2033.999292	183.000000
2035.695139	156.200000
2037.394071	163.000000
2039.087517	154.200000
2040.782334	160.600000
2042.476809	164.200000
2044.167515	164.600000
2045.861305	168.600000
2047.551328	158.600000
2049.242722	134.600000
2050.932063	193.200000
2052.622774	160.400000
2054.309722	175.600000
2055.996331	139.400000
2057.684309	176.200000
2059.368528	147.400000
2061.054118	177.600000
2062.739368	181.600000
2064.422569	179.200000
2066.107141	168.400000
2067.786249	166.600000
2069.470144	134.000000
2071.148577	198.000000
2072.830088	170.200000
2074.507847	183.000000
2076.185270	169.800000
2077.864062	167.600000
2079.540812	167.400000
2081.215519	173.600000
2082.891597	183.800000
2084.565633	161.200000
2086.239335	157.000000
2087.912701	175.800000
2089.584028	180.000000
2091.255021	171.800000
2092.925680	144.400000
2094.596005	191.400000
2096.265996	158.400000
2097.933951	156.600000
2099.601573	172.800000
2101.267160	141.000000
2102.934116	184.200000
2104.599039	179.000000
2106.263630	158.600000
2107.926189	184.000000
2109.590116	157.400000
2111.252012	180.200000
2112.913578	174.000000
2114.574812	157.400000
2116.234018	164.200000
2117.892893	153.400000
2119.551439	176.800000
2121.209654	181.800000
2122.864147	174.800000
2124.521704	185.600000
2126.178931	163.000000
2127.832438	155.200000
2129.487312	182.000000
2131.138467	182.200000
2132.792685	170.000000
2134.443185	173.800000
2136.095053	148.400000
2137.741512	168.600000
2139.392726	181.400000
2141.040226	173.800000
2142.689093	187.800000
2144.335941	180.200000
2145.982464	165.400000
2147.628661	162.800000
2149.271150	169.000000
2150.916697	188.800000
2152.558537	178.600000
2154.203434	181.800000
2155.844625	191.600000
2157.485494	176.000000
2159.126038	169.200000
2160.764570	186.000000
2162.404468	174.200000
2164.040666	169.200000
2165.678230	150.600000
2167.315472	167.200000
2168.950704	179.400000
2170.585614	173.400000
2172.220203	162.800000
2173.854471	166.600000
2175.485045	157.400000
2177.118671	165.000000
2178.748605	195.400000
2180.379904	171.600000
2182.009198	174.200000
2183.638173	166.200000
2185.266828	144.200000
2186.895164	166.200000
2188.521498	163.200000
2190.147513	176.400000
2191.771526	193.000000
2193.396905	177.400000
2195.020283	147.200000
2196.645026	172.800000
2198.266088	174.800000
2199.886833	208.800000
2201.508942	179.600000
2203.129054	167.400000
2204.747170	166.000000
2206.364970	195.600000
2207.982455	161.800000
2209.599624	156.400000
2211.216478	169.000000
2212.833016	176.600000
2214.447562	165.800000
2216.060115	193.800000
2217.674032	167.800000
2219.285958	180.400000
2220.899247	164.000000
2222.510546	164.000000
2224.119855	158.400000
2225.730528	179.800000
2227.339212	177.400000
2228.947583	177.400000
2230.553968	149.000000
2232.161715	147.400000
2233.767477	177.600000
2235.372927	204.400000
2236.976392	174.600000
2238.581220	187.800000
2240.184064	170.600000
2241.784925	172.000000
2243.387149	202.600000
2244.987391	196.400000
2246.588995	178.400000
2248.186946	186.400000
2249.786260	161.200000
2251.383594	189.600000
2252.980620	162.600000
2254.579008	182.600000
2256.173747	176.000000
2257.766509	181.800000
2259.360634	173.800000
2260.956120	161.000000
2262.547961	185.600000
2264.139496	143.400000
2265.732393	180.200000
2267.319980	182.400000
2268.912263	189.200000
2270.499240	199.800000
2272.089244	187.800000
2273.673944	161.800000
2275.263338	190.400000
2276.847430	213.000000
2278.432882	139.800000
2280.016366	186.200000
2281.602875	182.200000
2283.185751	179.800000
2284.768324	127.800000
2286.350593	189.200000
2287.929232	159.600000
2289.510896	175.800000
2291.088931	165.000000
2292.669989	188.400000
2294.247420	178.700000
2295.822888	169.000000
2297.401378	182.000000
2298.976244	158.000000
2300.550809	166.600000
2302.125073	168.800000
2303.699038	161.600000
2305.272701	182.400000
2306.846065	184.800000
2308.415810	153.400000
2309.985256	153.200000
2311.557720	198.800000
2313.124910	166.200000
2314.695118	170.200000
2316.261711	166.600000
2317.829664	167.600000
2319.395661	162.600000
2320.961361	167.400000
2322.526763	181.200000
2324.090212	138.800000
2325.655020	182.400000
2327.216220	188.000000
2328.780434	175.000000
2330.339386	181.200000
2331.901352	184.600000
2333.461368	163.000000
2335.021089	160.200000
2336.578860	156.800000
2338.136336	183.000000
2339.693518	159.000000
2341.248752	149.000000
2342.803693	192.600000
2344.358339	159.400000
2345.912692	175.200000
2347.466751	169.000000
2349.020517	179.000000
2350.572338	191.200000
2352.122217	199.800000
2353.675103	171.800000
2355.222746	184.000000
2356.773398	152.600000
2358.320458	172.200000
2359.868876	160.000000
2361.417003	195.600000
2362.961541	194.800000
2364.507437	178.400000
2366.051395	155.200000
2367.596709	168.000000
2369.138440	200.800000
2370.681527	201.000000
2372.222678	202.200000
2373.763540	180.800000
2375.304113	183.600000
2376.844397	197.600000
2378.384392	165.800000
2379.920809	176.600000
2381.460227	192.600000
2382.996067	192.400000
2384.533265	165.000000
2386.066887	194.400000
2387.603509	199.000000
2389.138201	186.000000
2390.670963	173.400000
2392.203438	196.000000
2393.733985	178.200000
2395.267530	206.600000
2396.795864	200.400000
2398.325554	198.000000
2399.854959	161.000000
2401.384079	159.600000
2402.912913	189.400000
2404.436543	193.000000
2405.964808	197.600000
2407.487871	165.200000
2409.015567	172.000000
2410.536424	174.600000
2412.061913	220.000000
2413.583843	199.800000
2415.107127	182.800000
2416.628491	209.800000
2418.147935	183.000000
2419.668734	209.400000
2421.187614	203.200000
2422.706213	179.400000
2424.222894	186.400000
2425.740929	198.600000
2427.258683	204.400000
2428.772885	220.400000
2430.286808	181.400000
2431.800450	183.800000
2433.315447	183.400000
2434.826895	180.800000
2436.339697	191.600000
2437.850587	189.600000
2439.361198	181.800000
2440.869897	197.800000
2442.381582	172.400000
2443.889724	187.000000
2445.397588	199.000000
2446.905174	196.600000
2448.409219	169.200000
2449.916249	204.200000
2451.421371	189.400000
2452.926216	194.200000
2454.429154	188.400000
2455.931816	198.400000
2457.434201	198.400000
2458.934681	212.200000
2460.436514	186.800000
2461.936442	194.000000
2463.436095	177.800000
2464.935473	191.000000
2466.432948	176.000000
2467.928521	199.800000
2469.427074	192.400000
2470.922099	171.000000
2472.418476	170.800000
2473.911327	204.600000
2475.405531	184.600000
2476.899461	188.800000
2478.389867	190.600000
2479.883251	180.600000
2481.374737	203.200000
2482.864326	169.200000
2484.353643	174.200000
2485.841064	190.600000
2487.331461	183.600000
2488.818340	187.000000
2490.306570	182.400000
2491.791283	199.800000
2493.275727	177.000000
2494.761521	177.600000
2496.245424	165.400000
2497.730677	181.800000
2499.210797	172.600000
2500.693890	162.800000
2502.175092	164.800000
2503.656025	181.800000
2505.135069	169.600000
2506.613844	179.400000
2508.092351	165.000000
2509.570590	180.400000
2511.048560	184.200000
2512.523025	176.800000
2514.000460	176.600000
2515.474391	204.600000
2516.949672	200.200000
2518.424686	195.800000
2519.896199	170.200000
2521.369063	225.600000
2522.840044	184.800000
2524.312375	186.200000
2525.779592	183.000000
2527.249776	175.600000
2528.718079	154.600000
2530.186117	180.400000
2531.653890	178.800000
2533.121398	194.600000
2534.588641	189.600000
2536.052392	189.600000
2537.517493	164.200000
2538.980717	189.800000
2540.445290	165.400000
2541.906375	185.600000
2543.368809	214.200000
2544.830980	171.400000
2546.289665	194.800000
2547.752921	198.400000
2549.211082	194.400000
2550.670591	180.000000
2552.125006	177.000000
2553.583992	209.000000
2555.041106	185.200000
2556.496348	221.200000
2557.951330	197.600000
2559.404443	192.400000
2560.858903	207.000000
2562.311495	172.600000
2563.763827	225.000000
2565.214292	217.600000
2566.667712	217.400000
2568.116050	199.200000
2569.567343	185.800000
2571.016771	215.400000
2572.462726	204.000000
2573.911636	217.000000
2575.357076	173.400000
2576.803863	221.200000
2578.248787	191.800000
2579.693454	222.600000
2581.139468	228.000000
2582.582016	224.400000
2584.025911	200.000000
2585.466340	219.800000
2586.908118	233.400000
2588.348036	226.600000
2589.789301	228.000000
2591.227104	206.800000
2592.667857	217.200000
2594.103548	232.600000
2595.542188	242.400000
2596.978970	209.400000
2598.413897	196.600000
2599.851771	243.800000
2601.284588	226.800000
2602.718752	256.400000
2604.151062	235.000000
2605.584718	245.600000
2607.016521	245.400000
2608.448070	240.800000
2609.879367	258.600000
2611.308811	232.400000
2612.738003	255.400000
2614.165345	242.600000
2615.594032	250.400000
2617.022468	263.000000
2618.447456	258.400000
2619.873791	283.800000
2621.298277	291.600000
2622.724109	267.800000
2624.146497	284.800000
2625.570231	287.000000
2626.992118	282.600000
2628.413756	312.200000
2629.833548	301.000000
2631.254686	291.800000
2632.675574	308.000000
2634.093023	333.000000
2635.513413	307.800000
2636.930365	306.000000
2638.347068	296.800000
2639.763523	345.400000
2641.179730	321.600000
2642.595689	337.000000
2644.009807	328.400000
2645.423677	337.200000
2646.835709	328.200000
2648.249084	327.600000
2649.659030	329.200000
2651.071912	313.000000
2652.481365	368.400000
2653.890572	356.200000
2655.297943	331.200000
2656.708248	349.400000
2658.116718	351.000000
2659.523352	351.000000
2660.929741	365.000000
2662.334296	358.800000
2663.740195	370.000000
2665.144261	381.600000
2666.548082	339.400000
2667.951659	354.000000
2669.353405	388.400000
2670.756494	352.800000
2672.156165	368.600000
2673.557180	367.400000
2674.954779	341.200000
2676.355307	363.600000
2677.752421	381.800000
2679.150878	366.800000
2680.547508	347.000000
2681.943895	357.200000
2683.340040	353.400000
2684.734359	342.600000
2686.130021	335.600000
2687.522274	349.400000
2688.915869	333.400000
2690.307640	351.800000
2691.700754	351.000000
2693.092044	338.200000
2694.481511	334.000000
2695.870738	343.000000
2697.259726	330.000000
2698.650055	319.600000
2700.035401	294.200000
2701.423670	286.600000
2702.810119	277.200000
2704.196329	299.400000
2705.582300	285.400000
2706.964873	307.400000
2708.348788	260.200000
2709.732465	272.800000
2711.115903	280.800000
2712.495946	242.600000
2713.877331	247.200000
2715.256901	271.200000
2716.637811	238.200000
2718.016907	284.800000
2719.394189	239.400000
2720.772812	243.400000
2722.149621	255.400000
2723.526195	232.800000
2724.902533	232.400000
2726.277060	222.800000
2727.652927	218.400000
2729.025407	229.600000
2730.400803	237.000000
2731.771239	241.400000
2733.143016	188.200000
2734.514558	232.000000
2735.884292	222.600000
2737.255367	203.000000
2738.624633	195.800000
2739.993666	197.800000
2741.360893	210.000000
2742.727886	201.600000
2744.094647	210.600000
2745.461176	165.600000
2746.825899	194.600000
2748.190390	191.200000
2749.554650	199.600000
2750.918677	203.600000
2752.282473	183.200000
2753.642895	182.200000
2755.006227	180.800000
2756.364617	219.400000
2757.725917	188.600000
2759.083847	190.000000
2760.444685	162.400000
2761.803724	194.200000
2763.159394	164.000000
2764.517972	186.600000
2765.873183	157.400000
2767.228165	168.000000
2768.581350	164.400000
2769.937442	174.800000
2771.290170	156.400000
2772.642670	185.000000
2773.994941	184.200000
2775.348550	188.400000
2776.698799	183.200000
2778.047253	179.400000
2779.398612	187.800000
2780.746613	162.200000
2782.095951	174.200000
2783.443497	161.400000
2784.790817	187.400000
2786.137910	193.400000
2787.483211	173.000000
2788.828287	181.600000
2790.173137	149.200000
2791.517761	179.600000
2792.859033	172.200000
2794.201643	179.000000
2795.544027	180.200000
2796.886186	175.200000
2798.224996	171.600000
2799.566706	174.200000
2800.905067	185.000000
2802.244766	201.800000
2803.582680	166.000000
2804.918809	214.000000
2806.254714	188.400000
2807.591957	162.000000
2808.927416	187.600000
2810.262652	193.800000
2811.596105	161.000000
2812.930895	197.600000
2814.262345	177.400000
2815.596690	185.200000
2816.926137	160.600000
2818.256920	182.600000
2819.587483	209.200000
2820.916266	168.200000
2822.246385	168.400000
2823.574726	151.400000
2824.902846	183.200000
2826.229188	170.600000
2827.556867	167.200000
2828.881212	175.600000
2830.206894	163.600000
2831.530800	176.200000
2832.854486	164.000000
2834.179509	171.000000
2835.501201	188.000000
2836.822675	190.000000
2838.143930	171.800000
2839.464966	168.600000
2840.784229	182.000000
2842.104828	178.400000
2843.423656	160.600000
2844.742265	176.600000
2846.059103	130.800000
2847.375724	161.200000
2848.692128	155.800000
2850.006762	204.000000
2851.322732	166.800000
2852.635381	169.000000
2853.949365	164.800000
2855.263133	185.000000
2856.576684	152.000000
2857.888469	162.000000
2859.198487	156.400000
2860.509840	157.400000
2861.817878	161.400000
2863.127250	189.000000
2864.436408	187.200000
2865.745350	170.000000
2867.052528	193.800000
2868.357944	173.400000
2869.664693	158.600000
2870.969681	182.200000
2872.274454	187.800000
2873.577467	144.600000
2874.883360	142.600000
2876.184399	176.600000
2877.486772	163.800000
2878.787385	164.400000
2880.089332	157.400000
2881.391065	180.400000
2882.689495	165.400000
2883.989258	165.400000
2885.287264	155.600000
2886.585058	189.600000
2887.881096	130.800000
2889.178467	170.600000
2890.474082	155.200000
2891.769486	165.000000
2893.064679	173.200000
2894.356575	159.000000
2895.651347	163.800000
2896.942822	179.000000
2898.235630	157.600000
2899.528228	172.000000
2900.817532	183.400000
2902.108168	159.600000
2903.397053	160.200000
2904.687270	158.400000
2905.974196	128.200000
2907.262454	151.800000
2908.548963	158.200000
2909.835263	167.000000
2911.121356	145.600000
2912.405700	167.600000
2913.692915	154.600000
2914.975304	167.400000
2916.259025	166.000000
2917.541000	171.800000
2918.822767	173.400000
2920.102789	176.200000
2921.385682	158.000000
2922.666829	172.600000
2923.944694	175.000000
2925.225428	181.000000
2926.502881	157.600000
2927.780128	178.200000
2929.055633	164.600000
2930.334006	150.400000
2931.607565	152.800000
2932.883991	184.600000
2934.158676	156.400000
2935.431620	167.200000
2936.705896	158.000000
2937.978432	170.000000
2939.250763	126.800000
2940.519822	159.000000
2941.791746	177.000000
2943.061932	154.200000
2944.331914	181.400000
2945.601693	155.600000
2946.869736	158.600000
2948.136042	168.200000
2949.402147	152.400000
2950.669581	164.000000
2951.935280	157.800000
2953.200778	157.800000
2954.466073	140.000000
2955.728103	160.800000
2956.991463	150.600000
2958.254622	188.800000
2959.516049	165.600000
2960.778805	151.200000
2962.039829	158.600000
2963.299123	174.400000
2964.558217	160.800000
2965.817110	149.200000
2967.075803	154.600000
2968.334296	175.400000
2969.591060	137.200000
2970.847624	187.800000
2972.102460	169.400000
2973.358626	149.000000
2974.611537	151.800000
2975.865777	169.600000
2977.119817	136.200000
2978.372132	149.400000
2979.624249	139.400000
2980.874641	169.000000
2982.127888	165.400000
2983.376358	157.000000
2984.627683	137.400000
2985.875758	189.200000
2987.123636	123.400000
2988.371318	155.800000
2989.618802	158.800000
2990.864565	151.600000
2992.110132	152.600000
2993.357026	163.800000
2994.600676	151.200000
2995.845654	169.000000
2997.087388	146.200000
2998.331974	195.200000
2999.574841	180.600000
3000.814467	165.400000
3002.056943	168.600000
3003.296179	173.000000
3004.536743	140.600000
3005.775590	179.600000
3007.014243	148.000000
3008.251180	150.000000
3009.489445	143.800000
3010.725994	158.400000
3011.962350	169.400000
3013.198512	155.800000
3014.432960	166.600000
3015.667216	121.200000
3016.901278	154.600000
3018.133627	155.400000
3019.364266	140.200000
3020.597750	187.000000
3021.829522	156.200000
3023.059584	150.800000
3024.289453	150.600000
3025.517613	164.000000
3026.747100	155.800000
3027.974877	146.400000
3029.202463	138.000000
3030.431375	155.200000
3031.655546	165.000000
3032.882559	176.600000
3034.106348	156.800000
3035.331464	138.200000
3036.554873	167.200000
3037.778092	165.600000
3038.999606	160.400000
3040.223961	158.800000
3041.443581	149.200000
3042.664527	174.600000
3043.885284	153.400000
3045.104337	149.600000
3046.324715	164.400000
3047.541877	156.000000
3048.760365	149.400000
3049.977150	163.000000
3051.193748	165.800000
3052.410157	155.400000
3053.623353	137.200000
3054.839388	139.800000
3056.052210	143.400000
3057.267869	152.200000
3058.478805	139.200000
3059.691066	149.800000
3060.903140	164.200000
3062.115028	171.200000
3063.325219	145.200000
3064.535223	149.600000
3065.745041	158.000000
3066.953163	156.000000
3068.161100	153.800000
3069.367341	177.800000
3070.574907	141.200000
3071.780778	141.200000
3072.986465	141.200000
3074.191966	161.800000
3075.395774	161.600000
3076.600906	142.200000
3077.804345	127.600000
3079.006093	136.000000
3080.207656	123.200000
3081.409036	166.400000
3082.610232	147.400000
3083.809738	133.800000
3085.009061	148.800000
3086.209707	140.800000
3087.408663	146.200000
3088.604425	164.800000
3089.803016	161.600000
3090.998413	147.400000
3092.195133	136.200000
3093.388661	138.400000
3094.585017	137.600000
3095.779686	145.000000
3096.971165	159.400000
3098.166976	117.000000
3099.358092	138.800000
3100.550532	147.400000
3101.739784	127.000000
3102.931861	151.400000
3104.122255	115.200000
3105.309463	146.800000
3106.497993	174.400000
3107.687846	142.400000
3108.874515	153.600000
3110.061003	164.200000
3111.247313	135.400000
3112.434944	159.800000
3113.619393	129.400000
3114.802163	145.600000
3115.987755	142.200000
3117.171668	151.600000
3118.353902	137.600000
3119.535957	162.000000
3120.717834	134.000000
3121.899533	156.400000
3123.079555	150.000000
3124.257900	123.800000
3125.439065	181.200000
3126.617055	126.800000
3127.794868	129.400000
3128.972504	149.400000
3130.148466	115.600000
3131.324250	157.800000
3132.501356	153.600000
3133.676787	147.600000
3134.850545	149.000000
3136.022630	128.200000
3137.196037	122.800000
3138.369267	164.600000
3139.540826	139.400000
3140.713705	153.800000
3141.883417	161.400000
3143.054450	115.000000
3144.223813	131.000000
3145.391505	150.200000
3146.562013	130.600000
3147.727863	158.400000
3148.898021	148.200000
3150.063523	141.400000
3151.228850	157.400000
3152.394004	190.000000
3153.558985	139.800000
3154.725285	173.400000
3155.886933	181.800000
3157.049900	160.000000
3158.212695	157.600000
3159.375317	185.200000
3160.536273	127.000000
3161.697058	151.800000
3162.857670	155.000000
3164.016618	148.400000
3165.175395	133.800000
3166.333999	131.000000
3167.492432	165.800000
3168.650694	160.800000
3169.807293	148.200000
3170.962231	153.600000
3172.118488	127.400000
3173.273084	136.600000
3174.427510	168.600000
3175.580276	160.400000
3176.732871	139.600000
3177.885297	177.800000
3179.037553	167.400000
3180.189638	127.200000
3181.338577	146.400000
3182.490324	157.400000
3183.640412	137.200000
3184.788844	149.000000
3185.937106	134.000000
3187.085200	164.200000
3188.233125	143.600000
3189.379394	175.400000
3190.525495	142.200000
3191.669942	161.200000
3192.814221	136.400000
3193.958332	167.400000
3195.103760	155.000000
3196.246050	168.200000
3197.388173	141.600000
3198.530128	163.600000
3199.671916	140.000000
3200.813537	115.000000
3201.952023	175.200000
3203.091826	147.600000
3204.232946	164.800000
3205.370933	148.800000
3206.507270	137.200000
3207.643441	128.800000
3208.780929	140.600000
3209.916769	125.400000
3211.053926	138.800000
3212.186470	158.200000
3213.323296	153.600000
3214.455510	139.800000
3215.589041	131.800000
3216.722408	159.600000
3217.852647	133.200000
3218.985684	116.800000
3220.115595	138.800000
3221.246822	155.800000
3222.374925	125.600000
3223.505824	121.400000
3224.635079	126.800000
3225.762691	146.600000
3226.887180	161.400000
3228.015945	136.800000
3229.141588	155.600000
3230.267069	118.000000
3231.390907	99.800000
3232.517541	153.200000
3233.639577	145.200000
3234.762929	163.800000
3235.886119	135.400000
3237.009146	131.200000
3238.130535	146.000000
3239.251761	133.400000
3240.371350	123.400000
3241.490777	153.600000
3242.608566	148.000000
3243.729147	138.200000
3244.846615	155.000000
3245.963922	127.000000
3247.081069	126.600000
3248.196579	156.200000
3249.313405	154.000000
3250.427121	135.400000
3251.543626	140.600000
3252.658497	179.200000
3253.770258	153.600000
3254.881861	162.200000
3255.994779	142.400000
3257.107537	145.200000
3258.217189	173.800000
3259.328156	147.600000
3260.438964	157.600000
3261.548140	138.800000
3262.655685	184.000000
3263.764545	164.400000
3264.873247	134.000000
3265.978846	158.000000
3267.085759	156.000000
3268.191043	145.600000
3269.297641	142.400000
3270.401139	147.000000
3271.505952	147.000000
3272.610606	132.000000
3273.712163	136.400000
3274.813563	154.800000
3275.916277	137.800000
3277.018835	141.200000
3278.118296	146.400000
3279.220541	158.000000
3280.319690	139.000000
3281.417215	160.400000
3282.514584	153.000000
3283.614735	161.600000
3284.711794	134.200000
3285.808697	150.600000
3286.905445	130.600000
3287.997634	130.400000
3289.094073	138.600000
3290.188889	144.800000
3291.283551	148.200000
3292.376591	127.200000
3293.469476	143.000000
3294.560741	134.200000
3295.653319	111.200000
3296.744277	138.400000
3297.833615	139.600000
3298.922800	146.200000
3300.013298	133.600000
3301.100711	139.200000
3302.187971	150.600000
3303.276544	146.600000
3304.364964	122.000000
3305.448838	106.800000
3306.536953	142.400000
3307.621986	167.400000
3308.705404	147.600000
3309.790134	138.800000
3310.873248	144.000000
3311.957675	124.200000
3313.039023	140.200000
3314.121683	141.800000
3315.202729	124.000000
3316.283624	164.200000
3317.362905	117.600000
3318.442036	141.200000
3319.522479	131.000000
3320.599847	119.800000
3321.678527	153.200000
3322.755595	138.600000
3323.832514	165.800000
3324.907821	126.000000
3325.982979	138.600000
3327.059448	147.400000
3328.132847	127.400000
3329.206096	127.000000
3330.280657	127.200000
3331.353609	130.200000
3332.424952	137.400000
3333.497606	158.400000
3334.567194	125.200000
3335.638092	133.800000
3336.707383	129.200000
3337.777985	129.400000
3338.846980	160.800000
3339.914369	162.000000
3340.980153	141.600000
3342.050163	143.600000
3343.117110	146.200000
3344.180995	169.000000
3345.247647	125.000000
3346.312696	145.600000
3347.376141	138.600000
3348.439440	128.800000
3349.502592	133.000000
3350.565598	151.600000
3351.628458	150.000000
3352.689716	136.400000
3353.747917	134.400000
3354.810338	158.400000
3355.869704	130.200000
3356.928924	138.800000
3357.989453	140.800000
3359.045474	141.200000
3360.104258	152.200000
3361.158535	165.800000
3362.215576	128.800000
3363.271018	137.600000
3364.327770	130.000000
3365.382923	130.800000
3366.436479	126.400000
3367.488439	150.600000
3368.543160	132.400000
3369.594832	159.400000
3370.646361	133.400000
3371.699198	146.600000
3372.748988	138.400000
3373.800087	115.400000
3374.848140	106.200000
3375.898952	145.800000
3376.946720	150.600000
3377.994344	139.200000
3379.041827	100.400000
3380.087717	128.800000
3381.134915	144.600000
3382.179071	160.600000
3383.225985	124.800000
3384.271307	158.200000
3385.313588	121.400000
3386.355728	135.800000
3387.399177	98.000000
3388.442484	100.400000
3389.484201	113.000000
3390.525778	125.800000
3391.567213	142.600000
3392.607060	136.200000
3393.645318	136.200000
3394.684884	124.600000
3395.724310	137.200000
3396.762148	120.800000
3397.798399	145.800000
3398.834511	140.600000
3399.871930	140.600000
3400.906316	134.200000
3401.942009	160.400000
3402.977563	140.600000
3404.010086	122.400000
3405.045362	129.400000
3406.077607	129.400000
3407.109714	128.800000
3408.140237	135.000000
3409.172067	119.000000
3410.203759	140.000000
3411.232423	139.000000
3412.260950	127.000000
3413.290783	120.200000
3414.320479	136.000000
3415.347149	150.000000
3416.375125	141.400000
3417.400078	140.000000
3418.427780	136.400000
3419.452459	124.600000
3420.478444	117.000000
3421.502849	150.200000
3422.527118	135.600000
3423.549808	144.800000
3424.572362	144.400000
3425.596222	146.400000
3426.617062	124.400000
3427.637766	103.800000
3428.659777	114.600000
3429.678769	131.200000
3430.697625	141.800000
3431.717788	140.400000
3432.734934	136.600000
