-116.521679	-7.200000
-113.852079	-3.600000
-111.185414	-28.200000
-108.519501	3.800000
-105.856521	-23.000000
-103.192110	-8.400000
-100.530630	17.200000
-97.867721	-25.200000
-95.209918	-17.000000
-92.550686	-15.000000
-89.892202	-1.800000
-87.236643	0.400000
-84.579654	-0.800000
-81.927764	-2.800000
-79.274444	2.200000
-76.624043	5.200000
-73.972214	-12.200000
-71.325474	7.400000
-68.677306	-10.400000
-66.029880	13.000000
-63.385369	-9.800000
-60.739428	-4.200000
-58.098569	-1.800000
-55.456281	-10.200000
-52.816902	-6.200000
-50.176093	12.200000
-47.536025	-16.400000
-44.901030	3.800000
-42.264605	2.000000
-39.631083	-1.400000
-36.996133	4.400000
-34.366248	5.800000
-31.732771	4.000000
-29.104356	-4.200000
-26.476675	-4.800000
-23.847565	21.400000
-21.223512	3.600000
-18.595870	-9.600000
-15.973281	-10.400000
-13.351424	1.200000
-10.730297	27.400000
-8.109901	69.200000
-5.492392	221.800000
-2.873455	759.000000
-0.257403	1812.200000
2.357920	1971.600000
4.972515	1096.200000
7.584229	126.800000
10.197371	18.400000
12.805479	-10.400000
15.417169	-3.600000
18.023828	-19.800000
20.631915	4.800000
23.239278	29.800000
25.841616	20.400000
28.447532	-0.600000
31.048426	-2.400000
33.650748	21.800000
36.248053	12.800000
38.848933	10.800000
41.444798	-12.800000
44.042092	-12.800000
46.638666	-5.200000
49.230231	-2.800000
51.823224	6.400000
54.413356	10.800000
57.004915	19.600000
59.593616	11.800000
62.183743	-1.000000
64.768871	22.200000
67.355427	-9.400000
69.941269	17.800000
72.524257	9.800000
75.108671	10.600000
77.685957	1.400000
80.266809	-17.000000
82.844812	-1.200000
85.422105	-8.600000
88.000824	17.600000
90.574561	14.200000
93.149726	0.800000
95.722047	0.800000
98.293660	1.600000
100.862433	-1.600000
103.432633	-4.200000
105.999994	-14.000000
108.568782	-3.000000
111.134733	-7.600000
113.697849	10.200000
116.264521	5.000000
118.821972	6.800000
121.385108	-4.200000
123.943284	10.600000
126.505015	22.400000
129.061789	16.200000
131.619989	54.800000
134.173237	71.000000
136.725787	52.000000
139.281887	116.000000
141.833039	162.000000
144.383494	158.000000
146.933251	197.400000
149.480189	241.200000
152.026432	221.600000
154.574100	236.000000
157.121072	249.200000
159.663109	257.600000
162.204452	222.400000
164.745102	241.600000
167.287178	230.600000
169.826442	215.200000
172.362898	230.800000
174.898662	223.400000
177.435852	265.600000
179.972351	196.200000
182.506044	241.200000
185.036933	237.800000
187.567134	242.200000
190.098761	218.800000
192.627586	228.600000
195.153612	256.600000
197.678952	239.800000
200.205717	255.400000
202.729686	234.200000
205.252970	251.000000
207.775569	228.400000
210.295375	232.400000
212.814497	242.400000
215.332938	223.400000
217.852802	246.800000
220.365665	237.400000
222.882059	244.200000
225.397771	258.200000
227.908593	236.800000
230.420840	217.000000
232.930305	239.200000
235.439090	222.400000
237.947198	260.200000
240.456730	226.800000
242.961381	258.800000
245.465356	257.800000
247.970755	224.400000
250.471279	266.200000
252.975326	240.200000
255.472403	240.600000
257.973003	252.800000
260.470831	230.200000
262.967986	249.800000
265.464468	256.400000
267.956087	267.400000
270.451226	228.800000
272.943598	249.200000
275.435300	248.000000
277.924239	226.400000
280.414601	264.000000
282.902202	242.200000
285.387043	209.400000
287.875399	254.600000
290.356815	258.200000
292.841745	236.000000
295.321830	236.200000
297.805427	255.200000
300.284181	258.200000
302.764358	270.000000
305.241784	240.400000
307.718546	245.200000
310.194644	278.000000
312.667995	243.400000
315.140683	288.200000
317.612710	271.200000
320.084076	326.200000
322.552697	344.000000
325.020660	309.200000
327.490044	282.800000
329.954606	284.000000
332.422672	264.000000
334.885918	268.600000
337.348506	251.800000
339.810438	241.200000
342.271713	269.400000
344.730254	272.600000
347.190217	251.400000
349.647447	277.000000
352.104023	265.400000
354.559945	278.000000
357.013137	250.600000
359.467752	241.800000
361.917565	246.200000
364.370874	268.200000
366.819384	253.000000
369.267244	262.400000
371.716526	285.200000
374.161014	263.400000
376.606924	283.000000
379.052184	251.000000
381.494726	288.200000
383.936620	255.000000
386.377867	268.800000
388.816398	263.600000
391.256350	271.400000
393.693590	255.400000
396.128117	264.400000
398.566132	243.400000
400.999370	275.800000
403.434029	221.400000
405.863916	256.000000
408.297288	262.400000
410.725890	249.600000
413.153850	291.800000
415.583232	285.000000
418.007848	261.800000
420.433886	268.400000
422.859283	263.200000
425.284040	266.600000
427.704039	259.000000
430.125458	273.800000
432.544182	285.200000
434.964326	264.000000
437.381775	276.600000
439.800644	266.200000
442.216820	289.600000
444.628248	262.400000
447.043153	266.400000
449.455369	262.000000
451.866950	271.400000
454.277897	270.400000
456.686158	266.800000
459.093786	266.200000
461.500782	285.200000
463.907147	243.800000
466.310829	238.000000
468.713881	244.200000
471.116303	282.000000
473.518095	237.000000
475.917209	233.600000
478.317743	234.400000
480.717648	290.800000
483.112831	269.000000
485.511480	230.800000
487.905408	277.800000
490.298711	259.000000
492.691389	277.000000
495.083441	267.400000
497.476911	235.000000
499.865669	236.400000
502.251761	240.800000
504.639273	222.800000
507.026162	222.000000
509.410387	218.600000
511.796030	207.600000
514.179012	194.600000
516.559333	214.600000
518.941073	218.000000
521.320154	197.800000
523.700654	207.600000
526.078496	195.800000
528.453682	185.600000
530.828252	210.000000
533.204239	186.400000
535.577574	195.800000
537.952326	194.200000
540.322393	219.800000
542.691844	179.400000
545.062713	216.200000
547.428901	186.600000
549.796508	172.000000
552.161470	213.600000
554.525818	214.200000
556.889553	197.200000
559.254706	216.400000
561.615187	178.800000
563.977086	210.000000
566.336344	190.800000
568.692964	180.400000
571.053030	218.200000
573.406404	186.000000
575.763223	205.600000
578.117407	181.800000
580.470982	173.200000
582.823950	158.800000
585.174285	188.000000
587.526038	206.200000
589.871114	190.400000
592.221653	191.000000
594.565520	172.600000
596.914848	162.000000
599.259527	196.600000
601.601582	171.000000
603.945054	192.000000
606.285903	173.200000
608.626149	183.000000
610.963776	201.600000
613.304837	179.600000
615.641260	188.800000
617.979100	149.400000
620.314323	177.600000
622.646930	174.800000
624.980953	174.400000
627.312362	199.000000
629.643173	171.600000
631.973387	168.200000
634.303002	136.800000
636.627994	185.200000
638.958428	179.400000
641.284241	129.400000
643.607446	171.800000
645.932068	206.600000
648.254084	148.800000
650.575506	175.000000
652.894326	187.600000
655.214561	193.400000
657.534203	164.600000
659.851244	182.600000
662.167693	177.600000
664.481544	171.000000
666.796811	177.800000
669.109481	148.400000
671.423566	161.200000
673.733051	177.800000
676.043952	159.800000
678.352260	204.400000
680.659980	186.800000
682.969114	189.600000
685.273656	165.800000
687.577612	177.400000
689.880982	169.200000
692.185766	169.200000
694.485963	181.400000
696.787576	175.400000
699.088603	182.200000
701.385049	175.800000
703.682910	174.200000
705.980187	164.000000
708.276881	187.600000
710.568999	165.600000
712.864528	169.800000
715.155483	175.000000
717.447853	160.800000
719.737648	168.600000
722.026862	167.800000
724.315497	173.400000
726.601559	165.800000
728.889036	161.400000
731.173941	183.000000
733.458269	168.400000
735.740028	151.400000
738.023201	189.600000
740.305797	165.600000
742.583837	164.000000
744.863292	178.400000
747.142170	193.200000
749.420474	187.000000
751.694228	166.600000
753.969395	178.400000
756.243989	169.200000
758.516024	172.600000
760.789472	164.800000
763.060362	171.400000
765.328696	186.000000
767.598443	182.000000
769.865636	156.600000
772.132258	176.000000
774.398310	169.200000
776.661811	180.800000
778.926725	174.600000
781.191069	199.600000
783.450884	159.600000
785.712111	206.800000
787.972771	187.600000
790.230885	178.800000
792.486454	192.800000
794.745414	202.400000
796.997874	193.000000
799.255702	160.200000
801.509011	187.200000
803.759780	183.200000
806.011961	163.200000
808.261603	172.400000
810.512658	173.800000
812.759201	185.400000
815.007156	180.800000
817.252577	175.200000
819.499409	155.800000
821.745680	190.000000
823.987446	169.800000
826.232596	172.200000
828.471273	178.000000
830.713332	183.600000
832.950893	168.600000
835.189866	181.800000
837.426312	157.400000
839.664169	174.000000
841.899501	168.200000
844.132310	176.000000
846.366530	161.200000
848.598227	186.200000
850.829370	170.200000
853.059958	161.400000
855.289992	171.600000
857.519472	158.400000
859.744470	157.600000
861.972843	138.600000
864.196736	148.200000
866.422041	171.800000
868.642870	149.800000
870.867071	170.400000
873.086799	161.600000
875.307937	167.200000
877.528525	165.800000
879.746604	198.200000
881.966092	151.000000
884.181114	172.200000
886.395588	154.400000
888.609515	169.400000
890.822895	163.000000
893.035727	183.000000
895.248013	174.600000
897.457796	163.600000
899.667034	181.200000
901.875727	151.400000
904.081920	177.200000
906.289524	148.600000
908.494629	158.800000
910.699191	179.400000
912.901258	173.600000
915.104734	172.600000
917.305716	169.400000
919.506156	161.000000
921.708005	194.400000
923.903463	170.600000
926.102280	200.000000
928.296658	197.000000
930.494394	180.800000
932.687694	168.800000
934.882403	187.200000
937.074626	180.800000
939.266310	194.200000
941.457457	201.000000
943.646121	154.600000
945.834249	183.000000
948.019896	159.200000
950.208895	202.000000
952.393471	189.400000
954.577512	168.600000
956.764903	188.800000
958.943990	190.200000
961.126428	179.600000
963.308332	175.400000
965.487761	187.400000
967.664718	201.400000
969.843083	226.400000
972.022855	208.400000
974.196278	195.200000
976.373047	212.200000
978.545409	206.800000
980.719179	225.200000
982.888545	211.600000
985.061255	216.000000
987.231500	196.800000
989.401215	211.400000
991.570403	204.000000
993.735193	226.400000
995.903324	219.200000
998.067060	201.800000
1000.232204	197.400000
1002.394888	232.200000
1004.557047	197.000000
1006.716749	235.600000
1008.875926	211.600000
1011.036510	206.600000
1013.194639	214.600000
1015.352245	229.000000
1017.509327	223.600000
1019.665885	226.600000
1021.818064	232.800000
1023.971650	220.200000
1026.124714	248.600000
1028.275329	204.800000
1030.427351	222.400000
1032.574999	219.200000
1034.725979	249.400000
1036.872588	231.400000
1039.018678	226.200000
1041.164250	243.600000
1043.311227	239.200000
1045.451915	252.200000
1047.595933	240.800000
1049.737510	235.000000
1051.878571	239.400000
1054.021036	239.400000
1056.157221	227.600000
1058.296733	244.000000
1060.431890	252.000000
1062.570371	230.600000
1064.704498	218.800000
1066.838112	243.200000
1068.973130	245.600000
1071.103800	261.000000
1073.235874	247.400000
1075.365519	250.800000
1077.494652	227.200000
1079.623273	248.200000
1081.751383	230.800000
1083.877067	244.600000
1086.002241	232.400000
1088.128819	246.200000
1090.251059	210.000000
1092.374704	237.200000
1094.494014	238.200000
1096.618553	250.200000
1098.736848	231.800000
1100.856547	253.000000
1102.973827	249.200000
1105.090600	239.400000
1107.206868	224.000000
1109.320719	245.800000
1111.435975	271.000000
1113.546907	243.200000
1115.661152	254.800000
1117.771076	241.000000
1119.882404	214.400000
1121.993227	243.200000
1124.099734	233.600000
1126.209550	244.000000
1128.315053	259.400000
1130.421958	257.400000
1132.522648	216.000000
1134.628550	243.800000
1136.730143	218.800000
1138.833139	247.200000
1140.935634	231.400000
1143.031922	220.600000
1145.133417	220.000000
1147.230610	222.400000
1149.327305	246.800000
1151.423501	241.600000
1153.519199	255.600000
1155.614400	246.600000
1157.707204	235.400000
1159.801410	265.200000
1161.889425	236.400000
1163.982639	259.200000
1166.069664	247.800000
1168.159988	229.200000
1170.246024	261.600000
1172.335359	252.800000
1174.418512	259.200000
1176.503067	269.800000
1178.589024	263.400000
1180.670699	274.400000
1182.753775	275.600000
1184.834466	257.600000
1186.914666	279.800000
1188.994374	268.200000
1191.073591	261.800000
1193.150426	276.200000
1195.224879	266.400000
1197.302625	262.000000
1199.376101	294.200000
1201.450977	253.800000
1203.521586	264.400000
1205.593596	249.600000
1207.663231	262.800000
1209.734265	277.000000
1211.804813	251.200000
1213.871099	296.400000
1215.938786	278.600000
1218.004101	260.600000
1220.070816	268.600000
1222.133275	247.400000
1224.199019	288.000000
1226.260509	300.400000
1228.323400	259.600000
1230.383923	299.000000
1232.443962	272.000000
1234.503518	285.400000
1236.560710	296.000000
1238.617420	294.400000
1240.671766	282.000000
1242.729394	317.800000
1244.784659	306.200000
1246.835683	307.800000
1248.888107	339.000000
1250.940051	300.600000
1252.989637	309.600000
1255.038744	302.600000
1257.087372	309.000000
1259.135522	303.600000
1261.183194	299.400000
1263.226635	308.200000
1265.273352	294.400000
1267.317715	318.800000
1269.361602	306.800000
1271.403137	339.400000
1273.442323	312.400000
1275.484782	326.600000
1277.523018	339.400000
1279.562653	320.600000
1281.601813	338.000000
1283.636754	359.600000
1285.673094	327.600000
1287.707090	353.000000
1289.742483	335.600000
1291.773664	331.400000
1293.806242	334.200000
1295.838349	380.000000
1297.868115	344.800000
1299.899278	371.200000
1301.926235	357.400000
1303.954589	371.600000
1305.978738	382.200000
1308.006153	395.200000
1310.029365	370.600000
1312.053975	403.000000
1314.076251	387.600000
1316.099924	410.600000
1318.121263	383.000000
1320.142136	371.800000
1322.162541	390.200000
1324.178753	399.400000
1326.196362	431.200000
1328.211643	456.600000
1330.230183	400.400000
1332.244534	427.400000
1334.256558	422.200000
1336.271841	401.800000
1338.282938	424.200000
1340.295432	441.200000
1342.303743	420.800000
1344.315309	414.600000
1346.320837	438.400000
1348.329620	422.400000
1350.334225	417.600000
1352.342084	451.400000
1354.349481	445.600000
1356.350847	409.600000
1358.353609	417.000000
1360.355912	421.200000
1362.357755	379.400000
1364.359138	412.200000
1366.358208	402.600000
1368.356819	406.800000
1370.354971	383.600000
1372.352666	391.200000
1374.346198	350.800000
1376.341125	401.400000
1378.335596	363.800000
1380.329610	334.200000
1382.321317	343.800000
1384.312568	361.800000
1386.301514	344.800000
1388.291856	362.000000
1390.281742	357.800000
1392.269324	348.000000
1394.256453	348.400000
1396.241280	324.200000
1398.227502	321.400000
1400.211423	370.000000
1402.194892	350.600000
1404.177909	345.200000
1406.158628	361.200000
1408.140741	339.200000
1410.120558	328.800000
1412.099923	336.200000
1414.075150	326.000000
1416.053615	335.000000
1418.029787	363.000000
1420.005509	363.400000
1421.980783	352.000000
1423.953765	313.400000
1425.926299	352.600000
1427.898385	376.400000
1429.870024	335.200000
1431.837534	324.600000
1433.810118	351.800000
1435.774896	348.800000
1437.744747	348.200000
1439.710474	318.000000
1441.677593	362.000000
1443.642429	313.600000
1445.603145	351.400000
1447.568929	330.200000
1449.528758	334.200000
1451.489981	326.200000
1453.452595	349.000000
1455.411095	328.600000
1457.369153	351.000000
1459.326769	302.200000
1461.283942	344.600000
1463.238840	337.400000
1465.195131	324.400000
1467.149147	334.800000
1469.102722	383.800000
1471.054025	352.000000
1473.006721	356.800000
1474.957144	346.800000
1476.907129	325.600000
1478.856675	362.000000
1480.803952	349.800000
1482.748961	317.400000
1484.695363	336.200000
1486.641327	324.200000
1488.586854	356.000000
1490.530115	332.600000
1492.472941	333.200000
1494.413502	328.400000
1496.355456	341.800000
1498.295147	335.200000
1500.234403	321.000000
1502.173225	381.600000
1504.109787	357.000000
1506.047740	345.200000
1507.983434	379.600000
1509.918695	341.800000
1511.851699	373.800000
1513.784272	352.800000
1515.716412	364.200000
1517.648120	371.800000
1519.577574	367.400000
1521.508419	361.200000
1523.438832	407.600000
1525.365173	388.200000
1527.292904	409.600000
1529.218386	388.000000
1531.143438	428.000000
1533.068061	432.800000
1534.992254	409.600000
1536.914201	425.600000
1538.837538	427.400000
1540.758628	420.800000
1542.677474	436.800000
1544.597710	485.400000
1546.515703	472.400000
1548.433269	525.400000
1550.348593	477.400000
1552.265307	554.800000
1554.177966	547.600000
1556.093829	582.800000
1558.007452	638.600000
1559.918837	691.600000
1561.831612	752.400000
1563.740337	814.600000
1565.650451	848.000000
1567.560142	910.000000
1569.469410	979.000000
1571.376444	1024.400000
1573.281245	1044.800000
1575.187435	1019.200000
1577.091393	976.600000
1578.994930	929.200000
1580.898047	817.200000
1582.798934	753.600000
1584.701210	689.800000
1586.601258	660.400000
1588.502693	618.600000
1590.400095	547.800000
1592.297078	553.000000
1594.193643	498.000000
1596.091595	492.400000
1597.983713	475.800000
1599.879025	455.200000
1601.773919	458.800000
1603.666591	431.800000
1605.558846	454.800000
1607.448882	455.000000
1609.338502	433.200000
1611.227707	428.600000
1613.116497	416.000000
1615.003069	450.200000
1616.891029	397.000000
1618.774972	387.200000
1620.660302	392.000000
1622.545219	364.600000
1624.427922	364.600000
1626.312012	364.000000
1628.192090	353.600000
1630.073556	333.600000
1631.952811	326.400000
1633.833452	348.400000
1635.708289	294.200000
1637.588107	298.000000
1639.463921	270.800000
1641.339324	296.600000
1643.216113	256.000000
1645.087106	277.800000
1646.961280	279.600000
1648.831455	248.800000
1650.704811	255.800000
1652.575964	246.800000
1654.444916	275.400000
1656.315252	264.400000
1658.181596	271.200000
1660.049325	250.200000
1661.914855	242.600000
1663.781771	247.000000
1665.644698	230.600000
1667.509010	244.600000
1669.371126	247.400000
1671.232837	232.400000
1673.095934	228.400000
1674.956835	235.400000
1676.815544	242.600000
1678.673849	236.600000
1680.533538	197.600000
1682.387461	220.600000
1684.244557	218.800000
1686.101249	200.800000
1687.953966	189.000000
1689.809854	214.200000
1691.661768	203.200000
1693.513281	195.000000
1695.364393	216.600000
1697.215105	186.800000
1699.065415	192.800000
1700.913542	179.800000
1702.763053	175.000000
1704.606814	195.200000
1706.455526	184.800000
1708.298491	166.200000
1710.144623	191.600000
1711.986792	182.400000
1713.832127	183.800000
1715.671721	189.800000
1717.512699	171.000000
1719.355060	178.000000
1721.193465	197.000000
1723.033253	184.200000
1724.870865	177.000000
1726.708083	199.000000
1728.543127	205.600000
1730.379554	169.200000
1732.213809	191.600000
1734.047669	184.200000
1735.881135	181.600000
1737.710656	161.800000
1739.543335	189.800000
1741.372070	159.000000
1743.203962	166.600000
1745.031912	174.600000
1746.859471	147.400000
1748.686637	193.800000
1750.513412	195.200000
1752.339795	149.800000
1754.162242	174.800000
1755.987844	156.000000
1757.809511	166.600000
1759.632560	171.200000
1761.453447	170.000000
1763.273946	191.800000
1765.095825	161.000000
1766.912006	186.600000
1768.731338	157.400000
1770.546742	161.200000
1772.365298	173.800000
1774.179928	148.400000
1775.994171	163.200000
1777.808028	197.200000
1779.621498	165.600000
1781.432815	143.200000
1783.245512	178.400000
1785.057824	206.200000
1786.866217	178.800000
1788.675992	191.800000
1790.481852	163.400000
1792.290857	145.800000
1794.095949	160.200000
1795.902422	146.200000
1797.708511	160.400000
1799.510689	175.400000
1801.316012	161.600000
1803.117426	161.800000
1804.920220	165.000000
1806.719108	158.800000
1808.519377	183.200000
1810.319264	142.000000
1812.117009	146.800000
1813.914374	158.400000
1815.711359	158.400000
1817.507963	157.200000
1819.302428	148.000000
1821.098272	155.800000
1822.888461	184.400000
1824.683547	146.400000
1826.472981	184.800000
1828.265551	150.400000
1830.055986	163.200000
1831.844287	164.400000
1833.635723	177.600000
1835.421513	176.200000
1837.208683	128.200000
1838.993721	167.800000
1840.781893	181.400000
1842.566179	163.600000
1844.348335	189.600000
1846.131871	151.000000
1847.913278	135.800000
1849.696064	157.600000
1851.474969	174.400000
1853.255253	165.000000
1855.033412	164.000000
1856.812949	145.000000
1858.590360	168.400000
1860.365649	164.000000
1862.142315	164.800000
1863.916859	150.600000
1865.692781	146.200000
1867.463082	160.200000
1869.236511	156.400000
1871.007820	158.200000
1872.778758	169.200000
1874.551074	170.800000
1876.317776	149.400000
1878.087603	161.200000
1879.853567	146.000000
1881.622655	133.600000
1883.387881	171.000000
1885.152739	157.800000
1886.918974	173.400000
1888.681350	167.800000
1890.443358	161.400000
1892.205000	159.800000
1893.966275	146.400000
1895.727182	166.400000
1897.487723	160.600000
1899.246154	150.600000
1901.004219	159.000000
1902.760177	172.400000
1904.517511	171.800000
1906.274480	141.200000
1908.029342	165.400000
1909.782100	191.400000
1911.534493	150.200000
1913.288263	130.600000
1915.039929	144.800000
1916.789493	138.600000
1918.540432	154.800000
1920.291009	151.200000
1922.037746	146.200000
1923.785860	158.800000
1925.531874	168.600000
1927.279263	127.800000
1929.024555	173.600000
1930.767749	156.200000
1932.512318	151.000000
1934.254791	128.800000
1935.996905	143.600000
1937.738658	142.800000
1939.480051	137.000000
1941.219351	173.200000
1942.958292	141.200000
1944.696874	161.200000
1946.433365	162.200000
1948.169498	163.600000
1949.907005	165.000000
1951.640690	158.200000
1953.375750	166.200000
1955.108721	129.800000
1956.841336	137.000000
1958.573595	157.000000
1960.305497	158.400000
1962.035313	148.200000
1963.763044	173.800000
1965.492150	156.200000
1967.220900	148.800000
1968.947568	165.800000
1970.673881	166.000000
1972.401567	137.400000
1974.123717	134.600000
1975.848968	162.000000
1977.570412	158.600000
1979.294957	174.600000
1981.017421	173.200000
1982.736083	168.400000
1984.457843	193.800000
1986.175801	144.400000
1987.895132	163.000000
1989.610664	157.000000
1991.331016	164.400000
1993.047570	152.600000
1994.760327	153.600000
1996.476180	164.200000
1998.189961	151.800000
1999.903392	164.200000
2001.614752	153.600000
2003.327484	160.000000
2005.036426	160.600000
2006.748460	167.800000
2008.454985	148.600000
2010.164603	163.600000
2011.872154	146.400000
2013.579356	152.200000
2015.284493	183.600000
2016.989284	168.200000
2018.695446	181.200000
2020.397826	148.000000
2022.101577	182.800000
2023.803266	160.200000
2025.504609	196.600000
2027.205608	153.000000
2028.904545	177.200000
2030.604854	167.000000
2032.301387	156.600000
2033.999292	136.800000
2035.695139	158.400000
2037.394071	159.200000
2039.087517	157.800000
2040.782334	146.800000
2042.476809	169.200000
2044.167515	151.600000
2045.861305	175.800000
2047.551328	124.000000
2049.242722	166.200000
2050.932063	148.200000
2052.622774	146.400000
2054.309722	169.600000
2055.996331	161.000000
2057.684309	161.000000
2059.368528	150.600000
2061.054118	151.600000
2062.739368	157.000000
2064.422569	144.800000
2066.107141	151.800000
2067.786249	140.200000
2069.470144	130.800000
2071.148577	161.400000
2072.830088	161.800000
2074.507847	176.000000
2076.185270	162.200000
2077.864062	153.400000
2079.540812	143.600000
2081.215519	153.600000
2082.891597	158.200000
2084.565633	141.400000
2086.239335	162.600000
2087.912701	155.800000
2089.584028	138.800000
2091.255021	174.400000
2092.925680	132.800000
2094.596005	152.000000
2096.265996	153.800000
2097.933951	165.600000
2099.601573	140.400000
2101.267160	146.000000
2102.934116	179.400000
2104.599039	153.800000
2106.263630	148.000000
2107.926189	169.800000
2109.590116	157.200000
2111.252012	139.800000
2112.913578	166.000000
2114.574812	143.400000
2116.234018	150.400000
2117.892893	140.000000
2119.551439	176.800000
2121.209654	158.400000
2122.864147	164.600000
2124.521704	137.000000
2126.178931	138.600000
2127.832438	150.800000
2129.487312	168.600000
2131.138467	158.200000
2132.792685	153.800000
2134.443185	139.000000
2136.095053	139.200000
2137.741512	150.000000
2139.392726	159.000000
2141.040226	127.600000
2142.689093	139.600000
2144.335941	139.800000
2145.982464	160.600000
2147.628661	154.000000
2149.271150	165.000000
2150.916697	143.600000
2152.558537	143.400000
2154.203434	146.600000
2155.844625	142.600000
2157.485494	172.200000
2159.126038	165.800000
2160.764570	159.600000
2162.404468	163.400000
2164.040666	147.200000
2165.678230	151.200000
2167.315472	149.400000
2168.950704	179.400000
2170.585614	148.600000
2172.220203	145.000000
2173.854471	162.800000
2175.485045	175.600000
2177.118671	154.600000
2178.748605	155.200000
2180.379904	128.200000
2182.009198	157.800000
2183.638173	158.600000
2185.266828	158.000000
2186.895164	162.400000
2188.521498	157.400000
2190.147513	163.000000
2191.771526	144.200000
2193.396905	149.400000
2195.020283	148.000000
2196.645026	159.200000
2198.266088	155.600000
2199.886833	186.400000
2201.508942	154.000000
2203.129054	128.200000
2204.747170	167.000000
2206.364970	148.000000
2207.982455	124.000000
2209.599624	143.200000
2211.216478	159.400000
2212.833016	152.600000
2214.447562	148.400000
2216.060115	138.000000
2217.674032	160.400000
2219.285958	151.200000
2220.899247	148.600000
2222.510546	166.400000
2224.119855	146.800000
2225.730528	152.400000
2227.339212	152.200000
2228.947583	167.000000
2230.553968	158.200000
2232.161715	134.000000
2233.767477	134.200000
2235.372927	135.400000
2236.976392	142.800000
2238.581220	118.800000
2240.184064	139.800000
2241.784925	129.000000
2243.387149	144.600000
2244.987391	164.800000
2246.588995	149.800000
2248.186946	148.800000
2249.786260	149.200000
2251.383594	161.200000
2252.980620	147.400000
2254.579008	157.800000
2256.173747	145.800000
2257.766509	161.000000
2259.360634	151.600000
2260.956120	149.200000
2262.547961	143.400000
2264.139496	143.600000
2265.732393	167.400000
2267.319980	144.800000
2268.912263	136.400000
2270.499240	136.200000
2272.089244	155.200000
2273.673944	142.800000
2275.263338	154.400000
2276.847430	154.400000
2278.432882	140.600000
2280.016366	148.000000
2281.602875	144.400000
2283.185751	142.800000
2284.768324	141.600000
2286.350593	141.200000
2287.929232	129.000000
2289.510896	130.400000
2291.088931	151.000000
2292.669989	133.400000
2294.247420	128.300000
2295.822888	123.200000
2297.401378	144.000000
2298.976244	139.800000
2300.550809	137.000000
2302.125073	141.600000
2303.699038	136.400000
2305.272701	129.000000
2306.846065	149.200000
2308.415810	157.000000
2309.985256	138.200000
2311.557720	130.200000
2313.124910	170.200000
2314.695118	146.600000
2316.261711	140.000000
2317.829664	136.800000
2319.395661	152.800000
2320.961361	124.200000
2322.526763	129.000000
2324.090212	142.200000
2325.655020	149.400000
2327.216220	136.200000
2328.780434	157.400000
2330.339386	179.200000
2331.901352	145.000000
2333.461368	152.200000
2335.021089	158.600000
2336.578860	164.200000
2338.136336	144.600000
2339.693518	141.800000
2341.248752	126.800000
2342.803693	152.000000
2344.358339	168.800000
2345.912692	136.000000
2347.466751	132.400000
2349.020517	134.200000
2350.572338	148.200000
2352.122217	145.600000
2353.675103	147.800000
2355.222746	181.600000
2356.773398	155.000000
2358.320458	150.800000
2359.868876	151.200000
2361.417003	143.000000
2362.961541	147.600000
2364.507437	138.400000
2366.051395	156.400000
2367.596709	135.000000
2369.138440	149.000000
2370.681527	149.800000
2372.222678	134.800000
2373.763540	155.400000
2375.304113	141.400000
2376.844397	120.000000
2378.384392	140.600000
2379.920809	122.600000
2381.460227	115.200000
2382.996067	156.000000
2384.533265	125.800000
2386.066887	138.200000
2387.603509	145.600000
2389.138201	137.600000
2390.670963	141.800000
2392.203438	164.000000
2393.733985	122.400000
2395.267530	111.400000
2396.795864	160.000000
2398.325554	154.600000
2399.854959	139.400000
2401.384079	122.800000
2402.912913	143.400000
2404.436543	142.000000
2405.964808	158.200000
2407.487871	131.400000
2409.015567	133.200000
2410.536424	171.400000
2412.061913	156.800000
2413.583843	146.200000
2415.107127	144.000000
2416.628491	157.600000
2418.147935	166.400000
2419.668734	162.400000
2421.187614	140.800000
2422.706213	146.800000
2424.222894	160.400000
2425.740929	147.800000
2427.258683	148.400000
2428.772885	138.200000
2430.286808	137.600000
2431.800450	166.000000
2433.315447	177.600000
2434.826895	153.000000
2436.339697	159.200000
2437.850587	176.800000
2439.361198	184.200000
2440.869897	147.000000
2442.381582	132.000000
2443.889724	158.200000
2445.397588	150.600000
2446.905174	152.000000
2448.409219	154.200000
2449.916249	156.600000
2451.421371	175.400000
2452.926216	167.000000
2454.429154	161.600000
2455.931816	167.000000
2457.434201	170.800000
2458.934681	171.600000
2460.436514	162.000000
2461.936442	173.600000
2463.436095	165.400000
2464.935473	155.400000
2466.432948	145.800000
2467.928521	175.600000
2469.427074	192.000000
2470.922099	187.400000
2472.418476	148.400000
2473.911327	161.200000
2475.405531	166.000000
2476.899461	175.400000
2478.389867	163.600000
2479.883251	147.800000
2481.374737	167.200000
2482.864326	145.400000
2484.353643	158.200000
2485.841064	153.400000
2487.331461	151.000000
2488.818340	151.800000
2490.306570	173.800000
2491.791283	169.000000
2493.275727	160.600000
2494.761521	130.200000
2496.245424	163.400000
2497.730677	130.000000
2499.210797	153.800000
2500.693890	161.600000
2502.175092	173.400000
2503.656025	145.400000
2505.135069	166.400000
2506.613844	146.200000
2508.092351	161.800000
2509.570590	144.400000
2511.048560	156.000000
2512.523025	146.400000
2514.000460	165.400000
2515.474391	147.200000
2516.949672	166.400000
2518.424686	139.200000
2519.896199	158.000000
2521.369063	149.000000
2522.840044	139.600000
2524.312375	165.800000
2525.779592	141.600000
2527.249776	149.400000
2528.718079	149.600000
2530.186117	132.000000
2531.653890	146.400000
2533.121398	140.800000
2534.588641	119.000000
2536.052392	164.200000
2537.517493	134.800000
2538.980717	162.200000
2540.445290	135.200000
2541.906375	152.600000
2543.368809	150.600000
2544.830980	154.400000
2546.289665	165.400000
2547.752921	163.800000
2549.211082	168.000000
2550.670591	138.000000
2552.125006	158.800000
2553.583992	153.600000
2555.041106	154.000000
2556.496348	174.400000
2557.951330	168.200000
2559.404443	143.200000
2560.858903	150.600000
2562.311495	155.000000
2563.763827	139.000000
2565.214292	137.400000
2566.667712	140.600000
2568.116050	166.000000
2569.567343	165.200000
2571.016771	148.600000
2572.462726	160.200000
2573.911636	149.200000
2575.357076	156.800000
2576.803863	160.600000
2578.248787	179.600000
2579.693454	186.200000
2581.139468	179.200000
2582.582016	158.800000
2584.025911	147.800000
2585.466340	164.200000
2586.908118	177.600000
2588.348036	159.400000
2589.789301	187.800000
2591.227104	159.800000
2592.667857	161.800000
2594.103548	193.400000
2595.542188	158.600000
2596.978970	160.600000
2598.413897	164.800000
2599.851771	176.400000
2601.284588	179.800000
2602.718752	188.200000
2604.151062	190.600000
2605.584718	160.200000
2607.016521	196.600000
2608.448070	197.000000
2609.879367	195.200000
2611.308811	165.600000
2612.738003	183.400000
2614.165345	154.600000
2615.594032	184.800000
2617.022468	164.400000
2618.447456	190.800000
2619.873791	182.200000
2621.298277	163.600000
2622.724109	207.200000
2624.146497	188.800000
2625.570231	184.600000
2626.992118	174.400000
2628.413756	182.200000
2629.833548	206.200000
2631.254686	193.200000
2632.675574	221.200000
2634.093023	208.000000
2635.513413	205.800000
2636.930365	196.600000
2638.347068	184.000000
2639.763523	209.400000
2641.179730	210.600000
2642.595689	205.600000
2644.009807	211.200000
2645.423677	234.000000
2646.835709	236.000000
2648.249084	204.400000
2649.659030	231.000000
2651.071912	196.400000
2652.481365	214.000000
2653.890572	233.400000
2655.297943	226.200000
2656.708248	240.400000
2658.116718	263.200000
2659.523352	230.400000
2660.929741	232.400000
2662.334296	225.400000
2663.740195	270.200000
2665.144261	256.800000
2666.548082	248.200000
2667.951659	252.400000
2669.353405	239.600000
2670.756494	257.800000
2672.156165	307.200000
2673.557180	281.800000
2674.954779	293.400000
2676.355307	274.000000
2677.752421	304.400000
2679.150878	284.200000
2680.547508	292.600000
2681.943895	310.200000
2683.340040	301.200000
2684.734359	279.000000
2686.130021	272.200000
2687.522274	303.000000
2688.915869	281.800000
2690.307640	264.000000
2691.700754	292.800000
2693.092044	262.800000
2694.481511	265.400000
2695.870738	286.600000
2697.259726	265.200000
2698.650055	283.200000
2700.035401	288.000000
2701.423670	286.200000
2702.810119	263.600000
2704.196329	274.000000
2705.582300	286.000000
2706.964873	243.000000
2708.348788	277.800000
2709.732465	271.000000
2711.115903	263.800000
2712.495946	247.600000
2713.877331	244.200000
2715.256901	230.600000
2716.637811	224.400000
2718.016907	256.000000
2719.394189	257.200000
2720.772812	248.400000
2722.149621	236.600000
2723.526195	232.400000
2724.902533	223.000000
2726.277060	210.000000
2727.652927	225.200000
2729.025407	188.400000
2730.400803	215.800000
2731.771239	169.600000
2733.143016	203.600000
2734.514558	212.600000
2735.884292	181.000000
2737.255367	203.200000
2738.624633	177.800000
2739.993666	178.800000
2741.360893	170.800000
2742.727886	162.400000
2744.094647	186.000000
2745.461176	194.600000
2746.825899	179.200000
2748.190390	166.800000
2749.554650	186.200000
2750.918677	190.200000
2752.282473	168.600000
2753.642895	169.800000
2755.006227	156.200000
2756.364617	150.000000
2757.725917	168.800000
2759.083847	176.400000
2760.444685	168.600000
2761.803724	184.600000
2763.159394	160.400000
2764.517972	177.400000
2765.873183	155.800000
2767.228165	159.400000
2768.581350	140.800000
2769.937442	156.800000
2771.290170	161.200000
2772.642670	150.800000
2773.994941	164.800000
2775.348550	153.600000
2776.698799	139.200000
2778.047253	137.000000
2779.398612	126.000000
2780.746613	140.400000
2782.095951	184.600000
2783.443497	145.800000
2784.790817	116.800000
2786.137910	128.800000
2787.483211	151.800000
2788.828287	133.600000
2790.173137	141.800000
2791.517761	147.200000
2792.859033	152.000000
2794.201643	143.000000
2795.544027	161.200000
2796.886186	150.000000
2798.224996	157.800000
2799.566706	146.400000
2800.905067	151.000000
2802.244766	146.600000
2803.582680	170.400000
2804.918809	161.400000
2806.254714	167.600000
2807.591957	163.600000
2808.927416	146.800000
2810.262652	150.600000
2811.596105	136.400000
2812.930895	163.200000
2814.262345	141.600000
2815.596690	118.800000
2816.926137	126.400000
2818.256920	142.200000
2819.587483	125.400000
2820.916266	152.000000
2822.246385	115.200000
2823.574726	136.200000
2824.902846	145.600000
2826.229188	153.400000
2827.556867	157.600000
2828.881212	126.600000
2830.206894	154.600000
2831.530800	163.800000
2832.854486	175.200000
2834.179509	124.600000
2835.501201	155.800000
2836.822675	158.600000
2838.143930	135.800000
2839.464966	143.600000
2840.784229	144.800000
2842.104828	151.000000
2843.423656	147.800000
2844.742265	133.800000
2846.059103	145.600000
2847.375724	146.400000
2848.692128	113.800000
2850.006762	131.800000
2851.322732	151.000000
2852.635381	175.400000
2853.949365	133.600000
2855.263133	136.800000
2856.576684	149.800000
2857.888469	137.200000
2859.198487	150.800000
2860.509840	118.800000
2861.817878	153.400000
2863.127250	141.000000
2864.436408	160.400000
2865.745350	123.600000
2867.052528	163.600000
2868.357944	149.600000
2869.664693	136.200000
2870.969681	153.000000
2872.274454	141.800000
2873.577467	126.400000
2874.883360	143.400000
2876.184399	128.000000
2877.486772	138.400000
2878.787385	133.200000
2880.089332	127.400000
2881.391065	107.000000
2882.689495	107.400000
2883.989258	102.800000
2885.287264	130.400000
2886.585058	125.000000
2887.881096	156.800000
2889.178467	142.800000
2890.474082	157.000000
2891.769486	126.400000
2893.064679	153.200000
2894.356575	158.800000
2895.651347	122.200000
2896.942822	114.600000
2898.235630	130.600000
2899.528228	138.000000
2900.817532	135.400000
2902.108168	137.600000
2903.397053	112.800000
2904.687270	103.200000
2905.974196	123.200000
2907.262454	140.000000
2908.548963	128.200000
2909.835263	143.200000
2911.121356	145.000000
2912.405700	152.000000
2913.692915	130.600000
2914.975304	137.400000
2916.259025	138.000000
2917.541000	125.800000
2918.822767	150.000000
2920.102789	119.000000
2921.385682	126.800000
2922.666829	121.200000
2923.944694	135.800000
2925.225428	136.400000
2926.502881	122.200000
2927.780128	137.200000
2929.055633	144.800000
2930.334006	118.400000
2931.607565	170.000000
2932.883991	130.800000
2934.158676	125.200000
2935.431620	144.200000
2936.705896	139.400000
2937.978432	119.400000
2939.250763	122.200000
2940.519822	125.600000
2941.791746	109.000000
2943.061932	149.800000
2944.331914	144.000000
2945.601693	111.800000
2946.869736	132.600000
2948.136042	124.800000
2949.402147	98.600000
2950.669581	127.800000
2951.935280	159.600000
2953.200778	115.400000
2954.466073	139.400000
2955.728103	147.600000
2956.991463	149.600000
2958.254622	115.200000
2959.516049	126.800000
2960.778805	114.600000
2962.039829	122.800000
2963.299123	92.000000
2964.558217	97.400000
2965.817110	109.600000
2967.075803	119.600000
2968.334296	119.600000
2969.591060	121.200000
2970.847624	133.800000
2972.102460	122.000000
2973.358626	139.800000
2974.611537	128.400000
2975.865777	117.000000
2977.119817	118.800000
2978.372132	126.600000
2979.624249	127.200000
2980.874641	135.800000
2982.127888	94.000000
2983.376358	102.200000
2984.627683	117.800000
2985.875758	106.000000
2987.123636	128.800000
2988.371318	149.200000
2989.618802	130.400000
2990.864565	121.800000
2992.110132	102.000000
2993.357026	116.600000
2994.600676	144.000000
2995.845654	119.200000
2997.087388	110.800000
2998.331974	117.600000
2999.574841	115.600000
3000.814467	113.200000
3002.056943	123.400000
3003.296179	111.600000
3004.536743	137.000000
3005.775590	130.800000
3007.014243	117.000000
3008.251180	119.200000
3009.489445	95.000000
3010.725994	122.400000
3011.962350	116.800000
3013.198512	106.200000
3014.432960	145.800000
3015.667216	102.800000
3016.901278	131.600000
3018.133627	146.800000
3019.364266	112.000000
3020.597750	105.200000
3021.829522	129.800000
3023.059584	115.400000
3024.289453	124.600000
3025.517613	110.600000
3026.747100	115.600000
3027.974877	107.400000
3029.202463	149.400000
3030.431375	96.600000
3031.655546	123.400000
3032.882559	98.800000
3034.106348	119.000000
3035.331464	108.400000
3036.554873	112.200000
3037.778092	106.000000
3038.999606	105.600000
3040.223961	127.800000
3041.443581	109.400000
3042.664527	112.200000
3043.885284	117.000000
3045.104337	120.400000
3046.324715	105.600000
3047.541877	130.200000
3048.760365	129.800000
3049.977150	125.200000
3051.193748	123.000000
3052.410157	127.400000
3053.623353	105.800000
3054.839388	109.400000
3056.052210	110.800000
3057.267869	108.800000
3058.478805	104.000000
3059.691066	92.400000
3060.903140	129.200000
3062.115028	88.400000
3063.325219	96.200000
3064.535223	112.000000
3065.745041	126.800000
3066.953163	105.800000
3068.161100	100.200000
3069.367341	113.200000
3070.574907	95.600000
3071.780778	103.100000
3072.986465	110.600000
3074.191966	94.600000
3075.395774	110.200000
3076.600906	75.800000
3077.804345	98.400000
3079.006093	124.200000
3080.207656	122.200000
3081.409036	109.400000
3082.610232	103.400000
3083.809738	96.800000
3085.009061	84.600000
3086.209707	123.800000
3087.408663	118.400000
3088.604425	117.000000
3089.803016	115.000000
3090.998413	94.600000
3092.195133	122.800000
3093.388661	103.800000
3094.585017	117.800000
3095.779686	131.400000
3096.971165	84.600000
3098.166976	102.400000
3099.358092	104.600000
3100.550532	113.600000
3101.739784	115.000000
3102.931861	109.400000
3104.122255	137.400000
3105.309463	101.000000
3106.497993	121.200000
3107.687846	125.200000
3108.874515	111.600000
3110.061003	96.000000
3111.247313	125.200000
3112.434944	98.600000
3113.619393	110.400000
3114.802163	91.800000
3115.987755	100.800000
3117.171668	93.600000
3118.353902	125.400000
3119.535957	107.000000
3120.717834	106.000000
3121.899533	108.400000
3123.079555	105.600000
3124.257900	120.000000
3125.439065	115.600000
3126.617055	112.800000
3127.794868	89.400000
3128.972504	124.200000
3130.148466	93.400000
3131.324250	98.200000
3132.501356	126.200000
3133.676787	90.400000
3134.850545	94.600000
3136.022630	116.200000
3137.196037	110.000000
3138.369267	89.600000
3139.540826	116.800000
3140.713705	146.800000
3141.883417	108.600000
3143.054450	95.800000
3144.223813	99.200000
3145.391505	112.400000
3146.562013	105.600000
3147.727863	100.800000
3148.898021	109.800000
3150.063523	97.000000
3151.228850	104.800000
3152.394004	105.000000
3153.558985	126.200000
3154.725285	102.800000
3155.886933	95.400000
3157.049900	111.400000
3158.212695	92.400000
3159.375317	100.000000
3160.536273	129.200000
3161.697058	98.600000
3162.857670	89.200000
3164.016618	102.000000
3165.175395	112.200000
3166.333999	110.600000
3167.492432	113.800000
3168.650694	108.400000
3169.807293	117.600000
3170.962231	107.200000
3172.118488	117.000000
3173.273084	122.200000
3174.427510	119.800000
3175.580276	89.600000
3176.732871	102.400000
3177.885297	96.600000
3179.037553	116.400000
3180.189638	105.400000
3181.338577	114.000000
3182.490324	87.800000
3183.640412	94.400000
3184.788844	96.400000
3185.937106	95.400000
3187.085200	83.200000
3188.233125	104.000000
3189.379394	95.800000
3190.525495	118.800000
3191.669942	122.400000
3192.814221	97.800000
3193.958332	94.000000
3195.103760	92.600000
3196.246050	94.800000
3197.388173	89.400000
3198.530128	101.200000
3199.671916	119.000000
3200.813537	118.000000
3201.952023	87.400000
3203.091826	92.600000
3204.232946	91.600000
3205.370933	87.600000
3206.507270	109.000000
3207.643441	88.400000
3208.780929	94.600000
3209.916769	92.600000
3211.053926	97.200000
3212.186470	85.000000
3213.323296	88.800000
3214.455510	105.800000
3215.589041	83.600000
3216.722408	91.400000
3217.852647	119.200000
3218.985684	89.800000
3220.115595	89.400000
3221.246822	108.800000
3222.374925	119.800000
3223.505824	105.200000
3224.635079	109.800000
3225.762691	82.400000
3226.887180	101.800000
3228.015945	109.800000
3229.141588	136.400000
3230.267069	98.800000
3231.390907	101.600000
3232.517541	96.600000
3233.639577	99.400000
3234.762929	94.600000
3235.886119	87.600000
3237.009146	86.600000
3238.130535	86.600000
3239.251761	90.400000
3240.371350	99.400000
3241.490777	93.600000
3242.608566	122.200000
3243.729147	81.200000
3244.846615	80.000000
3245.963922	83.800000
3247.081069	89.600000
3248.196579	74.400000
3249.313405	115.400000
3250.427121	84.800000
3251.543626	85.000000
3252.658497	99.800000
3253.770258	91.600000
3254.881861	74.000000
3255.994779	113.400000
3257.107537	92.400000
3258.217189	92.600000
3259.328156	104.400000
3260.438964	76.200000
3261.548140	97.800000
3262.655685	83.200000
3263.764545	55.400000
3264.873247	102.800000
3265.978846	73.600000
3267.085759	90.200000
3268.191043	115.600000
3269.297641	67.600000
3270.401139	96.600000
3271.505952	104.000000
3272.610606	109.800000
3273.712163	102.000000
3274.813563	83.400000
3275.916277	119.000000
3277.018835	75.000000
3278.118296	98.800000
3279.220541	78.000000
3280.319690	89.600000
3281.417215	101.400000
3282.514584	82.200000
3283.614735	79.200000
3284.711794	97.000000
3285.808697	86.600000
3286.905445	96.800000
3287.997634	98.200000
3289.094073	79.000000
3290.188889	66.200000
3291.283551	89.200000
3292.376591	86.200000
3293.469476	88.800000
3294.560741	84.600000
3295.653319	96.800000
3296.744277	83.200000
3297.833615	98.200000
3298.922800	69.200000
3300.013298	80.400000
3301.100711	95.600000
3302.187971	80.200000
3303.276544	98.400000
3304.364964	63.800000
3305.448838	117.200000
3306.536953	85.400000
3307.621986	58.600000
3308.705404	71.200000
3309.790134	79.400000
3310.873248	88.000000
3311.957675	91.000000
3313.039023	79.600000
3314.121683	81.600000
3315.202729	91.400000
3316.283624	73.000000
3317.362905	81.000000
3318.442036	79.200000
3319.522479	103.400000
3320.599847	94.600000
3321.678527	82.800000
3322.755595	72.200000
3323.832514	84.000000
3324.907821	63.600000
3325.982979	86.200000
3327.059448	66.600000
3328.132847	79.400000
3329.206096	94.400000
3330.280657	77.800000
3331.353609	86.200000
3332.424952	115.600000
3333.497606	63.400000
3334.567194	85.000000
3335.638092	85.600000
3336.707383	84.200000
3337.777985	77.400000
3338.846980	88.400000
3339.914369	94.800000
3340.980153	77.400000
3342.050163	74.400000
3343.117110	106.000000
3344.180995	79.800000
3345.247647	84.000000
3346.312696	91.000000
3347.376141	75.000000
3348.439440	75.400000
3349.502592	58.000000
3350.565598	61.200000
3351.628458	83.000000
3352.689716	70.000000
3353.747917	92.800000
3354.810338	81.000000
3355.869704	56.400000
3356.928924	55.400000
3357.989453	71.200000
3359.045474	92.600000
3360.104258	81.600000
3361.158535	59.000000
3362.215576	77.200000
3363.271018	62.000000
3364.327770	66.800000
3365.382923	59.000000
3366.436479	72.000000
3367.488439	94.200000
3368.543160	81.200000
3369.594832	93.200000
3370.646361	79.200000
3371.699198	60.400000
3372.748988	77.400000
3373.800087	106.400000
3374.848140	85.600000
3375.898952	80.600000
3376.946720	89.600000
3377.994344	83.400000
3379.041827	82.800000
3380.087717	86.400000
3381.134915	94.600000
3382.179071	99.200000
3383.225985	76.600000
3384.271307	82.800000
3385.313588	67.000000
3386.355728	73.800000
3387.399177	72.600000
3388.442484	91.600000
3389.484201	70.400000
3390.525778	76.400000
3391.567213	100.600000
3392.607060	87.800000
3393.645318	113.800000
3394.684884	78.600000
3395.724310	96.600000
3396.762148	74.200000
3397.798399	67.200000
3398.834511	51.400000
3399.871930	95.200000
3400.906316	67.200000
3401.942009	97.400000
3402.977563	73.000000
3404.010086	80.400000
3405.045362	85.000000
3406.077607	86.600000
3407.109714	58.400000
3408.140237	70.200000
3409.172067	57.800000
3410.203759	81.800000
3411.232423	67.200000
3412.260950	91.000000
3413.290783	67.600000
3414.320479	77.000000
3415.347149	96.800000
3416.375125	65.800000
3417.400078	79.000000
3418.427780	91.200000
3419.452459	61.400000
3420.478444	72.200000
3421.502849	70.200000
3422.527118	95.000000
3423.549808	69.000000
3424.572362	79.600000
3425.596222	80.400000
3426.617062	65.600000
3427.637766	71.800000
3428.659777	72.800000
3429.678769	83.800000
3430.697625	71.200000
3431.717788	57.400000
3432.734934	65.000000
