-116.521679	5.200000
-113.852079	-5.000000
-111.185414	-17.200000
-108.519501	7.400000
-105.856521	18.000000
-103.192110	13.600000
-100.530630	-10.000000
-97.867721	0.400000
-95.209918	24.200000
-92.550686	6.200000
-89.892202	7.400000
-87.236643	-24.200000
-84.579654	10.600000
-81.927764	4.600000
-79.274444	25.600000
-76.624043	9.400000
-73.972214	13.600000
-71.325474	5.800000
-68.677306	31.800000
-66.029880	-7.600000
-63.385369	14.600000
-60.739428	16.200000
-58.098569	20.800000
-55.456281	38.800000
-52.816902	8.000000
-50.176093	3.000000
-47.536025	23.200000
-44.901030	0.400000
-42.264605	30.000000
-39.631083	-2.800000
-36.996133	20.800000
-34.366248	-1.000000
-31.732771	22.800000
-29.104356	19.600000
-26.476675	32.200000
-23.847565	6.800000
-21.223512	20.400000
-18.595870	27.600000
-15.973281	46.800000
-13.351424	39.400000
-10.730297	104.200000
-8.109901	155.200000
-5.492392	586.200000
-2.873455	1908.800000
-0.257403	4697.400000
2.357920	6029.800000
4.972515	3247.600000
7.584229	425.800000
10.197371	37.800000
12.805479	27.200000
15.417169	31.600000
18.023828	34.400000
20.631915	20.600000
23.239278	7.000000
25.841616	18.600000
28.447532	1.600000
31.048426	19.800000
33.650748	8.800000
36.248053	1.000000
38.848933	3.400000
41.444798	5.800000
44.042092	15.400000
46.638666	42.400000
49.230231	-10.800000
51.823224	10.600000
54.413356	2.600000
57.004915	14.800000
59.593616	2.400000
62.183743	-7.000000
64.768871	-10.400000
67.355427	9.800000
69.941269	4.800000
72.524257	40.000000
75.108671	1.000000
77.685957	9.600000
80.266809	3.000000
82.844812	27.600000
85.422105	33.400000
88.000824	6.200000
90.574561	-6.600000
93.149726	10.800000
95.722047	11.200000
98.293660	6.800000
100.862433	-2.800000
103.432633	7.600000
105.999994	-5.400000
108.568782	24.600000
111.134733	15.400000
113.697849	-10.200000
116.264521	-30.600000
118.821972	33.800000
121.385108	26.000000
123.943284	20.400000
126.505015	19.800000
129.061789	18.600000
131.619989	22.000000
134.173237	48.600000
136.725787	71.800000
139.281887	110.400000
141.833039	111.800000
144.383494	166.200000
146.933251	187.400000
149.480189	174.400000
152.026432	171.800000
154.574100	219.200000
157.121072	228.400000
159.663109	195.800000
162.204452	189.800000
164.745102	198.000000
167.287178	195.000000
169.826442	207.400000
172.362898	201.200000
174.898662	219.000000
177.435852	214.200000
179.972351	197.200000
182.506044	186.000000
185.036933	218.000000
187.567134	196.400000
190.098761	184.600000
192.627586	180.800000
195.153612	220.600000
197.678952	194.000000
200.205717	203.000000
202.729686	205.000000
205.252970	197.200000
207.775569	210.400000
210.295375	238.800000
212.814497	182.800000
215.332938	221.400000
217.852802	206.200000
220.365665	201.400000
222.882059	192.000000
225.397771	194.600000
227.908593	192.400000
230.420840	186.200000
232.930305	214.000000
235.439090	181.000000
237.947198	190.200000
240.456730	224.000000
242.961381	185.600000
245.465356	214.400000
247.970755	185.600000
250.471279	224.400000
252.975326	217.400000
255.472403	210.000000
257.973003	176.400000
260.470831	205.000000
262.967986	194.600000
265.464468	229.600000
267.956087	222.400000
270.451226	222.000000
272.943598	211.000000
275.435300	204.000000
277.924239	220.600000
280.414601	217.800000
282.902202	186.200000
285.387043	250.000000
287.875399	223.800000
290.356815	233.200000
292.841745	210.800000
295.321830	198.600000
297.805427	223.800000
300.284181	211.600000
302.764358	224.800000
305.241784	197.000000
307.718546	191.000000
310.194644	281.800000
312.667995	207.600000
315.140683	256.600000
317.612710	256.600000
320.084076	281.400000
322.552697	294.200000
325.020660	293.600000
327.490044	264.200000
329.954606	276.600000
332.422672	244.200000
334.885918	251.800000
337.348506	235.400000
339.810438	247.600000
342.271713	233.600000
344.730254	225.200000
347.190217	221.200000
349.647447	235.400000
352.104023	205.400000
354.559945	244.600000
357.013137	253.800000
359.467752	236.600000
361.917565	230.600000
364.370874	246.000000
366.819384	233.800000
369.267244	238.600000
371.716526	255.600000
374.161014	242.800000
376.606924	222.800000
379.052184	230.800000
381.494726	231.200000
383.936620	241.400000
386.377867	254.600000
388.816398	247.400000
391.256350	250.800000
393.693590	235.200000
396.128117	250.600000
398.566132	236.800000
400.999370	240.800000
403.434029	234.000000
405.863916	229.800000
408.297288	235.200000
410.725890	240.000000
413.153850	219.800000
415.583232	256.400000
418.007848	272.800000
420.433886	228.800000
422.859283	216.200000
425.284040	258.000000
427.704039	247.600000
430.125458	228.600000
432.544182	232.600000
434.964326	233.200000
437.381775	248.000000
439.800644	252.200000
442.216820	240.000000
444.628248	248.200000
447.043153	275.600000
449.455369	247.600000
451.866950	243.000000
454.277897	256.800000
456.686158	258.000000
459.093786	247.800000
461.500782	264.200000
463.907147	235.200000
466.310829	215.800000
468.713881	207.200000
471.116303	229.800000
473.518095	213.800000
475.917209	252.000000
478.317743	236.000000
480.717648	265.800000
483.112831	248.400000
485.511480	250.800000
487.905408	195.200000
490.298711	243.200000
492.691389	226.000000
495.083441	247.800000
497.476911	185.000000
499.865669	246.800000
502.251761	205.600000
504.639273	208.200000
507.026162	190.000000
509.410387	193.000000
511.796030	186.000000
514.179012	185.600000
516.559333	186.400000
518.941073	185.800000
521.320154	175.000000
523.700654	190.800000
526.078496	164.800000
528.453682	178.200000
530.828252	161.800000
533.204239	154.200000
535.577574	170.400000
537.952326	175.800000
540.322393	172.200000
542.691844	201.400000
545.062713	157.600000
547.428901	169.200000
549.796508	165.400000
552.161470	180.600000
554.525818	195.400000
556.889553	169.400000
559.254706	172.800000
561.615187	184.800000
563.977086	155.400000
566.336344	157.800000
568.692964	177.000000
571.053030	168.800000
573.406404	163.000000
575.763223	161.400000
578.117407	148.200000
580.470982	173.800000
582.823950	179.000000
585.174285	155.200000
587.526038	160.200000
589.871114	163.400000
592.221653	162.800000
594.565520	175.200000
596.914848	178.200000
599.259527	190.400000
601.601582	149.200000
603.945054	142.400000
606.285903	148.200000
608.626149	163.000000
610.963776	181.800000
613.304837	158.000000
615.641260	146.000000
617.979100	162.800000
620.314323	133.000000
622.646930	142.800000
624.980953	173.600000
627.312362	143.800000
629.643173	151.800000
631.973387	161.800000
634.303002	159.600000
636.627994	177.600000
638.958428	145.600000
641.284241	149.000000
643.607446	157.200000
645.932068	172.400000
648.254084	165.200000
650.575506	155.800000
652.894326	112.000000
655.214561	155.600000
657.534203	144.600000
659.851244	170.000000
662.167693	133.400000
664.481544	161.600000
666.796811	177.000000
669.109481	178.800000
671.423566	140.600000
673.733051	169.800000
676.043952	150.000000
678.352260	124.200000
680.659980	151.800000
682.969114	144.000000
685.273656	153.000000
687.577612	160.800000
689.880982	148.200000
692.185766	150.800000
694.485963	143.600000
696.787576	180.600000
699.088603	152.200000
701.385049	150.000000
703.682910	152.400000
705.980187	147.000000
708.276881	146.800000
710.568999	170.200000
712.864528	150.200000
715.155483	164.800000
717.447853	119.400000
719.737648	165.600000
722.026862	137.000000
724.315497	166.600000
726.601559	148.000000
728.889036	167.800000
731.173941	168.000000
733.458269	159.400000
735.740028	158.000000
738.023201	208.400000
740.305797	155.000000
742.583837	170.400000
744.863292	148.000000
747.142170	144.600000
749.420474	175.800000
751.694228	163.000000
753.969395	118.600000
756.243989	151.800000
758.516024	159.600000
760.789472	159.200000
763.060362	129.200000
765.328696	154.200000
767.598443	144.400000
769.865636	160.000000
772.132258	153.000000
774.398310	163.400000
776.661811	169.200000
778.926725	193.000000
781.191069	147.400000
783.450884	141.600000
785.712111	166.600000
787.972771	160.200000
790.230885	166.800000
792.486454	186.600000
794.745414	158.000000
796.997874	188.600000
799.255702	169.000000
801.509011	166.000000
803.759780	166.000000
806.011961	147.800000
808.261603	156.200000
810.512658	155.200000
812.759201	163.000000
815.007156	175.200000
817.252577	145.200000
819.499409	175.800000
821.745680	144.400000
823.987446	163.600000
826.232596	154.000000
828.471273	165.400000
830.713332	150.400000
832.950893	177.800000
835.189866	153.600000
837.426312	136.600000
839.664169	156.800000
841.899501	161.800000
844.132310	133.000000
846.366530	137.600000
848.598227	148.000000
850.829370	163.800000
853.059958	154.200000
855.289992	145.000000
857.519472	136.200000
859.744470	152.200000
861.972843	154.800000
864.196736	168.800000
866.422041	166.400000
868.642870	183.800000
870.867071	148.400000
873.086799	150.200000
875.307937	160.600000
877.528525	145.200000
879.746604	132.000000
881.966092	164.400000
884.181114	167.400000
886.395588	147.600000
888.609515	166.600000
890.822895	173.200000
893.035727	158.000000
895.248013	165.400000
897.457796	153.400000
899.667034	159.400000
901.875727	163.800000
904.081920	142.400000
906.289524	160.000000
908.494629	157.800000
910.699191	149.400000
912.901258	162.000000
915.104734	147.800000
917.305716	146.000000
919.506156	138.000000
921.708005	153.600000
923.903463	136.400000
926.102280	167.000000
928.296658	118.200000
930.494394	136.800000
932.687694	152.200000
934.882403	155.000000
937.074626	153.800000
939.266310	144.000000
941.457457	159.600000
943.646121	151.000000
945.834249	158.600000
948.019896	156.800000
950.208895	156.400000
952.393471	184.400000
954.577512	170.600000
956.764903	149.400000
958.943990	155.400000
961.126428	180.200000
963.308332	174.800000
965.487761	195.200000
967.664718	158.000000
969.843083	166.000000
972.022855	180.400000
974.196278	184.800000
976.373047	150.600000
978.545409	176.200000
980.719179	172.000000
982.888545	185.000000
985.061255	200.200000
987.231500	188.000000
989.401215	167.800000
991.570403	168.200000
993.735193	180.600000
995.903324	200.200000
998.067060	185.000000
1000.232204	190.000000
1002.394888	217.000000
1004.557047	190.800000
1006.716749	195.400000
1008.875926	193.800000
1011.036510	161.400000
1013.194639	175.600000
1015.352245	167.800000
1017.509327	197.400000
1019.665885	165.200000
1021.818064	193.000000
1023.971650	227.800000
1026.124714	177.200000
1028.275329	190.400000
1030.427351	178.200000
1032.574999	203.200000
1034.725979	177.400000
1036.872588	173.600000
1039.018678	215.000000
1041.164250	207.400000
1043.311227	181.000000
1045.451915	195.600000
1047.595933	200.800000
1049.737510	195.200000
1051.878571	220.400000
1054.021036	197.800000
1056.157221	201.400000
1058.296733	191.800000
1060.431890	210.400000
1062.570371	165.600000
1064.704498	211.000000
1066.838112	211.600000
1068.973130	179.800000
1071.103800	187.600000
1073.235874	204.200000
1075.365519	228.600000
1077.494652	208.600000
1079.623273	179.200000
1081.751383	211.200000
1083.877067	211.800000
1086.002241	216.800000
1088.128819	186.400000
1090.251059	200.000000
1092.374704	183.400000
1094.494014	240.000000
1096.618553	169.000000
1098.736848	197.400000
1100.856547	200.600000
1102.973827	192.000000
1105.090600	179.400000
1107.206868	200.000000
1109.320719	197.000000
1111.435975	176.600000
1113.546907	185.600000
1115.661152	181.200000
1117.771076	174.200000
1119.882404	216.800000
1121.993227	183.200000
1124.099734	172.800000
1126.209550	173.000000
1128.315053	182.800000
1130.421958	181.600000
1132.522648	176.600000
1134.628550	192.000000
1136.730143	179.600000
1138.833139	161.400000
1140.935634	191.400000
1143.031922	161.800000
1145.133417	181.000000
1147.230610	172.600000
1149.327305	210.400000
1151.423501	163.600000
1153.519199	180.800000
1155.614400	166.600000
1157.707204	188.600000
1159.801410	200.800000
1161.889425	202.400000
1163.982639	189.200000
1166.069664	189.400000
1168.159988	159.200000
1170.246024	198.000000
1172.335359	163.000000
1174.418512	220.600000
1176.503067	178.800000
1178.589024	209.000000
1180.670699	171.200000
1182.753775	175.000000
1184.834466	200.800000
1186.914666	182.000000
1188.994374	170.200000
1191.073591	173.000000
1193.150426	179.200000
1195.224879	202.000000
1197.302625	173.400000
1199.376101	188.400000
1201.450977	167.800000
1203.521586	191.200000
1205.593596	187.600000
1207.663231	184.400000
1209.734265	145.000000
1211.804813	205.200000
1213.871099	174.400000
1215.938786	176.600000
1218.004101	165.600000
1220.070816	175.200000
1222.133275	148.400000
1224.199019	179.800000
1226.260509	172.600000
1228.323400	179.600000
1230.383923	149.800000
1232.443962	178.200000
1234.503518	166.400000
1236.560710	179.600000
1238.617420	172.000000
1240.671766	161.600000
1242.729394	186.400000
1244.784659	171.800000
1246.835683	160.600000
1248.888107	197.600000
1250.940051	181.600000
1252.989637	202.400000
1255.038744	167.800000
1257.087372	183.800000
1259.135522	205.600000
1261.183194	181.400000
1263.226635	172.000000
1265.273352	182.200000
1267.317715	189.800000
1269.361602	210.800000
1271.403137	185.800000
1273.442323	185.800000
1275.484782	168.800000
1277.523018	181.400000
1279.562653	197.200000
1281.601813	184.400000
1283.636754	183.000000
1285.673094	210.600000
1287.707090	181.200000
1289.742483	174.400000
1291.773664	187.000000
1293.806242	189.400000
1295.838349	212.200000
1297.868115	208.800000
1299.899278	154.600000
1301.926235	214.800000
1303.954589	198.400000
1305.978738	195.800000
1308.006153	209.000000
1310.029365	210.000000
1312.053975	192.800000
1314.076251	226.200000
1316.099924	195.600000
1318.121263	239.400000
1320.142136	206.400000
1322.162541	200.200000
1324.178753	249.400000
1326.196362	222.600000
1328.211643	218.000000
1330.230183	236.400000
1332.244534	261.600000
1334.256558	245.600000
1336.271841	252.000000
1338.282938	261.200000
1340.295432	257.400000
1342.303743	264.000000
1344.315309	261.600000
1346.320837	275.200000
1348.329620	270.000000
1350.334225	248.600000
1352.342084	269.800000
1354.349481	249.400000
1356.350847	220.600000
1358.353609	259.000000
1360.355912	206.800000
1362.357755	224.000000
1364.359138	203.800000
1366.358208	212.800000
1368.356819	239.200000
1370.354971	203.600000
1372.352666	190.200000
1374.346198	192.800000
1376.341125	211.400000
1378.335596	225.400000
1380.329610	194.400000
1382.321317	200.600000
1384.312568	189.000000
1386.301514	182.600000
1388.291856	183.600000
1390.281742	186.000000
1392.269324	194.800000
1394.256453	196.000000
1396.241280	170.600000
1398.227502	179.200000
1400.211423	187.600000
1402.194892	189.000000
1404.177909	176.600000
1406.158628	196.000000
1408.140741	160.000000
1410.120558	201.800000
1412.099923	176.400000
1414.075150	191.600000
1416.053615	159.400000
1418.029787	171.800000
1420.005509	181.800000
1421.980783	183.800000
1423.953765	193.200000
1425.926299	168.600000
1427.898385	142.400000
1429.870024	212.800000
1431.837534	185.000000
1433.810118	186.400000
1435.774896	203.800000
1437.744747	176.600000
1439.710474	174.200000
1441.677593	197.000000
1443.642429	190.000000
1445.603145	181.800000
1447.568929	197.000000
1449.528758	169.400000
1451.489981	179.800000
1453.452595	209.800000
1455.411095	165.200000
1457.369153	200.200000
1459.326769	202.400000
1461.283942	188.800000
1463.238840	179.400000
1465.195131	219.800000
1467.149147	174.600000
1469.102722	177.400000
1471.054025	188.600000
1473.006721	193.000000
1474.957144	170.000000
1476.907129	207.800000
1478.856675	184.200000
1480.803952	175.000000
1482.748961	197.400000
1484.695363	193.400000
1486.641327	198.200000
1488.586854	194.600000
1490.530115	206.800000
1492.472941	182.800000
1494.413502	218.400000
1496.355456	200.600000
1498.295147	201.800000
1500.234403	178.200000
1502.173225	183.400000
1504.109787	210.200000
1506.047740	180.800000
1507.983434	220.000000
1509.918695	193.000000
1511.851699	216.600000
1513.784272	201.600000
1515.716412	205.800000
1517.648120	227.000000
1519.577574	215.800000
1521.508419	220.800000
1523.438832	221.600000
1525.365173	212.000000
1527.292904	241.000000
1529.218386	240.800000
1531.143438	231.800000
1533.068061	227.000000
1534.992254	237.200000
1536.914201	245.000000
1538.837538	228.800000
1540.758628	277.400000
1542.677474	319.600000
1544.597710	296.400000
1546.515703	341.800000
1548.433269	339.000000
1550.348593	362.800000
1552.265307	394.400000
1554.177966	451.200000
1556.093829	522.400000
1558.007452	587.400000
1559.918837	670.400000
1561.831612	736.800000
1563.740337	812.600000
1565.650451	933.600000
1567.560142	991.400000
1569.469410	1074.800000
1571.376444	1116.800000
1573.281245	1093.200000
1575.187435	981.600000
1577.091393	885.800000
1578.994930	831.600000
1580.898047	669.600000
1582.798934	631.000000
1584.701210	548.000000
1586.601258	494.400000
1588.502693	466.600000
1590.400095	417.000000
1592.297078	388.600000
1594.193643	344.200000
1596.091595	318.800000
1597.983713	294.000000
1599.879025	295.600000
1601.773919	305.200000
1603.666591	258.600000
1605.558846	252.800000
1607.448882	285.800000
1609.338502	273.400000
1611.227707	252.800000
1613.116497	233.600000
1615.003069	242.400000
1616.891029	229.200000
1618.774972	228.000000
1620.660302	232.000000
1622.545219	229.000000
1624.427922	199.200000
1626.312012	183.400000
1628.192090	192.000000
1630.073556	210.600000
1631.952811	207.400000
1633.833452	186.400000
1635.708289	210.800000
1637.588107	162.000000
1639.463921	193.000000
1641.339324	190.800000
1643.216113	201.600000
1645.087106	199.600000
1646.961280	206.000000
1648.831455	201.200000
1650.704811	178.800000
1652.575964	190.200000
1654.444916	174.200000
1656.315252	205.200000
1658.181596	168.000000
1660.049325	184.600000
1661.914855	158.400000
1663.781771	189.200000
1665.644698	204.400000
1667.509010	186.800000
1669.371126	194.600000
1671.232837	174.000000
1673.095934	193.600000
1674.956835	194.200000
1676.815544	174.600000
1678.673849	194.800000
1680.533538	179.400000
1682.387461	176.200000
1684.244557	162.800000
1686.101249	194.400000
1687.953966	204.400000
1689.809854	178.600000
1691.661768	168.800000
1693.513281	170.800000
1695.364393	162.600000
1697.215105	170.600000
1699.065415	145.400000
1700.913542	163.800000
1702.763053	170.800000
1704.606814	173.000000
1706.455526	156.200000
1708.298491	189.000000
1710.144623	173.800000
1711.986792	186.600000
1713.832127	170.800000
1715.671721	187.000000
1717.512699	167.000000
1719.355060	193.400000
1721.193465	178.800000
1723.033253	176.200000
1724.870865	183.200000
1726.708083	174.400000
1728.543127	180.600000
1730.379554	165.200000
1732.213809	178.000000
1734.047669	178.200000
1735.881135	183.200000
1737.710656	175.200000
1739.543335	153.800000
1741.372070	158.600000
1743.203962	133.400000
1745.031912	173.400000
1746.859471	135.600000
1748.686637	180.000000
1750.513412	158.800000
1752.339795	154.600000
1754.162242	157.800000
1755.987844	198.200000
1757.809511	178.400000
1759.632560	161.200000
1761.453447	165.400000
1763.273946	175.400000
1765.095825	168.600000
1766.912006	163.000000
1768.731338	168.800000
1770.546742	159.800000
1772.365298	152.000000
1774.179928	143.800000
1775.994171	157.200000
1777.808028	171.000000
1779.621498	150.800000
1781.432815	156.400000
1783.245512	187.000000
1785.057824	186.600000
1786.866217	151.800000
1788.675992	167.600000
1790.481852	184.600000
1792.290857	169.600000
1794.095949	163.800000
1795.902422	153.600000
1797.708511	154.600000
1799.510689	175.200000
1801.316012	143.600000
1803.117426	171.200000
1804.920220	166.200000
1806.719108	161.800000
1808.519377	164.200000
1810.319264	177.400000
1812.117009	176.200000
1813.914374	174.000000
1815.711359	169.400000
1817.507963	156.400000
1819.302428	163.400000
1821.098272	163.400000
1822.888461	161.200000
1824.683547	161.600000
1826.472981	164.200000
1828.265551	198.400000
1830.055986	172.000000
1831.844287	156.400000
1833.635723	160.600000
1835.421513	168.800000
1837.208683	143.400000
1838.993721	165.200000
1840.781893	168.400000
1842.566179	152.800000
1844.348335	169.000000
1846.131871	172.400000
1847.913278	175.400000
1849.696064	179.000000
1851.474969	146.000000
1853.255253	159.600000
1855.033412	138.000000
1856.812949	157.600000
1858.590360	187.400000
1860.365649	163.400000
1862.142315	154.800000
1863.916859	220.000000
1865.692781	153.200000
1867.463082	168.600000
1869.236511	160.000000
1871.007820	166.400000
1872.778758	161.800000
1874.551074	161.000000
1876.317776	173.800000
1878.087603	172.800000
1879.853567	174.000000
1881.622655	169.200000
1883.387881	157.800000
1885.152739	187.800000
1886.918974	171.400000
1888.681350	157.800000
1890.443358	170.400000
1892.205000	171.200000
1893.966275	167.400000
1895.727182	135.800000
1897.487723	160.600000
1899.246154	180.000000
1901.004219	149.600000
1902.760177	144.000000
1904.517511	159.000000
1906.274480	160.800000
1908.029342	140.800000
1909.782100	138.200000
1911.534493	144.000000
1913.288263	152.000000
1915.039929	192.200000
1916.789493	176.800000
1918.540432	131.400000
1920.291009	140.800000
1922.037746	144.200000
1923.785860	150.800000
1925.531874	153.000000
1927.279263	165.400000
1929.024555	124.200000
1930.767749	141.200000
1932.512318	160.800000
1934.254791	149.600000
1935.996905	155.400000
1937.738658	162.400000
1939.480051	133.800000
1941.219351	166.000000
1942.958292	153.000000
1944.696874	172.200000
1946.433365	136.400000
1948.169498	159.200000
1949.907005	182.000000
1951.640690	172.200000
1953.375750	161.600000
1955.108721	163.800000
1956.841336	166.600000
1958.573595	164.800000
1960.305497	150.600000
1962.035313	176.800000
1963.763044	157.000000
1965.492150	147.000000
1967.220900	136.200000
1968.947568	138.400000
1970.673881	151.000000
1972.401567	139.600000
1974.123717	132.600000
1975.848968	164.600000
1977.570412	173.400000
1979.294957	180.800000
1981.017421	167.000000
1982.736083	148.200000
1984.457843	174.400000
1986.175801	169.400000
1987.895132	154.600000
1989.610664	137.600000
1991.331016	163.000000
1993.047570	191.200000
1994.760327	154.800000
1996.476180	173.800000
1998.189961	176.800000
1999.903392	152.400000
2001.614752	145.000000
2003.327484	170.200000
2005.036426	149.400000
2006.748460	177.600000
2008.454985	157.600000
2010.164603	162.400000
2011.872154	167.400000
2013.579356	161.000000
2015.284493	153.000000
2016.989284	183.600000
2018.695446	142.400000
2020.397826	184.600000
2022.101577	174.800000
2023.803266	166.600000
2025.504609	147.200000
2027.205608	157.800000
2028.904545	160.000000
2030.604854	159.200000
2032.301387	160.800000
2033.999292	172.600000
2035.695139	155.200000
2037.394071	167.800000
2039.087517	176.400000
2040.782334	146.000000
2042.476809	156.600000
2044.167515	160.400000
2045.861305	146.200000
2047.551328	167.600000
2049.242722	169.000000
2050.932063	162.800000
2052.622774	141.000000
2054.309722	162.400000
2055.996331	150.600000
2057.684309	169.000000
2059.368528	164.000000
2061.054118	188.000000
2062.739368	170.200000
2064.422569	172.000000
2066.107141	133.000000
2067.786249	171.000000
2069.470144	119.400000
2071.148577	168.800000
2072.830088	154.400000
2074.507847	154.000000
2076.185270	135.400000
2077.864062	141.800000
2079.540812	163.200000
2081.215519	156.600000
2082.891597	127.800000
2084.565633	159.200000
2086.239335	150.600000
2087.912701	167.200000
2089.584028	154.200000
2091.255021	173.600000
2092.925680	153.000000
2094.596005	160.200000
2096.265996	149.600000
2097.933951	151.600000
2099.601573	150.000000
2101.267160	126.200000
2102.934116	153.800000
2104.599039	169.400000
2106.263630	153.400000
2107.926189	154.000000
2109.590116	154.200000
2111.252012	148.800000
2112.913578	152.600000
2114.574812	144.400000
2116.234018	156.000000
2117.892893	176.600000
2119.551439	161.200000
2121.209654	154.600000
2122.864147	168.000000
2124.521704	146.800000
2126.178931	158.600000
2127.832438	164.000000
2129.487312	148.200000
2131.138467	151.000000
2132.792685	154.000000
2134.443185	162.400000
2136.095053	131.800000
2137.741512	180.000000
2139.392726	118.600000
2141.040226	161.200000
2142.689093	176.000000
2144.335941	178.800000
2145.982464	146.000000
2147.628661	141.600000
2149.271150	155.400000
2150.916697	191.200000
2152.558537	153.600000
2154.203434	151.800000
2155.844625	166.000000
2157.485494	154.000000
2159.126038	125.800000
2160.764570	153.400000
2162.404468	152.800000
2164.040666	162.200000
2165.678230	145.000000
2167.315472	153.400000
2168.950704	127.600000
2170.585614	178.400000
2172.220203	145.600000
2173.854471	143.400000
2175.485045	167.800000
2177.118671	153.200000
2178.748605	181.600000
2180.379904	136.400000
2182.009198	142.400000
2183.638173	169.800000
2185.266828	163.800000
2186.895164	139.800000
2188.521498	156.400000
2190.147513	152.600000
2191.771526	167.600000
2193.396905	159.000000
2195.020283	137.200000
2196.645026	173.200000
2198.266088	164.800000
2199.886833	177.800000
2201.508942	155.200000
2203.129054	140.400000
2204.747170	145.800000
2206.364970	136.000000
2207.982455	153.000000
2209.599624	148.000000
2211.216478	159.000000
2212.833016	163.000000
2214.447562	141.400000
2216.060115	166.400000
2217.674032	111.600000
2219.285958	177.200000
2220.899247	174.200000
2222.510546	162.000000
2224.119855	155.800000
2225.730528	150.200000
2227.339212	123.800000
2228.947583	180.800000
2230.553968	157.800000
2232.161715	119.400000
2233.767477	141.800000
2235.372927	171.600000
2236.976392	149.200000
2238.581220	160.200000
2240.184064	132.000000
2241.784925	163.000000
2243.387149	154.600000
2244.987391	169.600000
2246.588995	143.800000
2248.186946	166.600000
2249.786260	146.200000
2251.383594	169.600000
2252.980620	132.600000
2254.579008	154.000000
2256.173747	156.200000
2257.766509	175.000000
2259.360634	121.800000
2260.956120	150.200000
2262.547961	149.000000
2264.139496	141.600000
2265.732393	162.400000
2267.319980	145.800000
2268.912263	141.400000
2270.499240	180.800000
2272.089244	153.000000
2273.673944	147.800000
2275.263338	137.200000
2276.847430	133.600000
2278.432882	132.400000
2280.016366	164.200000
2281.602875	172.400000
2283.185751	145.000000
2284.768324	142.600000
2286.350593	149.600000
2287.929232	151.200000
2289.510896	154.000000
2291.088931	153.000000
2292.669989	150.200000
2294.247420	147.800000
2295.822888	145.400000
2297.401378	165.600000
2298.976244	144.800000
2300.550809	141.800000
2302.125073	137.000000
2303.699038	137.400000
2305.272701	159.400000
2306.846065	141.200000
2308.415810	132.200000
2309.985256	140.400000
2311.557720	172.800000
2313.124910	140.600000
2314.695118	149.600000
2316.261711	138.800000
2317.829664	154.000000
2319.395661	128.800000
2320.961361	150.600000
2322.526763	153.800000
2324.090212	134.800000
2325.655020	133.800000
2327.216220	158.400000
2328.780434	145.800000
2330.339386	160.200000
2331.901352	169.400000
2333.461368	165.200000
2335.021089	142.400000
2336.578860	166.400000
2338.136336	145.400000
2339.693518	131.000000
2341.248752	129.000000
2342.803693	140.200000
2344.358339	148.600000
2345.912692	151.000000
2347.466751	145.200000
2349.020517	138.600000
2350.572338	158.000000
2352.122217	161.600000
2353.675103	161.200000
2355.222746	178.400000
2356.773398	150.200000
2358.320458	156.600000
2359.868876	130.800000
2361.417003	148.400000
2362.961541	138.600000
2364.507437	172.200000
2366.051395	135.000000
2367.596709	132.400000
2369.138440	165.800000
2370.681527	141.600000
2372.222678	179.400000
2373.763540	168.000000
2375.304113	133.800000
2376.844397	163.400000
2378.384392	152.400000
2379.920809	155.000000
2381.460227	144.200000
2382.996067	167.000000
2384.533265	163.400000
2386.066887	164.600000
2387.603509	153.400000
2389.138201	159.400000
2390.670963	141.400000
2392.203438	165.200000
2393.733985	145.200000
2395.267530	186.000000
2396.795864	163.600000
2398.325554	138.800000
2399.854959	116.200000
2401.384079	132.800000
2402.912913	164.800000
2404.436543	168.800000
2405.964808	159.000000
2407.487871	139.200000
2409.015567	153.800000
2410.536424	133.000000
2412.061913	184.800000
2413.583843	175.800000
2415.107127	154.400000
2416.628491	171.600000
2418.147935	171.200000
2419.668734	167.800000
2421.187614	148.800000
2422.706213	172.600000
2424.222894	163.600000
2425.740929	156.800000
2427.258683	174.600000
2428.772885	201.600000
2430.286808	178.000000
2431.800450	169.400000
2433.315447	159.400000
2434.826895	158.200000
2436.339697	149.600000
2437.850587	155.600000
2439.361198	159.400000
2440.869897	168.200000
2442.381582	134.600000
2443.889724	175.000000
2445.397588	159.600000
2446.905174	185.400000
2448.409219	160.600000
2449.916249	179.800000
2451.421371	149.800000
2452.926216	176.400000
2454.429154	156.400000
2455.931816	168.400000
2457.434201	183.800000
2458.934681	171.800000
2460.436514	148.800000
2461.936442	172.600000
2463.436095	141.600000
2464.935473	154.200000
2466.432948	136.200000
2467.928521	164.000000
2469.427074	154.600000
2470.922099	180.000000
2472.418476	148.800000
2473.911327	154.000000
2475.405531	157.400000
2476.899461	158.200000
2478.389867	154.600000
2479.883251	131.800000
2481.374737	159.200000
2482.864326	157.600000
2484.353643	146.000000
2485.841064	165.600000
2487.331461	145.000000
2488.818340	165.600000
2490.306570	152.600000
2491.791283	156.800000
2493.275727	162.000000
2494.761521	151.000000
2496.245424	137.000000
2497.730677	162.400000
2499.210797	150.400000
2500.693890	127.400000
2502.175092	162.400000
2503.656025	156.400000
2505.135069	169.200000
2506.613844	172.000000
2508.092351	144.200000
2509.570590	142.800000
2511.048560	153.000000
2512.523025	157.800000
2514.000460	168.200000
2515.474391	160.000000
2516.949672	142.200000
2518.424686	176.600000
2519.896199	141.400000
2521.369063	163.800000
2522.840044	139.000000
2524.312375	187.600000
2525.779592	143.600000
2527.249776	154.600000
2528.718079	133.400000
2530.186117	165.000000
2531.653890	138.200000
2533.121398	157.800000
2534.588641	127.200000
2536.052392	154.200000
2537.517493	169.400000
2538.980717	150.200000
2540.445290	131.400000
2541.906375	159.400000
2543.368809	147.400000
2544.830980	147.400000
2546.289665	157.000000
2547.752921	152.400000
2549.211082	153.600000
2550.670591	170.200000
2552.125006	151.000000
2553.583992	167.800000
2555.041106	156.000000
2556.496348	177.600000
2557.951330	141.400000
2559.404443	132.200000
2560.858903	155.400000
2562.311495	137.600000
2563.763827	166.000000
2565.214292	187.000000
2566.667712	177.000000
2568.116050	172.200000
2569.567343	136.000000
2571.016771	162.400000
2572.462726	156.800000
2573.911636	132.200000
2575.357076	142.400000
2576.803863	179.800000
2578.248787	141.200000
2579.693454	169.600000
2581.139468	147.000000
2582.582016	176.200000
2584.025911	143.000000
2585.466340	162.400000
2586.908118	169.400000
2588.348036	182.800000
2589.789301	152.400000
2591.227104	173.200000
2592.667857	164.600000
2594.103548	172.000000
2595.542188	151.800000
2596.978970	165.400000
2598.413897	142.600000
2599.851771	180.000000
2601.284588	158.200000
2602.718752	189.200000
2604.151062	173.400000
2605.584718	174.000000
2607.016521	169.600000
2608.448070	179.200000
2609.879367	194.600000
2611.308811	172.600000
2612.738003	162.800000
2614.165345	178.000000
2615.594032	189.400000
2617.022468	185.200000
2618.447456	158.400000
2619.873791	208.000000
2621.298277	182.000000
2622.724109	201.200000
2624.146497	171.400000
2625.570231	184.600000
2626.992118	211.000000
2628.413756	175.800000
2629.833548	211.000000
2631.254686	211.600000
2632.675574	220.800000
2634.093023	211.600000
2635.513413	193.400000
2636.930365	204.400000
2638.347068	227.200000
2639.763523	221.200000
2641.179730	231.000000
2642.595689	219.200000
2644.009807	226.000000
2645.423677	210.000000
2646.835709	220.800000
2648.249084	213.000000
2649.659030	227.600000
2651.071912	244.000000
2652.481365	249.600000
2653.890572	263.000000
2655.297943	235.800000
2656.708248	241.200000
2658.116718	274.200000
2659.523352	287.400000
2660.929741	287.200000
2662.334296	286.400000
2663.740195	271.000000
2665.144261	312.800000
2666.548082	279.400000
2667.951659	276.200000
2669.353405	325.600000
2670.756494	347.600000
2672.156165	302.600000
2673.557180	336.600000
2674.954779	293.200000
2676.355307	350.000000
2677.752421	325.600000
2679.150878	344.400000
2680.547508	358.800000
2681.943895	373.800000
2683.340040	361.000000
2684.734359	359.200000
2686.130021	359.400000
2687.522274	340.200000
2688.915869	333.600000
2690.307640	379.400000
2691.700754	356.800000
2693.092044	334.800000
2694.481511	369.600000
2695.870738	348.200000
2697.259726	341.400000
2698.650055	364.600000
2700.035401	335.200000
2701.423670	370.000000
2702.810119	341.200000
2704.196329	339.600000
2705.582300	313.200000
2706.964873	337.600000
2708.348788	318.600000
2709.732465	278.600000
2711.115903	294.400000
2712.495946	317.200000
2713.877331	271.400000
2715.256901	286.600000
2716.637811	274.000000
2718.016907	303.800000
2719.394189	273.200000
2720.772812	240.600000
2722.149621	259.400000
2723.526195	253.400000
2724.902533	247.400000
2726.277060	231.200000
2727.652927	200.600000
2729.025407	240.800000
2730.400803	243.400000
2731.771239	244.000000
2733.143016	194.200000
2734.514558	209.400000
2735.884292	208.000000
2737.255367	201.800000
2738.624633	175.400000
2739.993666	176.800000
2741.360893	201.200000
2742.727886	185.600000
2744.094647	178.000000
2745.461176	180.800000
2746.825899	172.000000
2748.190390	165.000000
2749.554650	159.000000
2750.918677	188.000000
2752.282473	131.200000
2753.642895	151.600000
2755.006227	148.400000
2756.364617	172.800000
2757.725917	176.400000
2759.083847	170.400000
2760.444685	134.200000
2761.803724	146.000000
2763.159394	137.800000
2764.517972	131.000000
2765.873183	118.400000
2767.228165	137.000000
2768.581350	136.000000
2769.937442	159.800000
2771.290170	115.000000
2772.642670	140.400000
2773.994941	132.400000
2775.348550	167.400000
2776.698799	136.000000
2778.047253	150.000000
2779.398612	127.000000
2780.746613	145.800000
2782.095951	118.600000
2783.443497	128.800000
2784.790817	160.800000
2786.137910	141.800000
2787.483211	138.800000
2788.828287	143.000000
2790.173137	134.200000
2791.517761	145.400000
2792.859033	149.800000
2794.201643	145.800000
2795.544027	146.400000
2796.886186	127.400000
2798.224996	137.000000
2799.566706	142.800000
2800.905067	143.600000
2802.244766	132.600000
2803.582680	136.600000
2804.918809	164.200000
2806.254714	140.000000
2807.591957	120.200000
2808.927416	146.800000
2810.262652	152.800000
2811.596105	101.800000
2812.930895	138.000000
2814.262345	127.800000
2815.596690	131.800000
2816.926137	111.200000
2818.256920	126.000000
2819.587483	171.600000
2820.916266	137.200000
2822.246385	130.800000
2823.574726	120.200000
2824.902846	117.000000
2826.229188	124.200000
2827.556867	127.600000
2828.881212	133.000000
2830.206894	131.400000
2831.530800	145.000000
2832.854486	114.200000
2834.179509	128.000000
2835.501201	123.400000
2836.822675	127.800000
2838.143930	129.800000
2839.464966	109.800000
2840.784229	141.600000
2842.104828	154.200000
2843.423656	95.400000
2844.742265	131.400000
2846.059103	118.800000
2847.375724	122.800000
2848.692128	105.000000
2850.006762	156.200000
2851.322732	109.200000
2852.635381	143.600000
2853.949365	116.200000
2855.263133	130.400000
2856.576684	106.200000
2857.888469	135.000000
2859.198487	112.000000
2860.509840	152.800000
2861.817878	104.000000
2863.127250	130.400000
2864.436408	114.800000
2865.745350	129.400000
2867.052528	131.400000
2868.357944	133.000000
2869.664693	100.600000
2870.969681	107.400000
2872.274454	140.800000
2873.577467	107.600000
2874.883360	115.000000
2876.184399	130.000000
2877.486772	102.400000
2878.787385	114.800000
2880.089332	149.200000
2881.391065	137.200000
2882.689495	114.800000
2883.989258	99.000000
2885.287264	109.000000
2886.585058	131.400000
2887.881096	71.600000
2889.178467	124.800000
2890.474082	109.800000
2891.769486	125.000000
2893.064679	113.600000
2894.356575	142.400000
2895.651347	96.200000
2896.942822	129.200000
2898.235630	96.400000
2899.528228	130.600000
2900.817532	109.800000
2902.108168	141.200000
2903.397053	111.600000
2904.687270	97.000000
2905.974196	115.600000
2907.262454	109.200000
2908.548963	129.600000
2909.835263	113.400000
2911.121356	110.000000
2912.405700	125.200000
2913.692915	102.200000
2914.975304	139.200000
2916.259025	126.200000
2917.541000	158.000000
2918.822767	130.400000
2920.102789	118.400000
2921.385682	144.000000
2922.666829	140.400000
2923.944694	118.400000
2925.225428	95.800000
2926.502881	92.000000
2927.780128	119.000000
2929.055633	123.400000
2930.334006	118.600000
2931.607565	129.000000
2932.883991	125.400000
2934.158676	114.400000
2935.431620	117.000000
2936.705896	121.000000
2937.978432	120.400000
2939.250763	112.400000
2940.519822	88.600000
2941.791746	132.800000
2943.061932	120.200000
2944.331914	110.600000
2945.601693	131.200000
2946.869736	124.400000
2948.136042	119.600000
2949.402147	114.800000
2950.669581	135.800000
2951.935280	128.400000
2953.200778	108.800000
2954.466073	114.000000
2955.728103	143.600000
2956.991463	118.000000
2958.254622	132.400000
2959.516049	120.400000
2960.778805	115.400000
2962.039829	114.200000
2963.299123	125.400000
2964.558217	136.000000
2965.817110	124.200000
2967.075803	135.400000
2968.334296	129.800000
2969.591060	112.000000
2970.847624	130.800000
2972.102460	122.400000
2973.358626	123.800000
2974.611537	94.200000
2975.865777	104.800000
2977.119817	112.400000
2978.372132	106.000000
2979.624249	111.600000
2980.874641	132.600000
2982.127888	89.000000
2983.376358	113.000000
2984.627683	90.400000
2985.875758	143.800000
2987.123636	86.000000
2988.371318	101.200000
2989.618802	107.400000
2990.864565	113.200000
2992.110132	120.200000
2993.357026	119.400000
2994.600676	93.600000
2995.845654	128.400000
2997.087388	112.600000
2998.331974	141.600000
2999.574841	113.400000
3000.814467	132.800000
3002.056943	100.600000
3003.296179	138.200000
3004.536743	99.400000
3005.775590	134.800000
3007.014243	96.400000
3008.251180	101.200000
3009.489445	77.400000
3010.725994	130.800000
3011.962350	93.800000
3013.198512	136.600000
3014.432960	106.600000
3015.667216	85.000000
3016.901278	120.000000
3018.133627	118.200000
3019.364266	91.000000
3020.597750	123.400000
3021.829522	110.000000
3023.059584	110.400000
3024.289453	84.000000
3025.517613	118.200000
3026.747100	126.200000
3027.974877	104.800000
3029.202463	119.000000
3030.431375	100.600000
3031.655546	113.400000
3032.882559	130.000000
3034.106348	135.400000
3035.331464	108.000000
3036.554873	104.600000
3037.778092	132.200000
3038.999606	83.800000
3040.223961	112.600000
3041.443581	103.800000
3042.664527	126.200000
3043.885284	120.600000
3045.104337	105.400000
3046.324715	115.600000
3047.541877	91.600000
3048.760365	102.600000
3049.977150	118.000000
3051.193748	122.600000
3052.410157	129.600000
3053.623353	73.800000
3054.839388	94.600000
3056.052210	101.600000
3057.267869	111.800000
3058.478805	79.000000
3059.691066	112.400000
3060.903140	115.200000
3062.115028	125.600000
3063.325219	83.800000
3064.535223	99.000000
3065.745041	99.000000
3066.953163	88.200000
3068.161100	88.800000
3069.367341	114.200000
3070.574907	94.400000
3071.780778	98.100000
3072.986465	101.800000
3074.191966	123.200000
3075.395774	105.200000
3076.600906	103.400000
3077.804345	99.400000
3079.006093	97.200000
3080.207656	99.400000
3081.409036	112.600000
3082.610232	102.000000
3083.809738	97.800000
3085.009061	91.600000
3086.209707	109.000000
3087.408663	109.800000
3088.604425	130.400000
3089.803016	98.200000
3090.998413	86.400000
3092.195133	100.600000
3093.388661	136.200000
3094.585017	90.200000
3095.779686	117.400000
3096.971165	105.800000
3098.166976	93.200000
3099.358092	116.000000
3100.550532	107.400000
3101.739784	91.000000
3102.931861	95.000000
3104.122255	109.800000
3105.309463	104.200000
3106.497993	134.400000
3107.687846	74.200000
3108.874515	90.000000
3110.061003	109.400000
3111.247313	92.200000
3112.434944	108.800000
3113.619393	110.000000
3114.802163	108.200000
3115.987755	116.000000
3117.171668	112.400000
3118.353902	110.600000
3119.535957	120.600000
3120.717834	87.400000
3121.899533	106.200000
3123.079555	94.000000
3124.257900	102.000000
3125.439065	124.600000
3126.617055	82.600000
3127.794868	109.000000
3128.972504	100.400000
3130.148466	67.600000
3131.324250	105.400000
3132.501356	105.000000
3133.676787	113.800000
3134.850545	93.800000
3136.022630	90.000000
3137.196037	96.800000
3138.369267	111.000000
3139.540826	89.000000
3140.713705	89.000000
3141.883417	84.400000
3143.054450	79.800000
3144.223813	94.800000
3145.391505	116.000000
3146.562013	97.800000
3147.727863	97.800000
3148.898021	97.000000
3150.063523	82.000000
3151.228850	99.200000
3152.394004	119.200000
3153.558985	106.200000
3154.725285	99.200000
3155.886933	96.600000
3157.049900	101.000000
3158.212695	80.200000
3159.375317	86.000000
3160.536273	103.600000
3161.697058	92.000000
3162.857670	92.600000
3164.016618	95.800000
3165.175395	80.200000
3166.333999	83.600000
3167.492432	87.800000
3168.650694	103.000000
3169.807293	91.400000
3170.962231	94.200000
3172.118488	77.600000
3173.273084	89.600000
3174.427510	113.000000
3175.580276	81.600000
3176.732871	97.000000
3177.885297	117.600000
3179.037553	108.200000
3180.189638	76.600000
3181.338577	72.600000
3182.490324	96.600000
3183.640412	66.600000
3184.788844	111.200000
3185.937106	89.400000
3187.085200	110.400000
3188.233125	103.000000
3189.379394	109.600000
3190.525495	93.800000
3191.669942	116.400000
3192.814221	98.400000
3193.958332	118.200000
3195.103760	95.400000
3196.246050	87.400000
3197.388173	85.800000
3198.530128	101.600000
3199.671916	98.000000
3200.813537	71.400000
3201.952023	131.800000
3203.091826	104.400000
3204.232946	94.200000
3205.370933	118.600000
3206.507270	119.000000
3207.643441	84.600000
3208.780929	129.200000
3209.916769	82.800000
3211.053926	108.000000
3212.186470	119.600000
3213.323296	105.800000
3214.455510	99.200000
3215.589041	94.200000
3216.722408	109.200000
3217.852647	92.800000
3218.985684	73.000000
3220.115595	112.600000
3221.246822	111.600000
3222.374925	93.200000
3223.505824	99.600000
3224.635079	97.800000
3225.762691	117.800000
3226.887180	111.400000
3228.015945	91.800000
3229.141588	110.400000
3230.267069	87.400000
3231.390907	95.000000
3232.517541	115.000000
3233.639577	86.600000
3234.762929	117.200000
3235.886119	85.000000
3237.009146	86.200000
3238.130535	83.800000
3239.251761	108.600000
3240.371350	95.400000
3241.490777	117.200000
3242.608566	87.600000
3243.729147	96.600000
3244.846615	117.000000
3245.963922	93.800000
3247.081069	90.200000
3248.196579	88.800000
3249.313405	87.000000
3250.427121	100.800000
3251.543626	106.200000
3252.658497	99.800000
3253.770258	99.000000
3254.881861	110.200000
3255.994779	88.400000
3257.107537	97.200000
3258.217189	76.800000
3259.328156	107.600000
3260.438964	102.800000
3261.548140	99.400000
3262.655685	123.800000
3263.764545	96.200000
3264.873247	66.400000
3265.978846	93.600000
3267.085759	115.400000
3268.191043	113.000000
3269.297641	100.200000
3270.401139	122.800000
3271.505952	77.600000
3272.610606	104.000000
3273.712163	86.800000
3274.813563	93.600000
3275.916277	99.800000
3277.018835	106.600000
3278.118296	81.000000
3279.220541	115.800000
3280.319690	88.600000
3281.417215	89.600000
3282.514584	98.600000
3283.614735	107.000000
3284.711794	87.600000
3285.808697	109.200000
3286.905445	89.800000
3287.997634	76.000000
3289.094073	109.400000
3290.188889	79.600000
3291.283551	95.600000
3292.376591	66.000000
3293.469476	80.600000
3294.560741	73.600000
3295.653319	85.000000
3296.744277	85.600000
3297.833615	93.200000
3298.922800	91.000000
3300.013298	88.600000
3301.100711	83.600000
3302.187971	83.000000
3303.276544	109.400000
3304.364964	54.800000
3305.448838	68.000000
3306.536953	96.800000
3307.621986	93.000000
3308.705404	87.200000
3309.790134	91.600000
3310.873248	86.000000
3311.957675	95.800000
3313.039023	93.000000
3314.121683	80.000000
3315.202729	96.400000
3316.283624	106.800000
3317.362905	57.000000
3318.442036	96.600000
3319.522479	79.400000
3320.599847	92.000000
3321.678527	98.800000
3322.755595	91.400000
3323.832514	83.000000
3324.907821	110.200000
3325.982979	66.000000
3327.059448	79.400000
3328.132847	91.200000
3329.206096	86.400000
3330.280657	79.800000
3331.353609	90.000000
3332.424952	82.800000
3333.497606	103.800000
3334.567194	59.800000
3335.638092	86.800000
3336.707383	87.800000
3337.777985	81.400000
3338.846980	97.800000
3339.914369	96.800000
3340.980153	75.000000
3342.050163	98.000000
3343.117110	92.200000
3344.180995	109.600000
3345.247647	93.800000
3346.312696	85.800000
3347.376141	79.400000
3348.439440	71.600000
3349.502592	78.600000
3350.565598	111.000000
3351.628458	76.600000
3352.689716	85.800000
3353.747917	77.600000
3354.810338	99.400000
3355.869704	82.800000
3356.928924	83.400000
3357.989453	105.800000
3359.045474	84.600000
3360.104258	89.600000
3361.158535	104.200000
3362.215576	83.800000
3363.271018	81.200000
3364.327770	81.600000
3365.382923	83.200000
3366.436479	75.000000
3367.488439	61.200000
3368.543160	88.200000
3369.594832	113.800000
3370.646361	57.400000
3371.699198	92.400000
3372.748988	83.200000
3373.800087	83.800000
3374.848140	69.000000
3375.898952	85.400000
3376.946720	87.800000
3377.994344	76.200000
3379.041827	75.400000
3380.087717	105.200000
3381.134915	77.600000
3382.179071	69.600000
3383.225985	75.400000
3384.271307	101.000000
3385.313588	68.800000
3386.355728	73.000000
3387.399177	50.600000
3388.442484	74.400000
3389.484201	61.400000
3390.525778	74.600000
3391.567213	74.200000
3392.607060	103.800000
3393.645318	92.600000
3394.684884	63.200000
3395.724310	67.800000
3396.762148	79.800000
3397.798399	79.800000
3398.834511	102.800000
3399.871930	84.000000
3400.906316	87.000000
3401.942009	78.000000
3402.977563	80.400000
3404.010086	69.000000
3405.045362	58.800000
3406.077607	87.000000
3407.109714	68.400000
3408.140237	88.400000
3409.172067	74.600000
3410.203759	74.400000
3411.232423	73.000000
3412.260950	95.600000
3413.290783	69.000000
3414.320479	69.800000
3415.347149	102.200000
3416.375125	96.400000
3417.400078	80.400000
3418.427780	63.600000
3419.452459	81.400000
3420.478444	80.200000
3421.502849	80.800000
3422.527118	94.200000
3423.549808	97.000000
3424.572362	77.200000
3425.596222	93.800000
3426.617062	80.800000
3427.637766	61.800000
3428.659777	57.000000
3429.678769	89.200000
3430.697625	52.800000
3431.717788	85.400000
3432.734934	86.000000
