-116.521679	3.400000
-113.852079	-8.000000
-111.185414	-7.400000
-108.519501	7.200000
-105.856521	-6.200000
-103.192110	-21.400000
-100.530630	21.800000
-97.867721	-4.000000
-95.209918	5.800000
-92.550686	-32.600000
-89.892202	-6.600000
-87.236643	-4.200000
-84.579654	8.200000
-81.927764	4.000000
-79.274444	9.000000
-76.624043	-9.600000
-73.972214	-1.600000
-71.325474	-7.200000
-68.677306	-28.000000
-66.029880	7.200000
-63.385369	5.200000
-60.739428	-13.400000
-58.098569	0.600000
-55.456281	17.000000
-52.816902	0.200000
-50.176093	-4.600000
-47.536025	-3.000000
-44.901030	-17.200000
-42.264605	5.800000
-39.631083	10.600000
-36.996133	-1.600000
-34.366248	-13.600000
-31.732771	10.600000
-29.104356	18.800000
-26.476675	6.800000
-23.847565	-6.600000
-21.223512	5.200000
-18.595870	-15.400000
-15.973281	37.600000
-13.351424	19.400000
-10.730297	44.800000
-8.109901	64.800000
-5.492392	242.000000
-2.873455	796.600000
-0.257403	1812.600000
2.357920	1902.600000
4.972515	960.800000
7.584229	104.800000
10.197371	42.400000
12.805479	-13.400000
15.417169	-3.600000
18.023828	0.400000
20.631915	3.600000
23.239278	10.200000
25.841616	4.800000
28.447532	19.200000
31.048426	4.800000
33.650748	-5.200000
36.248053	0.400000
38.848933	8.600000
41.444798	-22.200000
44.042092	-11.400000
46.638666	-14.200000
49.230231	3.600000
51.823224	13.800000
54.413356	-22.600000
57.004915	-14.200000
59.593616	11.000000
62.183743	-21.800000
64.768871	4.600000
67.355427	0.200000
69.941269	-8.200000
72.524257	16.800000
75.108671	5.600000
77.685957	19.000000
80.266809	-16.200000
82.844812	3.200000
85.422105	-5.600000
88.000824	-13.800000
90.574561	-8.800000
93.149726	-11.200000
95.722047	14.600000
98.293660	-2.200000
100.862433	-3.400000
103.432633	-6.800000
105.999994	3.400000
108.568782	14.000000
111.134733	3.600000
113.697849	-3.000000
116.264521	-19.600000
118.821972	8.800000
121.385108	13.200000
123.943284	10.800000
126.505015	6.000000
129.061789	25.000000
131.619989	38.200000
134.173237	50.400000
136.725787	51.000000
139.281887	82.000000
141.833039	81.400000
144.383494	132.000000
146.933251	138.000000
149.480189	150.000000
152.026432	153.600000
154.574100	158.600000
157.121072	172.200000
159.663109	153.000000
162.204452	159.200000
164.745102	149.800000
167.287178	155.200000
169.826442	185.600000
172.362898	146.400000
174.898662	144.400000
177.435852	144.600000
179.972351	153.200000
182.506044	154.400000
185.036933	163.000000
187.567134	147.400000
190.098761	136.400000
192.627586	142.000000
195.153612	180.600000
197.678952	141.800000
200.205717	150.600000
202.729686	144.800000
205.252970	153.000000
207.775569	170.800000
210.295375	172.200000
212.814497	129.400000
215.332938	170.600000
217.852802	149.400000
220.365665	167.200000
222.882059	147.000000
225.397771	159.200000
227.908593	153.000000
230.420840	170.400000
232.930305	149.000000
235.439090	164.000000
237.947198	161.600000
240.456730	170.000000
242.961381	148.600000
245.465356	153.200000
247.970755	178.200000
250.471279	164.800000
252.975326	154.600000
255.472403	169.400000
257.973003	154.600000
260.470831	193.600000
262.967986	176.600000
265.464468	162.200000
267.956087	156.800000
270.451226	151.000000
272.943598	176.000000
275.435300	177.800000
277.924239	175.200000
280.414601	185.800000
282.902202	153.400000
285.387043	165.000000
287.875399	142.200000
290.356815	193.800000
292.841745	175.200000
295.321830	163.400000
297.805427	193.400000
300.284181	169.600000
302.764358	164.200000
305.241784	177.400000
307.718546	173.000000
310.194644	205.200000
312.667995	163.000000
315.140683	201.800000
317.612710	185.600000
320.084076	215.200000
322.552697	232.000000
325.020660	250.400000
327.490044	236.200000
329.954606	189.400000
332.422672	197.800000
334.885918	184.600000
337.348506	187.600000
339.810438	188.200000
342.271713	160.400000
344.730254	185.600000
347.190217	167.800000
349.647447	181.600000
352.104023	183.600000
354.559945	188.800000
357.013137	173.600000
359.467752	176.400000
361.917565	185.000000
364.370874	191.000000
366.819384	183.600000
369.267244	159.600000
371.716526	176.400000
374.161014	196.600000
376.606924	176.200000
379.052184	180.800000
381.494726	191.000000
383.936620	196.600000
386.377867	174.200000
388.816398	177.600000
391.256350	181.400000
393.693590	202.000000
396.128117	191.000000
398.566132	208.800000
400.999370	147.200000
403.434029	169.600000
405.863916	192.800000
408.297288	187.000000
410.725890	184.400000
413.153850	187.200000
415.583232	183.000000
418.007848	185.000000
420.433886	161.200000
422.859283	200.200000
425.284040	187.000000
427.704039	192.600000
430.125458	184.600000
432.544182	166.400000
434.964326	176.400000
437.381775	189.200000
439.800644	181.000000
442.216820	195.000000
444.628248	206.400000
447.043153	192.200000
449.455369	170.200000
451.866950	193.000000
454.277897	180.000000
456.686158	189.000000
459.093786	168.800000
461.500782	174.600000
463.907147	159.600000
466.310829	178.000000
468.713881	190.400000
471.116303	194.600000
473.518095	182.400000
475.917209	164.400000
478.317743	161.200000
480.717648	198.200000
483.112831	173.600000
485.511480	158.600000
487.905408	179.000000
490.298711	190.600000
492.691389	191.400000
495.083441	192.600000
497.476911	149.200000
499.865669	168.400000
502.251761	160.400000
504.639273	158.600000
507.026162	155.000000
509.410387	156.000000
511.796030	137.000000
514.179012	150.200000
516.559333	129.000000
518.941073	159.600000
521.320154	130.200000
523.700654	119.800000
526.078496	155.600000
528.453682	128.000000
530.828252	121.400000
533.204239	113.800000
535.577574	121.600000
537.952326	131.800000
540.322393	124.400000
542.691844	109.000000
545.062713	133.200000
547.428901	114.800000
549.796508	117.400000
552.161470	158.200000
554.525818	102.600000
556.889553	133.400000
559.254706	128.200000
561.615187	95.600000
563.977086	85.200000
566.336344	108.400000
568.692964	119.000000
571.053030	128.600000
573.406404	103.600000
575.763223	131.600000
578.117407	119.200000
580.470982	96.600000
582.823950	132.400000
585.174285	119.000000
587.526038	107.200000
589.871114	119.200000
592.221653	104.600000
594.565520	132.600000
596.914848	117.000000
599.259527	109.200000
601.601582	97.200000
603.945054	97.000000
606.285903	96.600000
608.626149	96.400000
610.963776	79.600000
613.304837	127.400000
615.641260	103.400000
617.979100	124.600000
620.314323	109.000000
622.646930	115.400000
624.980953	112.400000
627.312362	116.600000
629.643173	110.200000
631.973387	109.800000
634.303002	106.800000
636.627994	109.000000
638.958428	105.800000
641.284241	128.000000
643.607446	94.400000
645.932068	98.600000
648.254084	108.600000
650.575506	120.600000
652.894326	105.800000
655.214561	103.200000
657.534203	101.800000
659.851244	122.000000
662.167693	95.000000
664.481544	129.600000
666.796811	88.600000
669.109481	103.400000
671.423566	109.600000
673.733051	126.800000
676.043952	88.200000
678.352260	108.800000
680.659980	109.600000
682.969114	105.400000
685.273656	99.000000
687.577612	87.600000
689.880982	100.400000
692.185766	128.400000
694.485963	89.000000
696.787576	105.200000
699.088603	111.000000
701.385049	107.400000
703.682910	97.600000
705.980187	115.000000
708.276881	82.800000
710.568999	127.800000
712.864528	99.000000
715.155483	114.600000
717.447853	105.400000
719.737648	92.400000
722.026862	96.400000
724.315497	85.400000
726.601559	107.200000
728.889036	98.000000
731.173941	107.200000
733.458269	104.400000
735.740028	76.200000
738.023201	116.400000
740.305797	102.200000
742.583837	117.800000
744.863292	112.200000
747.142170	105.200000
749.420474	94.200000
751.694228	112.400000
753.969395	92.400000
756.243989	114.000000
758.516024	85.400000
760.789472	119.800000
763.060362	101.600000
765.328696	108.200000
767.598443	110.800000
769.865636	104.200000
772.132258	124.200000
774.398310	103.200000
776.661811	88.800000
778.926725	112.800000
781.191069	111.400000
783.450884	112.400000
785.712111	109.400000
787.972771	102.800000
790.230885	105.400000
792.486454	120.400000
794.745414	136.200000
796.997874	96.600000
799.255702	77.600000
801.509011	121.800000
803.759780	113.600000
806.011961	119.800000
808.261603	111.400000
810.512658	136.200000
812.759201	88.000000
815.007156	122.400000
817.252577	69.800000
819.499409	121.400000
821.745680	101.200000
823.987446	106.400000
826.232596	98.600000
828.471273	97.000000
830.713332	83.800000
832.950893	94.400000
835.189866	95.000000
837.426312	113.400000
839.664169	93.000000
841.899501	113.800000
844.132310	117.800000
846.366530	90.800000
848.598227	84.400000
850.829370	89.200000
853.059958	108.600000
855.289992	120.600000
857.519472	116.800000
859.744470	105.400000
861.972843	101.000000
864.196736	106.600000
866.422041	113.200000
868.642870	122.200000
870.867071	95.200000
873.086799	115.800000
875.307937	76.000000
877.528525	87.400000
879.746604	104.200000
881.966092	135.000000
884.181114	123.600000
886.395588	127.600000
888.609515	90.200000
890.822895	104.800000
893.035727	97.600000
895.248013	82.600000
897.457796	99.800000
899.667034	124.600000
901.875727	102.200000
904.081920	101.800000
906.289524	103.200000
908.494629	96.800000
910.699191	115.600000
912.901258	109.800000
915.104734	72.600000
917.305716	91.600000
919.506156	108.200000
921.708005	129.000000
923.903463	87.400000
926.102280	97.000000
928.296658	104.800000
930.494394	112.200000
932.687694	114.200000
934.882403	92.600000
937.074626	114.000000
939.266310	90.000000
941.457457	103.600000
943.646121	112.400000
945.834249	84.200000
948.019896	115.000000
950.208895	98.400000
952.393471	99.600000
954.577512	94.600000
956.764903	101.000000
958.943990	107.000000
961.126428	133.400000
963.308332	87.000000
965.487761	118.000000
967.664718	98.400000
969.843083	120.400000
972.022855	107.400000
974.196278	117.600000
976.373047	104.200000
978.545409	135.600000
980.719179	118.400000
982.888545	147.000000
985.061255	131.400000
987.231500	135.000000
989.401215	121.800000
991.570403	130.000000
993.735193	102.200000
995.903324	116.600000
998.067060	116.400000
1000.232204	129.800000
1002.394888	131.600000
1004.557047	123.000000
1006.716749	128.600000
1008.875926	131.200000
1011.036510	100.800000
1013.194639	134.600000
1015.352245	135.800000
1017.509327	141.000000
1019.665885	124.600000
1021.818064	133.200000
1023.971650	115.400000
1026.124714	143.800000
1028.275329	113.600000
1030.427351	144.800000
1032.574999	134.600000
1034.725979	136.600000
1036.872588	109.600000
1039.018678	128.600000
1041.164250	110.000000
1043.311227	152.800000
1045.451915	156.000000
1047.595933	133.200000
1049.737510	135.400000
1051.878571	180.600000
1054.021036	130.800000
1056.157221	153.200000
1058.296733	120.600000
1060.431890	144.000000
1062.570371	139.400000
1064.704498	153.800000
1066.838112	121.600000
1068.973130	124.200000
1071.103800	152.400000
1073.235874	170.800000
1075.365519	146.400000
1077.494652	154.200000
1079.623273	145.200000
1081.751383	155.000000
1083.877067	144.000000
1086.002241	149.600000
1088.128819	117.400000
1090.251059	150.400000
1092.374704	135.400000
1094.494014	132.800000
1096.618553	109.800000
1098.736848	166.200000
1100.856547	156.800000
1102.973827	157.000000
1105.090600	133.600000
1107.206868	106.800000
1109.320719	106.600000
1111.435975	158.800000
1113.546907	119.200000
1115.661152	120.800000
1117.771076	121.800000
1119.882404	110.800000
1121.993227	132.200000
1124.099734	107.800000
1126.209550	117.600000
1128.315053	122.600000
1130.421958	122.600000
1132.522648	142.400000
1134.628550	111.600000
1136.730143	126.000000
1138.833139	115.800000
1140.935634	126.600000
1143.031922	122.600000
1145.133417	118.000000
1147.230610	128.000000
1149.327305	109.600000
1151.423501	133.400000
1153.519199	116.800000
1155.614400	113.600000
1157.707204	134.000000
1159.801410	132.400000
1161.889425	115.000000
1163.982639	133.000000
1166.069664	98.800000
1168.159988	121.400000
1170.246024	140.800000
1172.335359	129.600000
1174.418512	134.400000
1176.503067	138.000000
1178.589024	100.800000
1180.670699	110.600000
1182.753775	120.600000
1184.834466	104.200000
1186.914666	119.000000
1188.994374	97.000000
1191.073591	135.800000
1193.150426	82.600000
1195.224879	123.000000
1197.302625	90.200000
1199.376101	96.400000
1201.450977	120.800000
1203.521586	95.800000
1205.593596	110.000000
1207.663231	141.000000
1209.734265	114.600000
1211.804813	121.600000
1213.871099	83.200000
1215.938786	141.400000
1218.004101	137.600000
1220.070816	115.800000
1222.133275	104.800000
1224.199019	113.600000
1226.260509	109.000000
1228.323400	120.200000
1230.383923	141.800000
1232.443962	134.800000
1234.503518	94.800000
1236.560710	98.400000
1238.617420	103.200000
1240.671766	129.200000
1242.729394	124.000000
1244.784659	127.000000
1246.835683	115.800000
1248.888107	122.400000
1250.940051	104.000000
1252.989637	103.000000
1255.038744	108.800000
1257.087372	112.000000
1259.135522	100.200000
1261.183194	114.000000
1263.226635	93.200000
1265.273352	105.800000
1267.317715	108.600000
1269.361602	111.600000
1271.403137	66.000000
1273.442323	110.200000
1275.484782	131.800000
1277.523018	133.400000
1279.562653	139.000000
1281.601813	116.200000
1283.636754	120.000000
1285.673094	146.800000
1287.707090	122.000000
1289.742483	116.600000
1291.773664	130.600000
1293.806242	101.200000
1295.838349	140.200000
1297.868115	138.800000
1299.899278	140.400000
1301.926235	122.000000
1303.954589	152.000000
1305.978738	129.600000
1308.006153	128.400000
1310.029365	126.800000
1312.053975	162.600000
1314.076251	167.200000
1316.099924	157.400000
1318.121263	155.600000
1320.142136	133.800000
1322.162541	141.400000
1324.178753	177.200000
1326.196362	170.800000
1328.211643	196.600000
1330.230183	179.000000
1332.244534	181.000000
1334.256558	201.000000
1336.271841	191.000000
1338.282938	181.600000
1340.295432	204.400000
1342.303743	197.000000
1344.315309	188.000000
1346.320837	219.800000
1348.329620	185.600000
1350.334225	204.000000
1352.342084	175.200000
1354.349481	185.600000
1356.350847	165.400000
1358.353609	188.800000
1360.355912	164.200000
1362.357755	149.800000
1364.359138	156.600000
1366.358208	163.200000
1368.356819	145.600000
1370.354971	142.600000
1372.352666	130.800000
1374.346198	132.600000
1376.341125	147.800000
1378.335596	143.200000
1380.329610	138.800000
1382.321317	124.600000
1384.312568	119.400000
1386.301514	101.200000
1388.291856	93.200000
1390.281742	121.800000
1392.269324	110.600000
1394.256453	138.000000
1396.241280	123.000000
1398.227502	120.000000
1400.211423	141.800000
1402.194892	110.400000
1404.177909	127.800000
1406.158628	106.400000
1408.140741	117.400000
1410.120558	126.200000
1412.099923	111.400000
1414.075150	105.600000
1416.053615	114.000000
1418.029787	115.800000
1420.005509	104.000000
1421.980783	134.800000
1423.953765	127.000000
1425.926299	100.400000
1427.898385	114.600000
1429.870024	117.600000
1431.837534	106.200000
1433.810118	103.600000
1435.774896	133.000000
1437.744747	133.200000
1439.710474	119.600000
1441.677593	106.600000
1443.642429	101.000000
1445.603145	123.400000
1447.568929	112.600000
1449.528758	127.800000
1451.489981	135.800000
1453.452595	123.200000
1455.411095	108.200000
1457.369153	138.200000
1459.326769	137.000000
1461.283942	124.400000
1463.238840	122.800000
1465.195131	144.800000
1467.149147	105.200000
1469.102722	138.800000
1471.054025	133.400000
1473.006721	111.000000
1474.957144	120.200000
1476.907129	145.800000
1478.856675	127.800000
1480.803952	155.800000
1482.748961	106.800000
1484.695363	121.200000
1486.641327	108.600000
1488.586854	131.400000
1490.530115	118.400000
1492.472941	121.600000
1494.413502	131.600000
1496.355456	143.000000
1498.295147	134.000000
1500.234403	114.000000
1502.173225	94.200000
1504.109787	136.200000
1506.047740	122.200000
1507.983434	118.600000
1509.918695	113.600000
1511.851699	154.800000
1513.784272	110.200000
1515.716412	151.000000
1517.648120	130.600000
1519.577574	139.200000
1521.508419	147.200000
1523.438832	152.800000
1525.365173	139.400000
1527.292904	161.000000
1529.218386	127.200000
1531.143438	158.200000
1533.068061	174.400000
1534.992254	176.200000
1536.914201	174.200000
1538.837538	197.400000
1540.758628	198.400000
1542.677474	191.200000
1544.597710	214.800000
1546.515703	239.800000
1548.433269	266.600000
1550.348593	306.400000
1552.265307	315.800000
1554.177966	389.800000
1556.093829	440.400000
1558.007452	502.200000
1559.918837	598.600000
1561.831612	671.800000
1563.740337	730.600000
1565.650451	831.000000
1567.560142	854.200000
1569.469410	831.000000
1571.376444	780.000000
1573.281245	693.200000
1575.187435	644.600000
1577.091393	536.600000
1578.994930	486.800000
1580.898047	418.600000
1582.798934	383.400000
1584.701210	343.000000
1586.601258	270.200000
1588.502693	253.800000
1590.400095	270.200000
1592.297078	247.200000
1594.193643	179.200000
1596.091595	223.200000
1597.983713	185.200000
1599.879025	195.200000
1601.773919	194.000000
1603.666591	185.800000
1605.558846	174.800000
1607.448882	194.400000
1609.338502	186.400000
1611.227707	173.200000
1613.116497	162.600000
1615.003069	141.800000
1616.891029	167.200000
1618.774972	151.400000
1620.660302	159.200000
1622.545219	134.800000
1624.427922	124.000000
1626.312012	122.200000
1628.192090	144.400000
1630.073556	110.800000
1631.952811	115.200000
1633.833452	135.400000
1635.708289	103.800000
1637.588107	126.600000
1639.463921	106.400000
1641.339324	109.200000
1643.216113	112.000000
1645.087106	98.200000
1646.961280	108.400000
1648.831455	141.200000
1650.704811	128.600000
1652.575964	145.200000
1654.444916	107.400000
1656.315252	106.600000
1658.181596	85.200000
1660.049325	117.200000
1661.914855	121.800000
1663.781771	125.600000
1665.644698	82.600000
1667.509010	117.800000
1669.371126	133.200000
1671.232837	145.600000
1673.095934	111.000000
1674.956835	113.400000
1676.815544	110.200000
1678.673849	126.600000
1680.533538	91.400000
1682.387461	112.600000
1684.244557	110.600000
1686.101249	124.200000
1687.953966	110.400000
1689.809854	108.800000
1691.661768	98.000000
1693.513281	111.600000
1695.364393	110.600000
1697.215105	106.000000
1699.065415	107.200000
1700.913542	91.000000
1702.763053	119.600000
1704.606814	122.400000
1706.455526	100.600000
1708.298491	116.000000
1710.144623	104.400000
1711.986792	96.600000
1713.832127	92.400000
1715.671721	86.600000
1717.512699	109.400000
1719.355060	127.200000
1721.193465	112.800000
1723.033253	116.000000
1724.870865	104.000000
1726.708083	98.800000
1728.543127	111.000000
1730.379554	134.200000
1732.213809	97.000000
1734.047669	119.200000
1735.881135	115.800000
1737.710656	120.800000
1739.543335	123.200000
1741.372070	89.200000
1743.203962	91.600000
1745.031912	103.200000
1746.859471	93.200000
1748.686637	108.800000
1750.513412	93.600000
1752.339795	99.600000
1754.162242	98.000000
1755.987844	83.400000
1757.809511	100.800000
1759.632560	120.400000
1761.453447	106.200000
1763.273946	110.200000
1765.095825	102.000000
1766.912006	120.800000
1768.731338	90.600000
1770.546742	108.200000
1772.365298	91.800000
1774.179928	121.000000
1775.994171	77.200000
1777.808028	87.800000
1779.621498	95.600000
1781.432815	113.400000
1783.245512	102.400000
1785.057824	97.200000
1786.866217	106.800000
1788.675992	106.000000
1790.481852	78.400000
1792.290857	98.400000
1794.095949	114.000000
1795.902422	94.600000
1797.708511	118.000000
1799.510689	114.800000
1801.316012	92.800000
1803.117426	101.400000
1804.920220	126.400000
1806.719108	85.400000
1808.519377	104.000000
1810.319264	93.800000
1812.117009	110.200000
1813.914374	81.200000
1815.711359	102.600000
1817.507963	91.600000
1819.302428	79.400000
1821.098272	91.000000
1822.888461	104.600000
1824.683547	89.200000
1826.472981	133.000000
1828.265551	84.800000
1830.055986	84.400000
1831.844287	100.800000
1833.635723	131.200000
1835.421513	125.800000
1837.208683	70.000000
1838.993721	119.200000
1840.781893	94.600000
1842.566179	127.000000
1844.348335	101.600000
1846.131871	116.200000
1847.913278	100.600000
1849.696064	98.200000
1851.474969	113.200000
1853.255253	102.400000
1855.033412	109.600000
1856.812949	122.600000
1858.590360	104.200000
1860.365649	128.800000
1862.142315	90.600000
1863.916859	94.200000
1865.692781	118.400000
1867.463082	95.000000
1869.236511	100.800000
1871.007820	125.400000
1872.778758	97.200000
1874.551074	91.000000
1876.317776	112.400000
1878.087603	112.400000
1879.853567	84.400000
1881.622655	119.800000
1883.387881	102.400000
1885.152739	97.600000
1886.918974	100.000000
1888.681350	103.400000
1890.443358	122.200000
1892.205000	90.200000
1893.966275	97.800000
1895.727182	112.200000
1897.487723	96.200000
1899.246154	97.600000
1901.004219	89.200000
1902.760177	97.600000
1904.517511	112.400000
1906.274480	90.800000
1908.029342	98.600000
1909.782100	81.400000
1911.534493	92.600000
1913.288263	99.400000
1915.039929	87.400000
1916.789493	120.800000
1918.540432	104.200000
1920.291009	98.200000
1922.037746	80.000000
1923.785860	115.600000
1925.531874	85.800000
1927.279263	116.600000
1929.024555	95.000000
1930.767749	109.000000
1932.512318	92.400000
1934.254791	94.400000
1935.996905	81.600000
1937.738658	89.000000
1939.480051	99.800000
1941.219351	104.600000
1942.958292	67.200000
1944.696874	114.400000
1946.433365	81.000000
1948.169498	73.800000
1949.907005	66.600000
1951.640690	101.200000
1953.375750	94.400000
1955.108721	111.400000
1956.841336	114.800000
1958.573595	102.800000
1960.305497	108.800000
1962.035313	107.800000
1963.763044	92.000000
1965.492150	100.200000
1967.220900	110.600000
1968.947568	110.800000
1970.673881	91.400000
1972.401567	106.200000
1974.123717	109.400000
1975.848968	98.200000
1977.570412	81.800000
1979.294957	78.600000
1981.017421	71.000000
1982.736083	93.000000
1984.457843	92.800000
1986.175801	85.400000
1987.895132	79.000000
1989.610664	131.000000
1991.331016	118.200000
1993.047570	99.600000
1994.760327	120.800000
1996.476180	106.400000
1998.189961	100.600000
1999.903392	95.000000
2001.614752	112.000000
2003.327484	96.200000
2005.036426	99.200000
2006.748460	102.000000
2008.454985	96.400000
2010.164603	104.400000
2011.872154	101.400000
2013.579356	131.200000
2015.284493	72.800000
2016.989284	107.200000
2018.695446	120.400000
2020.397826	112.000000
2022.101577	68.600000
2023.803266	88.000000
2025.504609	100.400000
2027.205608	92.600000
2028.904545	104.000000
2030.604854	73.800000
2032.301387	123.000000
2033.999292	120.600000
2035.695139	110.600000
2037.394071	111.000000
2039.087517	107.600000
2040.782334	116.400000
2042.476809	85.800000
2044.167515	79.600000
2045.861305	86.600000
2047.551328	109.200000
2049.242722	95.800000
2050.932063	114.000000
2052.622774	103.200000
2054.309722	87.400000
2055.996331	105.600000
2057.684309	80.000000
2059.368528	100.600000
2061.054118	74.800000
2062.739368	82.800000
2064.422569	118.800000
2066.107141	112.000000
2067.786249	97.000000
2069.470144	76.800000
2071.148577	118.600000
2072.830088	91.600000
2074.507847	131.200000
2076.185270	91.400000
2077.864062	113.800000
2079.540812	83.200000
2081.215519	86.800000
2082.891597	82.600000
2084.565633	132.600000
2086.239335	73.000000
2087.912701	94.200000
2089.584028	92.800000
2091.255021	122.000000
2092.925680	80.400000
2094.596005	108.800000
2096.265996	61.600000
2097.933951	91.200000
2099.601573	100.400000
2101.267160	110.600000
2102.934116	107.200000
2104.599039	93.000000
2106.263630	92.400000
2107.926189	107.800000
2109.590116	70.200000
2111.252012	116.000000
2112.913578	78.000000
2114.574812	121.400000
2116.234018	94.000000
2117.892893	123.400000
2119.551439	104.000000
2121.209654	97.000000
2122.864147	118.600000
2124.521704	104.000000
2126.178931	95.400000
2127.832438	87.000000
2129.487312	92.600000
2131.138467	96.400000
2132.792685	102.000000
2134.443185	91.200000
2136.095053	111.200000
2137.741512	109.800000
2139.392726	99.200000
2141.040226	87.000000
2142.689093	78.200000
2144.335941	92.200000
2145.982464	87.600000
2147.628661	112.800000
2149.271150	85.000000
2150.916697	99.200000
2152.558537	100.800000
2154.203434	95.400000
2155.844625	72.200000
2157.485494	89.000000
2159.126038	93.600000
2160.764570	83.200000
2162.404468	94.400000
2164.040666	112.000000
2165.678230	123.400000
2167.315472	87.000000
2168.950704	105.800000
2170.585614	74.200000
2172.220203	123.200000
2173.854471	102.200000
2175.485045	90.000000
2177.118671	85.800000
2178.748605	115.600000
2180.379904	121.800000
2182.009198	89.000000
2183.638173	85.000000
2185.266828	108.000000
2186.895164	87.600000
2188.521498	87.600000
2190.147513	107.600000
2191.771526	95.400000
2193.396905	90.600000
2195.020283	83.800000
2196.645026	94.600000
2198.266088	82.200000
2199.886833	112.000000
2201.508942	108.200000
2203.129054	105.000000
2204.747170	57.400000
2206.364970	115.200000
2207.982455	64.600000
2209.599624	68.400000
2211.216478	96.200000
2212.833016	107.000000
2214.447562	86.200000
2216.060115	115.000000
2217.674032	93.600000
2219.285958	87.400000
2220.899247	89.000000
2222.510546	81.400000
2224.119855	107.000000
2225.730528	120.400000
2227.339212	120.600000
2228.947583	95.400000
2230.553968	88.200000
2232.161715	82.400000
2233.767477	96.000000
2235.372927	103.800000
2236.976392	86.000000
2238.581220	108.400000
2240.184064	81.400000
2241.784925	101.800000
2243.387149	84.000000
2244.987391	103.400000
2246.588995	95.400000
2248.186946	107.600000
2249.786260	92.200000
2251.383594	92.000000
2252.980620	57.000000
2254.579008	110.400000
2256.173747	84.800000
2257.766509	86.600000
2259.360634	104.400000
2260.956120	107.400000
2262.547961	83.200000
2264.139496	106.000000
2265.732393	92.600000
2267.319980	93.800000
2268.912263	79.800000
2270.499240	93.600000
2272.089244	93.200000
2273.673944	95.600000
2275.263338	75.200000
2276.847430	117.400000
2278.432882	93.200000
2280.016366	110.400000
2281.602875	102.800000
2283.185751	102.800000
2284.768324	73.600000
2286.350593	93.000000
2287.929232	95.400000
2289.510896	90.200000
2291.088931	76.400000
2292.669989	102.400000
2294.247420	90.500000
2295.822888	78.600000
2297.401378	86.600000
2298.976244	97.600000
2300.550809	97.600000
2302.125073	121.000000
2303.699038	79.800000
2305.272701	74.200000
2306.846065	89.800000
2308.415810	84.600000
2309.985256	75.200000
2311.557720	96.200000
2313.124910	88.800000
2314.695118	81.200000
2316.261711	62.200000
2317.829664	82.800000
2319.395661	84.800000
2320.961361	99.000000
2322.526763	103.000000
2324.090212	80.600000
2325.655020	73.400000
2327.216220	121.800000
2328.780434	107.800000
2330.339386	119.400000
2331.901352	93.000000
2333.461368	121.600000
2335.021089	99.400000
2336.578860	102.800000
2338.136336	88.200000
2339.693518	85.800000
2341.248752	98.400000
2342.803693	98.800000
2344.358339	95.800000
2345.912692	68.400000
2347.466751	96.600000
2349.020517	99.600000
2350.572338	99.200000
2352.122217	120.800000
2353.675103	92.400000
2355.222746	107.600000
2356.773398	99.800000
2358.320458	68.200000
2359.868876	111.200000
2361.417003	114.800000
2362.961541	98.000000
2364.507437	98.400000
2366.051395	94.800000
2367.596709	85.400000
2369.138440	81.200000
2370.681527	97.800000
2372.222678	94.200000
2373.763540	93.600000
2375.304113	108.400000
2376.844397	96.200000
2378.384392	114.800000
2379.920809	95.200000
2381.460227	83.400000
2382.996067	87.400000
2384.533265	86.800000
2386.066887	82.600000
2387.603509	102.000000
2389.138201	98.400000
2390.670963	66.600000
2392.203438	107.400000
2393.733985	103.200000
2395.267530	111.000000
2396.795864	106.600000
2398.325554	99.600000
2399.854959	99.600000
2401.384079	107.800000
2402.912913	103.600000
2404.436543	106.600000
2405.964808	99.600000
2407.487871	97.600000
2409.015567	94.200000
2410.536424	101.600000
2412.061913	108.800000
2413.583843	93.600000
2415.107127	88.800000
2416.628491	95.000000
2418.147935	96.800000
2419.668734	106.800000
2421.187614	121.000000
2422.706213	96.800000
2424.222894	109.600000
2425.740929	122.200000
2427.258683	116.800000
2428.772885	114.800000
2430.286808	99.600000
2431.800450	104.400000
2433.315447	124.200000
2434.826895	120.400000
2436.339697	113.600000
2437.850587	117.400000
2439.361198	109.800000
2440.869897	88.000000
2442.381582	82.400000
2443.889724	104.400000
2445.397588	93.200000
2446.905174	102.200000
2448.409219	113.600000
2449.916249	109.000000
2451.421371	111.600000
2452.926216	114.400000
2454.429154	107.600000
2455.931816	130.800000
2457.434201	76.400000
2458.934681	120.000000
2460.436514	67.600000
2461.936442	114.400000
2463.436095	99.800000
2464.935473	120.000000
2466.432948	88.600000
2467.928521	89.600000
2469.427074	99.600000
2470.922099	118.400000
2472.418476	105.800000
2473.911327	110.400000
2475.405531	79.800000
2476.899461	113.800000
2478.389867	88.000000
2479.883251	111.000000
2481.374737	90.400000
2482.864326	100.200000
2484.353643	64.200000
2485.841064	89.600000
2487.331461	102.600000
2488.818340	92.000000
2490.306570	94.800000
2491.791283	87.600000
2493.275727	76.000000
2494.761521	102.800000
2496.245424	95.400000
2497.730677	84.000000
2499.210797	82.200000
2500.693890	110.600000
2502.175092	86.800000
2503.656025	106.600000
2505.135069	100.200000
2506.613844	96.400000
2508.092351	97.800000
2509.570590	84.000000
2511.048560	90.000000
2512.523025	86.400000
2514.000460	93.000000
2515.474391	111.400000
2516.949672	75.600000
2518.424686	108.000000
2519.896199	106.000000
2521.369063	98.600000
2522.840044	81.600000
2524.312375	95.400000
2525.779592	94.800000
2527.249776	101.600000
2528.718079	108.600000
2530.186117	80.000000
2531.653890	92.600000
2533.121398	90.000000
2534.588641	106.800000
2536.052392	103.200000
2537.517493	71.200000
2538.980717	88.800000
2540.445290	72.400000
2541.906375	61.400000
2543.368809	80.000000
2544.830980	101.800000
2546.289665	79.800000
2547.752921	71.400000
2549.211082	84.400000
2550.670591	75.800000
2552.125006	86.200000
2553.583992	118.200000
2555.041106	86.400000
2556.496348	113.000000
2557.951330	84.600000
2559.404443	130.000000
2560.858903	92.000000
2562.311495	104.400000
2563.763827	112.600000
2565.214292	122.200000
2566.667712	90.000000
2568.116050	115.000000
2569.567343	102.800000
2571.016771	105.600000
2572.462726	94.400000
2573.911636	124.200000
2575.357076	91.200000
2576.803863	99.800000
2578.248787	84.800000
2579.693454	122.200000
2581.139468	109.000000
2582.582016	96.000000
2584.025911	108.000000
2585.466340	113.800000
2586.908118	109.000000
2588.348036	134.000000
2589.789301	99.600000
2591.227104	118.000000
2592.667857	88.600000
2594.103548	106.200000
2595.542188	87.000000
2596.978970	114.600000
2598.413897	103.200000
2599.851771	122.400000
2601.284588	109.400000
2602.718752	121.200000
2604.151062	121.000000
2605.584718	94.600000
2607.016521	118.800000
2608.448070	112.600000
2609.879367	103.400000
2611.308811	133.000000
2612.738003	107.600000
2614.165345	122.000000
2615.594032	116.200000
2617.022468	132.400000
2618.447456	102.600000
2619.873791	111.600000
2621.298277	98.600000
2622.724109	125.400000
2624.146497	134.600000
2625.570231	135.000000
2626.992118	113.800000
2628.413756	152.000000
2629.833548	140.600000
2631.254686	167.400000
2632.675574	146.400000
2634.093023	140.800000
2635.513413	133.400000
2636.930365	153.600000
2638.347068	152.000000
2639.763523	180.800000
2641.179730	168.400000
2642.595689	153.800000
2644.009807	167.400000
2645.423677	182.600000
2646.835709	174.800000
2648.249084	156.000000
2649.659030	175.000000
2651.071912	175.000000
2652.481365	171.800000
2653.890572	184.800000
2655.297943	201.400000
2656.708248	202.000000
2658.116718	185.600000
2659.523352	168.200000
2660.929741	203.600000
2662.334296	181.600000
2663.740195	187.200000
2665.144261	197.400000
2666.548082	203.200000
2667.951659	231.600000
2669.353405	185.200000
2670.756494	217.800000
2672.156165	216.800000
2673.557180	237.800000
2674.954779	175.400000
2676.355307	222.200000
2677.752421	249.800000
2679.150878	237.000000
2680.547508	220.800000
2681.943895	225.000000
2683.340040	217.000000
2684.734359	232.200000
2686.130021	232.800000
2687.522274	236.600000
2688.915869	214.800000
2690.307640	228.800000
2691.700754	240.800000
2693.092044	256.400000
2694.481511	229.400000
2695.870738	223.800000
2697.259726	208.400000
2698.650055	240.400000
2700.035401	207.800000
2701.423670	225.000000
2702.810119	215.200000
2704.196329	210.200000
2705.582300	214.400000
2706.964873	221.400000
2708.348788	196.000000
2709.732465	176.000000
2711.115903	193.400000
2712.495946	192.400000
2713.877331	179.600000
2715.256901	219.800000
2716.637811	161.800000
2718.016907	169.600000
2719.394189	167.400000
2720.772812	152.400000
2722.149621	158.200000
2723.526195	160.000000
2724.902533	154.600000
2726.277060	163.000000
2727.652927	113.600000
2729.025407	142.600000
2730.400803	135.200000
2731.771239	144.600000
2733.143016	111.200000
2734.514558	139.200000
2735.884292	109.400000
2737.255367	127.800000
2738.624633	109.400000
2739.993666	122.000000
2741.360893	118.400000
2742.727886	91.600000
2744.094647	91.200000
2745.461176	116.800000
2746.825899	103.400000
2748.190390	124.400000
2749.554650	114.400000
2750.918677	113.800000
2752.282473	109.800000
2753.642895	108.200000
2755.006227	103.000000
2756.364617	84.000000
2757.725917	88.400000
2759.083847	109.600000
2760.444685	113.800000
2761.803724	111.400000
2763.159394	90.200000
2764.517972	87.600000
2765.873183	80.000000
2767.228165	96.200000
2768.581350	88.600000
2769.937442	93.800000
2771.290170	122.200000
2772.642670	96.200000
2773.994941	96.800000
2775.348550	76.800000
2776.698799	77.800000
2778.047253	90.400000
2779.398612	125.200000
2780.746613	97.200000
2782.095951	95.800000
2783.443497	94.600000
2784.790817	66.800000
2786.137910	86.600000
2787.483211	61.000000
2788.828287	105.400000
2790.173137	73.800000
2791.517761	93.800000
2792.859033	88.200000
2794.201643	79.800000
2795.544027	75.800000
2796.886186	73.200000
2798.224996	64.200000
2799.566706	63.800000
2800.905067	87.200000
2802.244766	78.800000
2803.582680	89.400000
2804.918809	99.800000
2806.254714	74.000000
2807.591957	72.000000
2808.927416	98.800000
2810.262652	81.800000
2811.596105	60.200000
2812.930895	63.000000
2814.262345	88.800000
2815.596690	94.800000
2816.926137	88.800000
2818.256920	83.000000
2819.587483	68.800000
2820.916266	84.400000
2822.246385	92.400000
2823.574726	98.800000
2824.902846	68.000000
2826.229188	81.000000
2827.556867	74.000000
2828.881212	78.000000
2830.206894	81.200000
2831.530800	71.000000
2832.854486	53.200000
2834.179509	71.800000
2835.501201	77.200000
2836.822675	80.600000
2838.143930	38.200000
2839.464966	93.400000
2840.784229	92.600000
2842.104828	92.200000
2843.423656	45.800000
2844.742265	111.400000
2846.059103	83.800000
2847.375724	101.400000
2848.692128	65.600000
2850.006762	75.200000
2851.322732	75.800000
2852.635381	72.800000
2853.949365	75.600000
2855.263133	110.600000
2856.576684	70.800000
2857.888469	84.400000
2859.198487	75.400000
2860.509840	101.400000
2861.817878	86.400000
2863.127250	79.000000
2864.436408	81.400000
2865.745350	82.600000
2867.052528	44.800000
2868.357944	92.600000
2869.664693	87.600000
2870.969681	80.800000
2872.274454	58.000000
2873.577467	78.800000
2874.883360	88.000000
2876.184399	72.000000
2877.486772	71.400000
2878.787385	85.000000
2880.089332	56.800000
2881.391065	83.600000
2882.689495	50.000000
2883.989258	60.800000
2885.287264	57.600000
2886.585058	92.400000
2887.881096	82.000000
2889.178467	86.200000
2890.474082	55.200000
2891.769486	76.800000
2893.064679	78.400000
2894.356575	66.600000
2895.651347	53.400000
2896.942822	86.000000
2898.235630	67.800000
2899.528228	78.800000
2900.817532	87.000000
2902.108168	57.600000
2903.397053	57.200000
2904.687270	100.800000
2905.974196	83.400000
2907.262454	79.000000
2908.548963	73.200000
2909.835263	74.600000
2911.121356	64.200000
2912.405700	74.400000
2913.692915	82.800000
2914.975304	83.600000
2916.259025	84.800000
2917.541000	73.400000
2918.822767	68.000000
2920.102789	75.600000
2921.385682	83.000000
2922.666829	92.600000
2923.944694	83.000000
2925.225428	96.000000
2926.502881	111.600000
2927.780128	57.800000
2929.055633	59.400000
2930.334006	78.600000
2931.607565	89.600000
2932.883991	82.600000
2934.158676	71.800000
2935.431620	84.200000
2936.705896	53.200000
2937.978432	52.000000
2939.250763	69.200000
2940.519822	81.200000
2941.791746	65.400000
2943.061932	91.800000
2944.331914	63.600000
2945.601693	55.000000
2946.869736	74.400000
2948.136042	80.000000
2949.402147	66.000000
2950.669581	49.400000
2951.935280	89.400000
2953.200778	84.200000
2954.466073	58.200000
2955.728103	86.000000
2956.991463	59.800000
2958.254622	87.000000
2959.516049	61.000000
2960.778805	66.400000
2962.039829	80.400000
2963.299123	69.400000
2964.558217	41.000000
2965.817110	61.400000
2967.075803	71.800000
2968.334296	77.200000
2969.591060	74.600000
2970.847624	84.200000
2972.102460	60.400000
2973.358626	70.400000
2974.611537	61.400000
2975.865777	74.800000
2977.119817	79.800000
2978.372132	67.400000
2979.624249	67.400000
2980.874641	49.400000
2982.127888	57.600000
2983.376358	68.600000
2984.627683	63.600000
2985.875758	76.400000
2987.123636	51.000000
2988.371318	54.200000
2989.618802	87.800000
2990.864565	60.400000
2992.110132	31.000000
2993.357026	52.200000
2994.600676	79.200000
2995.845654	67.800000
2997.087388	68.800000
2998.331974	65.200000
2999.574841	67.600000
3000.814467	83.800000
3002.056943	66.800000
3003.296179	46.800000
3004.536743	37.000000
3005.775590	82.400000
3007.014243	63.800000
3008.251180	84.800000
3009.489445	63.000000
3010.725994	82.400000
3011.962350	57.000000
3013.198512	36.400000
3014.432960	37.600000
3015.667216	75.000000
3016.901278	60.200000
3018.133627	73.800000
3019.364266	63.600000
3020.597750	62.800000
3021.829522	66.800000
3023.059584	72.400000
3024.289453	59.800000
3025.517613	61.200000
3026.747100	29.800000
3027.974877	72.600000
3029.202463	40.400000
3030.431375	60.000000
3031.655546	48.800000
3032.882559	97.200000
3034.106348	73.800000
3035.331464	63.400000
3036.554873	62.600000
3037.778092	71.400000
3038.999606	75.000000
3040.223961	66.600000
3041.443581	61.600000
3042.664527	66.000000
3043.885284	65.400000
3045.104337	65.400000
3046.324715	76.600000
3047.541877	74.600000
3048.760365	42.600000
3049.977150	70.000000
3051.193748	76.600000
3052.410157	42.800000
3053.623353	62.200000
3054.839388	57.600000
3056.052210	49.200000
3057.267869	89.000000
3058.478805	66.600000
3059.691066	47.600000
3060.903140	66.600000
3062.115028	51.800000
3063.325219	31.800000
3064.535223	70.800000
3065.745041	63.600000
3066.953163	38.000000
3068.161100	50.600000
3069.367341	79.400000
3070.574907	46.800000
3071.780778	72.900000
3072.986465	99.000000
3074.191966	49.600000
3075.395774	54.000000
3076.600906	74.200000
3077.804345	26.000000
3079.006093	68.600000
3080.207656	53.400000
3081.409036	67.400000
3082.610232	58.800000
3083.809738	51.600000
3085.009061	52.200000
3086.209707	42.400000
3087.408663	54.400000
3088.604425	54.400000
3089.803016	73.000000
3090.998413	62.200000
3092.195133	47.800000
3093.388661	42.200000
3094.585017	80.200000
3095.779686	52.600000
3096.971165	48.000000
3098.166976	68.000000
3099.358092	78.000000
3100.550532	53.200000
3101.739784	61.800000
3102.931861	58.000000
3104.122255	70.000000
3105.309463	86.200000
3106.497993	45.600000
3107.687846	69.800000
3108.874515	40.200000
3110.061003	63.000000
3111.247313	71.600000
3112.434944	68.400000
3113.619393	46.400000
3114.802163	63.000000
3115.987755	49.400000
3117.171668	69.400000
3118.353902	63.400000
3119.535957	74.800000
3120.717834	49.600000
3121.899533	69.600000
3123.079555	62.600000
3124.257900	85.400000
3125.439065	72.200000
3126.617055	74.000000
3127.794868	83.400000
3128.972504	47.200000
3130.148466	64.000000
3131.324250	60.000000
3132.501356	34.000000
3133.676787	70.200000
3134.850545	52.800000
3136.022630	69.800000
3137.196037	68.200000
3138.369267	71.400000
3139.540826	61.800000
3140.713705	69.000000
3141.883417	57.400000
3143.054450	80.200000
3144.223813	71.200000
3145.391505	64.200000
3146.562013	59.800000
3147.727863	44.600000
3148.898021	40.600000
3150.063523	83.400000
3151.228850	42.200000
3152.394004	67.400000
3153.558985	85.200000
3154.725285	73.000000
3155.886933	54.800000
3157.049900	55.800000
3158.212695	61.200000
3159.375317	64.600000
3160.536273	66.800000
3161.697058	61.800000
3162.857670	66.400000
3164.016618	61.000000
3165.175395	52.800000
3166.333999	88.400000
3167.492432	50.400000
3168.650694	48.400000
3169.807293	75.400000
3170.962231	60.000000
3172.118488	61.200000
3173.273084	61.800000
3174.427510	50.400000
3175.580276	75.600000
3176.732871	43.600000
3177.885297	36.000000
3179.037553	45.000000
3180.189638	75.200000
3181.338577	49.800000
3182.490324	40.200000
3183.640412	73.800000
3184.788844	71.800000
3185.937106	43.000000
3187.085200	53.800000
3188.233125	35.000000
3189.379394	59.400000
3190.525495	76.600000
3191.669942	68.800000
3192.814221	59.000000
3193.958332	56.400000
3195.103760	61.800000
3196.246050	58.000000
3197.388173	41.600000
3198.530128	43.200000
3199.671916	62.800000
3200.813537	64.000000
3201.952023	67.800000
3203.091826	57.200000
3204.232946	57.800000
3205.370933	82.000000
3206.507270	56.600000
3207.643441	62.000000
3208.780929	47.400000
3209.916769	79.200000
3211.053926	66.400000
3212.186470	66.800000
3213.323296	64.800000
3214.455510	97.200000
3215.589041	36.800000
3216.722408	75.000000
3217.852647	26.800000
3218.985684	63.000000
3220.115595	51.000000
3221.246822	68.600000
3222.374925	67.200000
3223.505824	56.200000
3224.635079	41.200000
3225.762691	40.800000
3226.887180	49.800000
3228.015945	49.600000
3229.141588	49.000000
3230.267069	78.200000
3231.390907	43.000000
3232.517541	55.000000
3233.639577	59.000000
3234.762929	93.000000
3235.886119	45.200000
3237.009146	62.600000
3238.130535	56.000000
3239.251761	66.400000
3240.371350	40.400000
3241.490777	73.400000
3242.608566	18.800000
3243.729147	49.000000
3244.846615	39.600000
3245.963922	52.200000
3247.081069	45.400000
3248.196579	62.800000
3249.313405	48.600000
3250.427121	53.600000
3251.543626	37.200000
3252.658497	54.800000
3253.770258	68.200000
3254.881861	30.400000
3255.994779	26.600000
3257.107537	53.600000
3258.217189	70.800000
3259.328156	30.400000
3260.438964	21.000000
3261.548140	74.800000
3262.655685	31.400000
3263.764545	79.200000
3264.873247	73.400000
3265.978846	61.400000
3267.085759	34.800000
3268.191043	34.200000
3269.297641	61.000000
3270.401139	71.800000
3271.505952	72.800000
3272.610606	73.200000
3273.712163	47.600000
3274.813563	45.800000
3275.916277	46.800000
3277.018835	61.000000
3278.118296	42.600000
3279.220541	58.000000
3280.319690	32.600000
3281.417215	66.200000
3282.514584	50.000000
3283.614735	69.400000
3284.711794	52.200000
3285.808697	42.000000
3286.905445	58.200000
3287.997634	51.400000
3289.094073	57.000000
3290.188889	46.000000
3291.283551	40.000000
3292.376591	68.000000
3293.469476	52.400000
3294.560741	27.400000
3295.653319	65.000000
3296.744277	51.000000
3297.833615	50.600000
3298.922800	62.600000
3300.013298	52.800000
3301.100711	60.200000
3302.187971	46.800000
3303.276544	54.800000
3304.364964	57.600000
3305.448838	42.800000
3306.536953	49.200000
3307.621986	62.800000
3308.705404	41.600000
3309.790134	58.400000
3310.873248	37.600000
3311.957675	64.800000
3313.039023	53.000000
3314.121683	44.600000
3315.202729	70.200000
3316.283624	55.400000
3317.362905	45.200000
3318.442036	61.400000
3319.522479	46.200000
3320.599847	59.800000
3321.678527	56.000000
3322.755595	34.000000
3323.832514	33.800000
3324.907821	48.800000
3325.982979	32.600000
3327.059448	41.600000
3328.132847	67.800000
3329.206096	47.200000
3330.280657	34.400000
3331.353609	26.400000
3332.424952	41.600000
3333.497606	47.600000
3334.567194	34.800000
3335.638092	65.600000
3336.707383	42.200000
3337.777985	55.400000
3338.846980	62.600000
3339.914369	45.200000
3340.980153	53.800000
3342.050163	48.400000
3343.117110	46.400000
3344.180995	49.000000
3345.247647	38.200000
3346.312696	76.200000
3347.376141	47.600000
3348.439440	17.600000
3349.502592	57.400000
3350.565598	66.200000
3351.628458	35.400000
3352.689716	47.000000
3353.747917	52.800000
3354.810338	72.600000
3355.869704	51.200000
3356.928924	84.800000
3357.989453	51.200000
3359.045474	49.200000
3360.104258	54.200000
3361.158535	51.800000
3362.215576	51.000000
3363.271018	50.200000
3364.327770	44.000000
3365.382923	69.400000
3366.436479	35.200000
3367.488439	69.600000
3368.543160	47.400000
3369.594832	55.800000
3370.646361	51.800000
3371.699198	38.200000
3372.748988	43.600000
3373.800087	36.200000
3374.848140	8.600000
3375.898952	36.400000
3376.946720	79.000000
3377.994344	42.000000
3379.041827	34.600000
3380.087717	42.400000
3381.134915	49.800000
3382.179071	61.600000
3383.225985	32.600000
3384.271307	53.800000
3385.313588	35.400000
3386.355728	58.400000
3387.399177	57.000000
3388.442484	66.800000
3389.484201	57.400000
3390.525778	25.200000
3391.567213	51.200000
3392.607060	30.600000
3393.645318	41.800000
3394.684884	72.000000
3395.724310	87.000000
3396.762148	48.000000
3397.798399	46.800000
3398.834511	54.400000
3399.871930	18.000000
3400.906316	51.000000
3401.942009	29.000000
3402.977563	42.600000
3404.010086	36.600000
3405.045362	67.400000
3406.077607	39.000000
3407.109714	42.000000
3408.140237	35.400000
3409.172067	72.200000
3410.203759	20.000000
3411.232423	40.200000
3412.260950	41.000000
3413.290783	53.000000
3414.320479	51.600000
3415.347149	30.400000
3416.375125	26.600000
3417.400078	63.600000
3418.427780	32.800000
3419.452459	29.400000
3420.478444	49.600000
3421.502849	46.200000
3422.527118	47.600000
3423.549808	48.200000
3424.572362	47.400000
3425.596222	47.800000
3426.617062	46.400000
3427.637766	39.600000
3428.659777	55.600000
3429.678769	67.400000
3430.697625	45.200000
3431.717788	59.600000
3432.734934	35.200000
