-116.521679	11.200000
-113.852079	-1.600000
-111.185414	-36.000000
-108.519501	25.800000
-105.856521	25.400000
-103.192110	8.200000
-100.530630	-11.200000
-97.867721	21.000000
-95.209918	4.000000
-92.550686	17.000000
-89.892202	-0.400000
-87.236643	-4.000000
-84.579654	-9.000000
-81.927764	6.800000
-79.274444	8.400000
-76.624043	-9.200000
-73.972214	-5.800000
-71.325474	6.200000
-68.677306	31.400000
-66.029880	21.200000
-63.385369	9.200000
-60.739428	4.600000
-58.098569	-5.600000
-55.456281	14.200000
-52.816902	10.000000
-50.176093	-2.400000
-47.536025	18.800000
-44.901030	15.200000
-42.264605	-8.000000
-39.631083	0.600000
-36.996133	-12.000000
-34.366248	20.000000
-31.732771	-8.400000
-29.104356	-0.200000
-26.476675	1.400000
-23.847565	3.000000
-21.223512	18.600000
-18.595870	14.800000
-15.973281	4.800000
-13.351424	19.200000
-10.730297	36.800000
-8.109901	78.800000
-5.492392	218.000000
-2.873455	720.600000
-0.257403	1631.800000
2.357920	1752.000000
4.972515	891.600000
7.584229	107.400000
10.197371	9.600000
12.805479	17.400000
15.417169	-2.600000
18.023828	4.800000
20.631915	-7.000000
23.239278	13.800000
25.841616	-2.000000
28.447532	-15.600000
31.048426	6.800000
33.650748	26.800000
36.248053	5.400000
38.848933	3.200000
41.444798	-11.200000
44.042092	1.200000
46.638666	-8.600000
49.230231	19.400000
51.823224	0.200000
54.413356	14.400000
57.004915	-2.000000
59.593616	1.800000
62.183743	-22.000000
64.768871	8.600000
67.355427	0.200000
69.941269	22.400000
72.524257	15.400000
75.108671	9.000000
77.685957	-9.400000
80.266809	53.400000
82.844812	-2.200000
85.422105	1.200000
88.000824	13.200000
90.574561	23.400000
93.149726	-11.600000
95.722047	3.800000
98.293660	-12.600000
100.862433	28.000000
103.432633	4.800000
105.999994	0.400000
108.568782	8.800000
111.134733	18.400000
113.697849	-9.200000
116.264521	27.400000
118.821972	19.000000
121.385108	-16.000000
123.943284	34.600000
126.505015	40.200000
129.061789	25.400000
131.619989	33.000000
134.173237	32.400000
136.725787	63.400000
139.281887	83.000000
141.833039	140.400000
144.383494	159.600000
146.933251	187.000000
149.480189	196.200000
152.026432	224.000000
154.574100	180.600000
157.121072	193.000000
159.663109	171.600000
162.204452	230.400000
164.745102	195.800000
167.287178	240.200000
169.826442	196.600000
172.362898	179.600000
174.898662	171.600000
177.435852	206.200000
179.972351	184.600000
182.506044	191.800000
185.036933	194.400000
187.567134	207.000000
190.098761	173.600000
192.627586	182.200000
195.153612	190.200000
197.678952	178.200000
200.205717	195.600000
202.729686	217.400000
205.252970	185.200000
207.775569	194.600000
210.295375	194.600000
212.814497	213.000000
215.332938	197.400000
217.852802	201.200000
220.365665	167.000000
222.882059	196.000000
225.397771	163.200000
227.908593	175.600000
230.420840	176.800000
232.930305	203.400000
235.439090	169.200000
237.947198	202.800000
240.456730	180.400000
242.961381	228.200000
245.465356	205.600000
247.970755	177.200000
250.471279	182.600000
252.975326	214.400000
255.472403	206.000000
257.973003	209.000000
260.470831	192.400000
262.967986	206.400000
265.464468	208.200000
267.956087	196.000000
270.451226	212.600000
272.943598	191.600000
275.435300	227.000000
277.924239	211.600000
280.414601	205.800000
282.902202	181.600000
285.387043	207.800000
287.875399	236.000000
290.356815	207.800000
292.841745	197.800000
295.321830	189.600000
297.805427	208.800000
300.284181	221.400000
302.764358	234.600000
305.241784	181.800000
307.718546	188.200000
310.194644	211.400000
312.667995	212.200000
315.140683	234.200000
317.612710	242.200000
320.084076	250.600000
322.552697	260.600000
325.020660	238.000000
327.490044	246.400000
329.954606	212.400000
332.422672	210.800000
334.885918	219.200000
337.348506	222.000000
339.810438	262.800000
342.271713	226.800000
344.730254	205.600000
347.190217	214.200000
349.647447	226.600000
352.104023	207.200000
354.559945	233.400000
357.013137	230.800000
359.467752	228.400000
361.917565	227.400000
364.370874	193.000000
366.819384	205.400000
369.267244	216.200000
371.716526	251.400000
374.161014	194.200000
376.606924	213.000000
379.052184	204.400000
381.494726	248.400000
383.936620	224.400000
386.377867	226.200000
388.816398	220.200000
391.256350	211.000000
393.693590	185.400000
396.128117	214.200000
398.566132	221.400000
400.999370	226.400000
403.434029	218.000000
405.863916	211.400000
408.297288	197.800000
410.725890	228.000000
413.153850	203.400000
415.583232	195.800000
418.007848	189.600000
420.433886	249.200000
422.859283	220.200000
425.284040	215.800000
427.704039	218.200000
430.125458	259.800000
432.544182	230.800000
434.964326	239.200000
437.381775	227.600000
439.800644	245.200000
442.216820	218.800000
444.628248	232.400000
447.043153	248.200000
449.455369	224.600000
451.866950	203.800000
454.277897	256.000000
456.686158	211.200000
459.093786	221.000000
461.500782	222.000000
463.907147	238.200000
466.310829	219.000000
468.713881	227.400000
471.116303	208.200000
473.518095	216.400000
475.917209	223.000000
478.317743	221.600000
480.717648	216.800000
483.112831	230.200000
485.511480	212.400000
487.905408	227.600000
490.298711	187.600000
492.691389	225.800000
495.083441	211.800000
497.476911	229.400000
499.865669	170.000000
502.251761	211.600000
504.639273	191.600000
507.026162	181.600000
509.410387	184.800000
511.796030	173.000000
514.179012	167.000000
516.559333	178.400000
518.941073	194.600000
521.320154	168.000000
523.700654	155.800000
526.078496	171.200000
528.453682	159.000000
530.828252	182.400000
533.204239	141.800000
535.577574	178.600000
537.952326	149.000000
540.322393	165.400000
542.691844	147.200000
545.062713	163.200000
547.428901	165.200000
549.796508	155.600000
552.161470	132.400000
554.525818	190.000000
556.889553	130.000000
559.254706	142.200000
561.615187	139.800000
563.977086	162.000000
566.336344	138.800000
568.692964	172.600000
571.053030	119.000000
573.406404	174.000000
575.763223	153.200000
578.117407	159.200000
580.470982	134.400000
582.823950	144.400000
585.174285	174.000000
587.526038	140.200000
589.871114	150.000000
592.221653	162.600000
594.565520	134.800000
596.914848	156.000000
599.259527	133.600000
601.601582	171.800000
603.945054	130.200000
606.285903	166.600000
608.626149	136.200000
610.963776	156.000000
613.304837	120.800000
615.641260	151.000000
617.979100	162.000000
620.314323	163.800000
622.646930	152.000000
624.980953	153.400000
627.312362	163.600000
629.643173	149.600000
631.973387	133.400000
634.303002	154.200000
636.627994	149.400000
638.958428	156.400000
641.284241	157.400000
643.607446	176.800000
645.932068	152.400000
648.254084	154.600000
650.575506	158.400000
652.894326	152.000000
655.214561	128.800000
657.534203	166.400000
659.851244	128.200000
662.167693	158.800000
664.481544	121.200000
666.796811	173.000000
669.109481	159.400000
671.423566	163.600000
673.733051	108.400000
676.043952	157.600000
678.352260	137.200000
680.659980	148.200000
682.969114	133.400000
685.273656	151.600000
687.577612	142.000000
689.880982	185.600000
692.185766	157.800000
694.485963	135.600000
696.787576	119.800000
699.088603	142.200000
701.385049	159.400000
703.682910	138.200000
705.980187	125.600000
708.276881	128.200000
710.568999	149.200000
712.864528	161.000000
715.155483	152.600000
717.447853	124.200000
719.737648	132.800000
722.026862	166.600000
724.315497	126.000000
726.601559	166.800000
728.889036	141.000000
731.173941	146.000000
733.458269	119.200000
735.740028	137.400000
738.023201	140.000000
740.305797	135.600000
742.583837	148.400000
744.863292	156.600000
747.142170	132.400000
749.420474	156.600000
751.694228	130.800000
753.969395	166.600000
756.243989	164.400000
758.516024	143.400000
760.789472	137.200000
763.060362	152.400000
765.328696	145.400000
767.598443	177.600000
769.865636	139.200000
772.132258	158.600000
774.398310	115.600000
776.661811	181.800000
778.926725	129.000000
781.191069	161.000000
783.450884	145.800000
785.712111	132.600000
787.972771	126.200000
790.230885	164.200000
792.486454	149.600000
794.745414	154.800000
796.997874	129.400000
799.255702	172.000000
801.509011	142.800000
803.759780	170.000000
806.011961	168.800000
808.261603	132.000000
810.512658	141.200000
812.759201	153.000000
815.007156	153.000000
817.252577	148.200000
819.499409	145.000000
821.745680	154.200000
823.987446	128.600000
826.232596	145.600000
828.471273	131.000000
830.713332	147.200000
832.950893	143.000000
835.189866	164.600000
837.426312	133.000000
839.664169	147.400000
841.899501	135.200000
844.132310	161.200000
846.366530	140.600000
848.598227	159.400000
850.829370	143.400000
853.059958	170.000000
855.289992	130.200000
857.519472	145.000000
859.744470	157.800000
861.972843	149.600000
864.196736	141.200000
866.422041	166.000000
868.642870	145.000000
870.867071	180.600000
873.086799	189.800000
875.307937	145.200000
877.528525	151.400000
879.746604	146.800000
881.966092	118.800000
884.181114	134.200000
886.395588	136.400000
888.609515	165.400000
890.822895	142.400000
893.035727	166.800000
895.248013	134.600000
897.457796	138.000000
899.667034	134.400000
901.875727	162.400000
904.081920	131.400000
906.289524	135.000000
908.494629	136.400000
910.699191	140.400000
912.901258	145.200000
915.104734	161.200000
917.305716	149.600000
919.506156	151.200000
921.708005	144.400000
923.903463	149.200000
926.102280	154.600000
928.296658	153.600000
930.494394	161.000000
932.687694	150.600000
934.882403	149.800000
937.074626	176.400000
939.266310	136.800000
941.457457	146.200000
943.646121	148.200000
945.834249	173.400000
948.019896	143.000000
950.208895	154.800000
952.393471	160.000000
954.577512	159.600000
956.764903	156.600000
958.943990	164.400000
961.126428	162.400000
963.308332	171.000000
965.487761	151.800000
967.664718	161.800000
969.843083	153.000000
972.022855	181.800000
974.196278	148.800000
976.373047	149.000000
978.545409	168.800000
980.719179	159.400000
982.888545	166.400000
985.061255	167.600000
987.231500	154.800000
989.401215	163.400000
991.570403	148.400000
993.735193	181.200000
995.903324	190.200000
998.067060	156.400000
1000.232204	156.800000
1002.394888	170.800000
1004.557047	186.000000
1006.716749	190.600000
1008.875926	198.200000
1011.036510	180.200000
1013.194639	176.400000
1015.352245	172.800000
1017.509327	174.200000
1019.665885	221.800000
1021.818064	189.200000
1023.971650	174.200000
1026.124714	190.000000
1028.275329	191.600000
1030.427351	178.800000
1032.574999	203.800000
1034.725979	170.800000
1036.872588	210.800000
1039.018678	205.000000
1041.164250	214.200000
1043.311227	194.200000
1045.451915	191.000000
1047.595933	179.800000
1049.737510	196.800000
1051.878571	197.800000
1054.021036	202.800000
1056.157221	201.600000
1058.296733	244.800000
1060.431890	186.800000
1062.570371	199.200000
1064.704498	183.400000
1066.838112	198.400000
1068.973130	183.800000
1071.103800	200.600000
1073.235874	198.000000
1075.365519	176.600000
1077.494652	159.200000
1079.623273	196.000000
1081.751383	201.800000
1083.877067	187.400000
1086.002241	203.800000
1088.128819	180.000000
1090.251059	183.200000
1092.374704	210.600000
1094.494014	188.600000
1096.618553	202.800000
1098.736848	183.000000
1100.856547	186.400000
1102.973827	187.400000
1105.090600	188.000000
1107.206868	169.000000
1109.320719	161.800000
1111.435975	160.400000
1113.546907	165.800000
1115.661152	163.200000
1117.771076	185.400000
1119.882404	183.800000
1121.993227	192.200000
1124.099734	169.600000
1126.209550	205.400000
1128.315053	176.600000
1130.421958	187.200000
1132.522648	175.200000
1134.628550	191.600000
1136.730143	175.600000
1138.833139	177.000000
1140.935634	169.600000
1143.031922	185.400000
1145.133417	163.400000
1147.230610	162.800000
1149.327305	170.400000
1151.423501	196.000000
1153.519199	150.800000
1155.614400	189.800000
1157.707204	169.400000
1159.801410	180.200000
1161.889425	192.800000
1163.982639	186.000000
1166.069664	190.600000
1168.159988	181.200000
1170.246024	156.400000
1172.335359	166.600000
1174.418512	167.800000
1176.503067	171.000000
1178.589024	174.800000
1180.670699	180.400000
1182.753775	165.800000
1184.834466	189.200000
1186.914666	181.800000
1188.994374	176.800000
1191.073591	176.600000
1193.150426	175.800000
1195.224879	181.600000
1197.302625	174.800000
1199.376101	173.400000
1201.450977	178.800000
1203.521586	191.200000
1205.593596	176.000000
1207.663231	147.200000
1209.734265	177.200000
1211.804813	180.600000
1213.871099	194.200000
1215.938786	182.600000
1218.004101	170.200000
1220.070816	164.400000
1222.133275	170.800000
1224.199019	152.400000
1226.260509	193.200000
1228.323400	163.000000
1230.383923	176.200000
1232.443962	151.200000
1234.503518	170.000000
1236.560710	160.000000
1238.617420	190.600000
1240.671766	176.200000
1242.729394	184.800000
1244.784659	169.400000
1246.835683	191.000000
1248.888107	164.200000
1250.940051	175.200000
1252.989637	176.200000
1255.038744	183.400000
1257.087372	184.400000
1259.135522	179.200000
1261.183194	201.200000
1263.226635	173.400000
1265.273352	166.800000
1267.317715	177.600000
1269.361602	164.400000
1271.403137	182.200000
1273.442323	180.000000
1275.484782	189.600000
1277.523018	189.400000
1279.562653	188.400000
1281.601813	168.400000
1283.636754	210.800000
1285.673094	168.800000
1287.707090	187.400000
1289.742483	170.200000
1291.773664	215.400000
1293.806242	187.600000
1295.838349	181.200000
1297.868115	209.400000
1299.899278	226.200000
1301.926235	207.000000
1303.954589	194.800000
1305.978738	211.200000
1308.006153	235.600000
1310.029365	212.200000
1312.053975	223.400000
1314.076251	233.600000
1316.099924	222.800000
1318.121263	251.800000
1320.142136	250.200000
1322.162541	251.000000
1324.178753	261.000000
1326.196362	251.400000
1328.211643	272.800000
1330.230183	239.400000
1332.244534	273.200000
1334.256558	262.400000
1336.271841	272.800000
1338.282938	254.400000
1340.295432	286.400000
1342.303743	219.800000
1344.315309	251.600000
1346.320837	242.800000
1348.329620	226.000000
1350.334225	250.000000
1352.342084	267.200000
1354.349481	225.600000
1356.350847	262.800000
1358.353609	227.800000
1360.355912	241.600000
1362.357755	203.800000
1364.359138	194.800000
1366.358208	181.200000
1368.356819	165.800000
1370.354971	190.600000
1372.352666	202.800000
1374.346198	199.800000
1376.341125	202.400000
1378.335596	199.400000
1380.329610	215.600000
1382.321317	173.800000
1384.312568	204.200000
1386.301514	177.600000
1388.291856	190.600000
1390.281742	166.600000
1392.269324	167.200000
1394.256453	188.600000
1396.241280	214.200000
1398.227502	193.000000
1400.211423	170.600000
1402.194892	170.400000
1404.177909	176.600000
1406.158628	161.200000
1408.140741	184.000000
1410.120558	186.600000
1412.099923	167.000000
1414.075150	169.200000
1416.053615	173.000000
1418.029787	157.800000
1420.005509	175.200000
1421.980783	160.000000
1423.953765	196.000000
1425.926299	166.000000
1427.898385	179.400000
1429.870024	173.000000
1431.837534	191.800000
1433.810118	179.800000
1435.774896	186.200000
1437.744747	183.400000
1439.710474	185.000000
1441.677593	162.000000
1443.642429	190.200000
1445.603145	178.400000
1447.568929	209.400000
1449.528758	156.400000
1451.489981	208.600000
1453.452595	154.200000
1455.411095	199.200000
1457.369153	164.600000
1459.326769	161.800000
1461.283942	160.600000
1463.238840	213.000000
1465.195131	194.000000
1467.149147	175.200000
1469.102722	192.200000
1471.054025	212.400000
1473.006721	182.800000
1474.957144	214.000000
1476.907129	198.200000
1478.856675	187.400000
1480.803952	179.800000
1482.748961	229.000000
1484.695363	179.200000
1486.641327	181.000000
1488.586854	185.200000
1490.530115	212.400000
1492.472941	183.200000
1494.413502	202.000000
1496.355456	197.800000
1498.295147	180.600000
1500.234403	181.400000
1502.173225	196.600000
1504.109787	202.400000
1506.047740	225.400000
1507.983434	186.400000
1509.918695	225.200000
1511.851699	192.200000
1513.784272	199.800000
1515.716412	199.800000
1517.648120	242.000000
1519.577574	217.200000
1521.508419	248.000000
1523.438832	266.000000
1525.365173	258.600000
1527.292904	276.400000
1529.218386	286.600000
1531.143438	288.800000
1533.068061	293.400000
1534.992254	318.800000
1536.914201	322.200000
1538.837538	362.000000
1540.758628	404.800000
1542.677474	434.800000
1544.597710	510.600000
1546.515703	556.800000
1548.433269	584.200000
1550.348593	653.600000
1552.265307	800.600000
1554.177966	839.400000
1556.093829	936.800000
1558.007452	1035.600000
1559.918837	1037.600000
1561.831612	1016.800000
1563.740337	997.200000
1565.650451	929.000000
1567.560142	845.200000
1569.469410	733.800000
1571.376444	648.400000
1573.281245	600.800000
1575.187435	529.200000
1577.091393	457.600000
1578.994930	442.000000
1580.898047	370.400000
1582.798934	372.200000
1584.701210	342.400000
1586.601258	337.600000
1588.502693	315.000000
1590.400095	310.800000
1592.297078	296.400000
1594.193643	280.000000
1596.091595	288.600000
1597.983713	272.200000
1599.879025	239.200000
1601.773919	274.000000
1603.666591	282.200000
1605.558846	219.000000
1607.448882	230.000000
1609.338502	235.800000
1611.227707	202.000000
1613.116497	216.800000
1615.003069	195.800000
1616.891029	224.000000
1618.774972	209.000000
1620.660302	227.400000
1622.545219	224.600000
1624.427922	214.800000
1626.312012	225.000000
1628.192090	192.600000
1630.073556	196.600000
1631.952811	194.600000
1633.833452	199.800000
1635.708289	181.200000
1637.588107	188.400000
1639.463921	160.000000
1641.339324	203.800000
1643.216113	196.000000
1645.087106	178.600000
1646.961280	199.200000
1648.831455	194.600000
1650.704811	202.600000
1652.575964	182.800000
1654.444916	208.600000
1656.315252	183.400000
1658.181596	171.000000
1660.049325	175.200000
1661.914855	182.200000
1663.781771	166.400000
1665.644698	171.200000
1667.509010	205.000000
1669.371126	209.800000
1671.232837	202.000000
1673.095934	160.600000
1674.956835	172.600000
1676.815544	188.000000
1678.673849	190.000000
1680.533538	167.600000
1682.387461	176.400000
1684.244557	183.800000
1686.101249	185.200000
1687.953966	185.200000
1689.809854	166.000000
1691.661768	165.400000
1693.513281	169.400000
1695.364393	191.800000
1697.215105	174.200000
1699.065415	165.600000
1700.913542	168.800000
1702.763053	167.800000
1704.606814	171.200000
1706.455526	189.800000
1708.298491	159.400000
1710.144623	166.000000
1711.986792	159.800000
1713.832127	182.600000
1715.671721	160.600000
1717.512699	206.200000
1719.355060	177.200000
1721.193465	182.000000
1723.033253	157.400000
1724.870865	163.200000
1726.708083	171.400000
1728.543127	185.000000
1730.379554	156.000000
1732.213809	191.200000
1734.047669	166.000000
1735.881135	180.800000
1737.710656	161.000000
1739.543335	174.800000
1741.372070	185.600000
1743.203962	199.800000
1745.031912	164.600000
1746.859471	198.400000
1748.686637	147.000000
1750.513412	139.000000
1752.339795	165.800000
1754.162242	151.800000
1755.987844	144.000000
1757.809511	183.400000
1759.632560	176.800000
1761.453447	180.400000
1763.273946	139.000000
1765.095825	172.600000
1766.912006	137.600000
1768.731338	181.000000
1770.546742	168.200000
1772.365298	154.000000
1774.179928	179.200000
1775.994171	186.600000
1777.808028	160.000000
1779.621498	188.600000
1781.432815	163.000000
1783.245512	172.600000
1785.057824	154.800000
1786.866217	157.400000
1788.675992	167.000000
1790.481852	167.400000
1792.290857	170.800000
1794.095949	170.200000
1795.902422	196.400000
1797.708511	171.400000
1799.510689	187.600000
1801.316012	173.000000
1803.117426	168.200000
1804.920220	172.000000
1806.719108	151.000000
1808.519377	184.600000
1810.319264	175.000000
1812.117009	177.000000
1813.914374	155.200000
1815.711359	160.200000
1817.507963	154.200000
1819.302428	182.400000
1821.098272	163.000000
1822.888461	185.600000
1824.683547	146.800000
1826.472981	158.200000
1828.265551	151.400000
1830.055986	147.600000
1831.844287	134.800000
1833.635723	175.800000
1835.421513	176.000000
1837.208683	174.400000
1838.993721	150.400000
1840.781893	171.200000
1842.566179	139.000000
1844.348335	165.400000
1846.131871	160.200000
1847.913278	164.600000
1849.696064	184.400000
1851.474969	176.200000
1853.255253	162.400000
1855.033412	174.200000
1856.812949	165.800000
1858.590360	206.600000
1860.365649	163.400000
1862.142315	165.600000
1863.916859	160.200000
1865.692781	148.600000
1867.463082	205.200000
1869.236511	182.200000
1871.007820	154.400000
1872.778758	163.800000
1874.551074	152.600000
1876.317776	152.600000
1878.087603	200.400000
1879.853567	182.200000
1881.622655	161.600000
1883.387881	177.600000
1885.152739	179.600000
1886.918974	158.200000
1888.681350	163.600000
1890.443358	157.800000
1892.205000	174.800000
1893.966275	176.800000
1895.727182	175.000000
1897.487723	155.200000
1899.246154	143.400000
1901.004219	148.000000
1902.760177	169.800000
1904.517511	170.200000
1906.274480	137.800000
1908.029342	178.600000
1909.782100	163.600000
1911.534493	190.800000
1913.288263	193.400000
1915.039929	145.200000
1916.789493	160.000000
1918.540432	171.800000
1920.291009	149.200000
1922.037746	154.600000
1923.785860	150.800000
1925.531874	160.000000
1927.279263	167.400000
1929.024555	174.000000
1930.767749	133.200000
1932.512318	165.800000
1934.254791	176.200000
1935.996905	164.600000
1937.738658	162.000000
1939.480051	170.400000
1941.219351	152.800000
1942.958292	189.000000
1944.696874	172.000000
1946.433365	169.800000
1948.169498	181.300000
1949.907005	192.800000
1951.640690	148.200000
1953.375750	176.200000
1955.108721	167.800000
1956.841336	169.800000
1958.573595	153.400000
1960.305497	167.200000
1962.035313	162.800000
1963.763044	195.000000
1965.492150	176.600000
1967.220900	160.200000
1968.947568	177.400000
1970.673881	155.800000
1972.401567	179.200000
1974.123717	171.200000
1975.848968	183.200000
1977.570412	162.400000
1979.294957	178.000000
1981.017421	199.200000
1982.736083	159.800000
1984.457843	199.600000
1986.175801	162.400000
1987.895132	184.200000
1989.610664	173.800000
1991.331016	175.600000
1993.047570	170.000000
1994.760327	178.200000
1996.476180	142.200000
1998.189961	167.600000
1999.903392	216.800000
2001.614752	169.800000
2003.327484	147.200000
2005.036426	170.800000
2006.748460	156.200000
2008.454985	163.400000
2010.164603	168.800000
2011.872154	168.000000
2013.579356	157.200000
2015.284493	205.000000
2016.989284	173.000000
2018.695446	171.400000
2020.397826	171.200000
2022.101577	168.600000
2023.803266	162.200000
2025.504609	177.400000
2027.205608	164.000000
2028.904545	167.800000
2030.604854	172.400000
2032.301387	201.000000
2033.999292	154.400000
2035.695139	216.600000
2037.394071	164.400000
2039.087517	193.800000
2040.782334	167.000000
2042.476809	203.000000
2044.167515	163.400000
2045.861305	172.400000
2047.551328	177.400000
2049.242722	187.200000
2050.932063	158.400000
2052.622774	186.000000
2054.309722	159.200000
2055.996331	154.000000
2057.684309	171.200000
2059.368528	164.600000
2061.054118	153.400000
2062.739368	182.800000
2064.422569	165.200000
2066.107141	169.000000
2067.786249	183.600000
2069.470144	174.800000
2071.148577	154.800000
2072.830088	178.400000
2074.507847	170.800000
2076.185270	156.800000
2077.864062	179.800000
2079.540812	172.000000
2081.215519	167.400000
2082.891597	144.800000
2084.565633	169.000000
2086.239335	178.000000
2087.912701	143.800000
2089.584028	176.400000
2091.255021	170.200000
2092.925680	200.200000
2094.596005	140.200000
2096.265996	185.200000
2097.933951	159.600000
2099.601573	171.400000
2101.267160	145.600000
2102.934116	175.000000
2104.599039	161.000000
2106.263630	163.000000
2107.926189	149.200000
2109.590116	167.800000
2111.252012	131.800000
2112.913578	193.400000
2114.574812	192.000000
2116.234018	153.400000
2117.892893	168.000000
2119.551439	199.600000
2121.209654	174.800000
2122.864147	177.600000
2124.521704	172.400000
2126.178931	170.400000
2127.832438	168.400000
2129.487312	169.400000
2131.138467	146.000000
2132.792685	161.200000
2134.443185	163.200000
2136.095053	175.400000
2137.741512	153.000000
2139.392726	180.800000
2141.040226	180.200000
2142.689093	172.800000
2144.335941	158.800000
2145.982464	176.200000
2147.628661	182.600000
2149.271150	171.600000
2150.916697	166.400000
2152.558537	188.600000
2154.203434	164.800000
2155.844625	179.000000
2157.485494	207.600000
2159.126038	187.000000
2160.764570	157.000000
2162.404468	179.800000
2164.040666	173.400000
2165.678230	176.000000
2167.315472	180.200000
2168.950704	172.200000
2170.585614	138.400000
2172.220203	158.800000
2173.854471	155.600000
2175.485045	190.200000
2177.118671	157.400000
2178.748605	177.600000
2180.379904	175.800000
2182.009198	180.600000
2183.638173	156.000000
2185.266828	158.200000
2186.895164	148.400000
2188.521498	182.200000
2190.147513	159.800000
2191.771526	154.400000
2193.396905	171.200000
2195.020283	161.600000
2196.645026	175.400000
2198.266088	181.600000
2199.886833	167.400000
2201.508942	175.200000
2203.129054	167.800000
2204.747170	181.400000
2206.364970	171.000000
2207.982455	152.400000
2209.599624	183.200000
2211.216478	150.400000
2212.833016	167.600000
2214.447562	151.000000
2216.060115	150.200000
2217.674032	172.200000
2219.285958	173.400000
2220.899247	179.800000
2222.510546	174.800000
2224.119855	164.400000
2225.730528	185.800000
2227.339212	180.600000
2228.947583	170.400000
2230.553968	155.200000
2232.161715	173.600000
2233.767477	175.800000
2235.372927	179.600000
2236.976392	168.800000
2238.581220	185.200000
2240.184064	185.400000
2241.784925	142.000000
2243.387149	152.800000
2244.987391	176.800000
2246.588995	179.600000
2248.186946	181.000000
2249.786260	167.600000
2251.383594	152.000000
2252.980620	199.200000
2254.579008	169.800000
2256.173747	170.200000
2257.766509	184.000000
2259.360634	163.600000
2260.956120	189.400000
2262.547961	182.800000
2264.139496	163.400000
2265.732393	178.400000
2267.319980	186.000000
2268.912263	175.200000
2270.499240	140.200000
2272.089244	173.400000
2273.673944	163.200000
2275.263338	190.000000
2276.847430	161.800000
2278.432882	177.000000
2280.016366	156.000000
2281.602875	163.800000
2283.185751	155.600000
2284.768324	167.000000
2286.350593	167.000000
2287.929232	181.600000
2289.510896	158.000000
2291.088931	166.800000
2292.669989	171.000000
2294.247420	180.800000
2295.822888	190.600000
2297.401378	170.200000
2298.976244	164.400000
2300.550809	157.200000
2302.125073	166.600000
2303.699038	178.400000
2305.272701	186.000000
2306.846065	168.400000
2308.415810	145.400000
2309.985256	174.400000
2311.557720	149.800000
2313.124910	193.600000
2314.695118	173.800000
2316.261711	173.800000
2317.829664	154.800000
2319.395661	162.000000
2320.961361	159.000000
2322.526763	181.800000
2324.090212	143.200000
2325.655020	167.200000
2327.216220	153.600000
2328.780434	197.800000
2330.339386	191.200000
2331.901352	194.600000
2333.461368	156.600000
2335.021089	177.600000
2336.578860	145.800000
2338.136336	182.200000
2339.693518	181.800000
2341.248752	178.000000
2342.803693	164.400000
2344.358339	162.200000
2345.912692	178.400000
2347.466751	180.400000
2349.020517	199.600000
2350.572338	191.400000
2352.122217	169.000000
2353.675103	196.800000
2355.222746	186.200000
2356.773398	164.400000
2358.320458	151.000000
2359.868876	166.400000
2361.417003	167.200000
2362.961541	162.000000
2364.507437	181.000000
2366.051395	164.000000
2367.596709	176.600000
2369.138440	188.600000
2370.681527	186.600000
2372.222678	170.600000
2373.763540	157.200000
2375.304113	186.000000
2376.844397	156.000000
2378.384392	167.000000
2379.920809	187.000000
2381.460227	172.600000
2382.996067	175.200000
2384.533265	178.400000
2386.066887	155.200000
2387.603509	182.600000
2389.138201	171.800000
2390.670963	187.600000
2392.203438	173.600000
2393.733985	177.600000
2395.267530	183.000000
2396.795864	204.000000
2398.325554	158.800000
2399.854959	185.000000
2401.384079	185.200000
2402.912913	189.400000
2404.436543	185.600000
2405.964808	193.800000
2407.487871	176.000000
2409.015567	163.600000
2410.536424	168.000000
2412.061913	194.400000
2413.583843	179.200000
2415.107127	158.000000
2416.628491	192.400000
2418.147935	186.000000
2419.668734	168.400000
2421.187614	199.600000
2422.706213	162.400000
2424.222894	203.800000
2425.740929	180.800000
2427.258683	203.600000
2428.772885	194.000000
2430.286808	194.600000
2431.800450	162.600000
2433.315447	192.600000
2434.826895	180.200000
2436.339697	208.000000
2437.850587	192.400000
2439.361198	198.800000
2440.869897	181.200000
2442.381582	185.800000
2443.889724	188.400000
2445.397588	205.400000
2446.905174	196.200000
2448.409219	216.600000
2449.916249	181.800000
2451.421371	210.200000
2452.926216	157.400000
2454.429154	201.000000
2455.931816	174.600000
2457.434201	191.600000
2458.934681	183.400000
2460.436514	187.400000
2461.936442	188.400000
2463.436095	175.600000
2464.935473	172.000000
2466.432948	185.200000
2467.928521	153.400000
2469.427074	193.600000
2470.922099	162.400000
2472.418476	152.800000
2473.911327	191.400000
2475.405531	192.400000
2476.899461	168.200000
2478.389867	181.200000
2479.883251	160.200000
2481.374737	181.600000
2482.864326	159.000000
2484.353643	159.400000
2485.841064	195.400000
2487.331461	187.800000
2488.818340	163.000000
2490.306570	190.800000
2491.791283	206.200000
2493.275727	181.800000
2494.761521	170.200000
2496.245424	189.200000
2497.730677	188.400000
2499.210797	191.000000
2500.693890	182.800000
2502.175092	175.800000
2503.656025	176.200000
2505.135069	195.200000
2506.613844	187.600000
2508.092351	164.200000
2509.570590	184.800000
2511.048560	178.400000
2512.523025	196.800000
2514.000460	195.200000
2515.474391	157.600000
2516.949672	177.000000
2518.424686	181.200000
2519.896199	178.600000
2521.369063	179.400000
2522.840044	200.000000
2524.312375	164.200000
2525.779592	201.400000
2527.249776	171.600000
2528.718079	160.000000
2530.186117	177.600000
2531.653890	202.200000
2533.121398	193.400000
2534.588641	199.200000
2536.052392	170.200000
2537.517493	207.000000
2538.980717	189.200000
2540.445290	184.200000
2541.906375	185.400000
2543.368809	181.000000
2544.830980	179.600000
2546.289665	207.800000
2547.752921	189.800000
2549.211082	201.600000
2550.670591	183.800000
2552.125006	194.000000
2553.583992	193.400000
2555.041106	179.800000
2556.496348	196.200000
2557.951330	212.600000
2559.404443	174.600000
2560.858903	199.600000
2562.311495	196.400000
2563.763827	207.600000
2565.214292	189.200000
2566.667712	205.400000
2568.116050	169.000000
2569.567343	176.600000
2571.016771	179.000000
2572.462726	201.800000
2573.911636	218.600000
2575.357076	204.000000
2576.803863	198.800000
2578.248787	207.000000
2579.693454	197.800000
2581.139468	196.600000
2582.582016	220.600000
2584.025911	226.400000
2585.466340	234.000000
2586.908118	229.400000
2588.348036	250.000000
2589.789301	205.000000
2591.227104	197.000000
2592.667857	217.600000
2594.103548	211.600000
2595.542188	232.400000
2596.978970	208.200000
2598.413897	246.400000
2599.851771	217.600000
2601.284588	212.800000
2602.718752	191.400000
2604.151062	243.000000
2605.584718	235.000000
2607.016521	218.000000
2608.448070	256.800000
2609.879367	237.800000
2611.308811	234.000000
2612.738003	263.200000
2614.165345	240.200000
2615.594032	253.200000
2617.022468	256.000000
2618.447456	247.800000
2619.873791	250.200000
2621.298277	254.800000
2622.724109	268.600000
2624.146497	253.800000
2625.570231	278.400000
2626.992118	261.200000
2628.413756	281.200000
2629.833548	283.000000
2631.254686	297.400000
2632.675574	296.800000
2634.093023	295.200000
2635.513413	292.400000
2636.930365	332.000000
2638.347068	312.800000
2639.763523	294.400000
2641.179730	311.800000
2642.595689	311.000000
2644.009807	322.600000
2645.423677	310.200000
2646.835709	315.000000
2648.249084	351.800000
2649.659030	369.800000
2651.071912	350.000000
2652.481365	337.800000
2653.890572	346.600000
2655.297943	313.400000
2656.708248	367.400000
2658.116718	353.200000
2659.523352	326.000000
2660.929741	352.800000
2662.334296	350.400000
2663.740195	343.000000
2665.144261	348.000000
2666.548082	343.200000
2667.951659	330.200000
2669.353405	392.200000
2670.756494	362.600000
2672.156165	353.200000
2673.557180	359.200000
2674.954779	342.800000
2676.355307	365.400000
2677.752421	386.600000
2679.150878	359.000000
2680.547508	383.000000
2681.943895	354.800000
2683.340040	350.600000
2684.734359	373.000000
2686.130021	334.400000
2687.522274	316.600000
2688.915869	322.400000
2690.307640	303.200000
2691.700754	336.400000
2693.092044	356.200000
2694.481511	319.600000
2695.870738	324.600000
2697.259726	307.400000
2698.650055	301.400000
2700.035401	286.000000
2701.423670	307.600000
2702.810119	288.400000
2704.196329	274.000000
2705.582300	295.600000
2706.964873	254.800000
2708.348788	300.400000
2709.732465	278.000000
2711.115903	259.800000
2712.495946	276.400000
2713.877331	263.400000
2715.256901	276.200000
2716.637811	238.200000
2718.016907	234.200000
2719.394189	236.400000
2720.772812	207.000000
2722.149621	214.400000
2723.526195	220.800000
2724.902533	232.200000
2726.277060	194.400000
2727.652927	205.000000
2729.025407	214.000000
2730.400803	216.400000
2731.771239	214.400000
2733.143016	218.800000
2734.514558	221.000000
2735.884292	215.800000
2737.255367	183.000000
2738.624633	220.600000
2739.993666	211.800000
2741.360893	207.200000
2742.727886	207.400000
2744.094647	223.600000
2745.461176	166.200000
2746.825899	193.600000
2748.190390	199.400000
2749.554650	228.400000
2750.918677	193.000000
2752.282473	183.600000
2753.642895	178.200000
2755.006227	193.000000
2756.364617	187.800000
2757.725917	184.000000
2759.083847	190.800000
2760.444685	198.200000
2761.803724	190.800000
2763.159394	180.200000
2764.517972	179.200000
2765.873183	205.600000
2767.228165	152.000000
2768.581350	191.400000
2769.937442	167.800000
2771.290170	215.200000
2772.642670	181.800000
2773.994941	187.200000
2775.348550	154.800000
2776.698799	199.200000
2778.047253	200.400000
2779.398612	174.800000
2780.746613	172.000000
2782.095951	177.200000
2783.443497	192.000000
2784.790817	186.200000
2786.137910	175.200000
2787.483211	184.800000
2788.828287	143.200000
2790.173137	163.800000
2791.517761	186.200000
2792.859033	142.400000
2794.201643	170.400000
2795.544027	182.600000
2796.886186	174.400000
2798.224996	164.800000
2799.566706	174.000000
2800.905067	200.200000
2802.244766	184.200000
2803.582680	199.600000
2804.918809	179.800000
2806.254714	160.400000
2807.591957	150.600000
2808.927416	172.600000
2810.262652	181.800000
2811.596105	187.800000
2812.930895	173.000000
2814.262345	181.200000
2815.596690	153.000000
2816.926137	179.800000
2818.256920	195.600000
2819.587483	212.800000
2820.916266	179.600000
2822.246385	179.800000
2823.574726	179.600000
2824.902846	185.400000
2826.229188	170.600000
2827.556867	169.400000
2828.881212	169.600000
2830.206894	182.000000
2831.530800	160.800000
2832.854486	199.800000
2834.179509	175.400000
2835.501201	203.200000
2836.822675	176.800000
2838.143930	178.600000
2839.464966	171.200000
2840.784229	167.400000
2842.104828	167.000000
2843.423656	174.400000
2844.742265	169.000000
2846.059103	188.200000
2847.375724	171.400000
2848.692128	178.000000
2850.006762	185.200000
2851.322732	162.800000
2852.635381	187.800000
2853.949365	184.800000
2855.263133	169.800000
2856.576684	188.000000
2857.888469	151.200000
2859.198487	171.600000
2860.509840	151.600000
2861.817878	188.400000
2863.127250	153.600000
2864.436408	151.400000
2865.745350	196.000000
2867.052528	183.000000
2868.357944	169.800000
2869.664693	192.400000
2870.969681	145.800000
2872.274454	187.800000
2873.577467	166.200000
2874.883360	173.400000
2876.184399	162.000000
2877.486772	192.800000
2878.787385	167.200000
2880.089332	158.800000
2881.391065	165.200000
2882.689495	169.800000
2883.989258	180.000000
2885.287264	161.600000
2886.585058	194.600000
2887.881096	188.000000
2889.178467	173.400000
2890.474082	181.800000
2891.769486	167.400000
2893.064679	189.200000
2894.356575	149.400000
2895.651347	146.400000
2896.942822	178.200000
2898.235630	140.200000
2899.528228	173.000000
2900.817532	166.600000
2902.108168	171.200000
2903.397053	176.200000
2904.687270	166.400000
2905.974196	157.600000
2907.262454	152.400000
2908.548963	149.800000
2909.835263	175.000000
2911.121356	171.600000
2912.405700	178.600000
2913.692915	181.400000
2914.975304	166.200000
2916.259025	166.600000
2917.541000	140.000000
2918.822767	186.600000
2920.102789	153.200000
2921.385682	187.600000
2922.666829	151.800000
2923.944694	170.400000
2925.225428	176.000000
2926.502881	173.000000
2927.780128	149.200000
2929.055633	179.000000
2930.334006	174.400000
2931.607565	157.000000
2932.883991	156.800000
2934.158676	175.800000
2935.431620	156.400000
2936.705896	177.200000
2937.978432	169.600000
2939.250763	156.200000
2940.519822	157.000000
2941.791746	155.800000
2943.061932	158.000000
2944.331914	161.400000
2945.601693	171.200000
2946.869736	177.800000
2948.136042	165.200000
2949.402147	173.800000
2950.669581	157.400000
2951.935280	173.000000
2953.200778	152.200000
2954.466073	134.200000
2955.728103	173.400000
2956.991463	164.000000
2958.254622	114.000000
2959.516049	164.800000
2960.778805	144.800000
2962.039829	177.600000
2963.299123	180.800000
2964.558217	167.000000
2965.817110	175.600000
2967.075803	173.600000
2968.334296	173.600000
2969.591060	182.800000
2970.847624	175.600000
2972.102460	175.000000
2973.358626	151.600000
2974.611537	176.800000
2975.865777	161.600000
2977.119817	146.400000
2978.372132	167.000000
2979.624249	171.600000
2980.874641	156.600000
2982.127888	169.000000
2983.376358	150.200000
2984.627683	170.400000
2985.875758	124.000000
2987.123636	174.000000
2988.371318	129.800000
2989.618802	158.200000
2990.864565	159.800000
2992.110132	170.400000
2993.357026	139.000000
2994.600676	150.600000
2995.845654	163.200000
2997.087388	187.400000
2998.331974	137.000000
2999.574841	172.000000
3000.814467	137.000000
3002.056943	186.600000
3003.296179	140.800000
3004.536743	195.000000
3005.775590	159.600000
3007.014243	173.000000
3008.251180	157.600000
3009.489445	183.400000
3010.725994	145.200000
3011.962350	160.400000
3013.198512	166.400000
3014.432960	178.800000
3015.667216	153.600000
3016.901278	166.400000
3018.133627	152.400000
3019.364266	166.400000
3020.597750	169.000000
3021.829522	151.800000
3023.059584	162.200000
3024.289453	159.400000
3025.517613	168.200000
3026.747100	176.600000
3027.974877	171.000000
3029.202463	182.600000
3030.431375	154.200000
3031.655546	155.400000
3032.882559	163.200000
3034.106348	168.400000
3035.331464	154.000000
3036.554873	151.600000
3037.778092	143.200000
3038.999606	180.600000
3040.223961	148.400000
3041.443581	157.000000
3042.664527	146.600000
3043.885284	160.200000
3045.104337	136.600000
3046.324715	169.400000
3047.541877	144.800000
3048.760365	173.600000
3049.977150	160.000000
3051.193748	167.800000
3052.410157	140.600000
3053.623353	153.400000
3054.839388	167.800000
3056.052210	144.600000
3057.267869	150.200000
3058.478805	135.400000
3059.691066	140.000000
3060.903140	162.400000
3062.115028	169.200000
3063.325219	153.800000
3064.535223	172.200000
3065.745041	168.400000
3066.953163	164.600000
3068.161100	161.600000
3069.367341	134.600000
3070.574907	145.200000
3071.780778	154.100000
3072.986465	163.000000
3074.191966	158.400000
3075.395774	155.600000
3076.600906	136.000000
3077.804345	172.000000
3079.006093	164.400000
3080.207656	170.400000
3081.409036	139.400000
3082.610232	172.600000
3083.809738	141.800000
3085.009061	176.200000
3086.209707	158.000000
3087.408663	174.800000
3088.604425	159.200000
3089.803016	162.000000
3090.998413	151.200000
3092.195133	142.200000
3093.388661	157.000000
3094.585017	135.200000
3095.779686	168.800000
3096.971165	156.800000
3098.166976	132.800000
3099.358092	159.000000
3100.550532	146.600000
3101.739784	178.400000
3102.931861	180.000000
3104.122255	143.000000
3105.309463	167.400000
3106.497993	165.000000
3107.687846	167.200000
3108.874515	164.400000
3110.061003	160.800000
3111.247313	155.000000
3112.434944	127.600000
3113.619393	164.800000
3114.802163	144.400000
3115.987755	174.600000
3117.171668	170.200000
3118.353902	154.800000
3119.535957	165.200000
3120.717834	175.800000
3121.899533	163.200000
3123.079555	162.400000
3124.257900	158.600000
3125.439065	144.000000
3126.617055	158.000000
3127.794868	181.400000
3128.972504	146.000000
3130.148466	136.200000
3131.324250	170.800000
3132.501356	150.800000
3133.676787	112.800000
3134.850545	164.800000
3136.022630	152.000000
3137.196037	177.200000
3138.369267	179.000000
3139.540826	169.800000
3140.713705	158.000000
3141.883417	165.600000
3143.054450	155.200000
3144.223813	170.600000
3145.391505	143.200000
3146.562013	156.200000
3147.727863	152.200000
3148.898021	170.600000
3150.063523	152.600000
3151.228850	134.600000
3152.394004	127.000000
3153.558985	167.400000
3154.725285	151.000000
3155.886933	165.600000
3157.049900	152.400000
3158.212695	153.000000
3159.375317	172.800000
3160.536273	148.600000
3161.697058	130.600000
3162.857670	175.000000
3164.016618	151.600000
3165.175395	168.000000
3166.333999	132.200000
3167.492432	156.400000
3168.650694	148.800000
3169.807293	151.200000
3170.962231	144.200000
3172.118488	143.200000
3173.273084	119.800000
3174.427510	178.800000
3175.580276	149.800000
3176.732871	132.600000
3177.885297	156.600000
3179.037553	161.000000
3180.189638	133.400000
3181.338577	189.200000
3182.490324	146.000000
3183.640412	153.400000
3184.788844	155.400000
3185.937106	160.800000
3187.085200	147.400000
3188.233125	152.000000
3189.379394	144.000000
3190.525495	180.000000
3191.669942	147.400000
3192.814221	184.600000
3193.958332	170.200000
3195.103760	188.000000
3196.246050	165.600000
3197.388173	144.600000
3198.530128	154.800000
3199.671916	156.000000
3200.813537	168.000000
3201.952023	173.400000
3203.091826	151.600000
3204.232946	197.000000
3205.370933	179.800000
3206.507270	138.400000
3207.643441	142.800000
3208.780929	164.200000
3209.916769	131.600000
3211.053926	146.200000
3212.186470	133.000000
3213.323296	152.400000
3214.455510	131.000000
3215.589041	150.400000
3216.722408	141.200000
3217.852647	144.400000
3218.985684	145.200000
3220.115595	179.200000
3221.246822	165.200000
3222.374925	133.800000
3223.505824	149.400000
3224.635079	157.000000
3225.762691	164.000000
3226.887180	157.200000
3228.015945	150.200000
3229.141588	145.200000
3230.267069	141.400000
3231.390907	160.600000
3232.517541	149.200000
3233.639577	148.200000
3234.762929	119.400000
3235.886119	149.200000
3237.009146	168.200000
3238.130535	144.600000
3239.251761	150.600000
3240.371350	183.600000
3241.490777	178.600000
3242.608566	146.000000
3243.729147	147.000000
3244.846615	160.600000
3245.963922	128.200000
3247.081069	135.600000
3248.196579	123.600000
3249.313405	144.000000
3250.427121	142.000000
3251.543626	155.200000
3252.658497	158.200000
3253.770258	147.800000
3254.881861	142.800000
3255.994779	165.000000
3257.107537	144.200000
3258.217189	166.600000
3259.328156	165.800000
3260.438964	169.400000
3261.548140	129.000000
3262.655685	151.800000
3263.764545	158.400000
3264.873247	150.400000
3265.978846	154.600000
3267.085759	153.200000
3268.191043	142.800000
3269.297641	178.600000
3270.401139	144.800000
3271.505952	158.000000
3272.610606	137.200000
3273.712163	142.400000
3274.813563	131.400000
3275.916277	144.200000
3277.018835	152.000000
3278.118296	128.800000
3279.220541	134.600000
3280.319690	146.200000
3281.417215	123.000000
3282.514584	164.000000
3283.614735	164.600000
3284.711794	159.000000
3285.808697	157.000000
3286.905445	145.400000
3287.997634	121.600000
3289.094073	154.000000
3290.188889	136.200000
3291.283551	174.600000
3292.376591	123.000000
3293.469476	115.800000
3294.560741	110.600000
3295.653319	145.800000
3296.744277	128.400000
3297.833615	153.400000
3298.922800	119.200000
3300.013298	157.600000
3301.100711	171.000000
3302.187971	166.800000
3303.276544	155.800000
3304.364964	133.200000
3305.448838	140.400000
3306.536953	133.200000
3307.621986	136.600000
3308.705404	178.200000
3309.790134	158.400000
3310.873248	152.200000
3311.957675	128.400000
3313.039023	156.800000
3314.121683	147.000000
3315.202729	149.200000
3316.283624	162.800000
3317.362905	159.400000
3318.442036	138.200000
3319.522479	155.800000
3320.599847	141.200000
3321.678527	147.000000
3322.755595	146.000000
3323.832514	140.600000
3324.907821	143.800000
3325.982979	151.800000
3327.059448	134.000000
3328.132847	172.000000
3329.206096	157.400000
3330.280657	135.600000
3331.353609	134.800000
3332.424952	152.800000
3333.497606	120.600000
3334.567194	146.600000
3335.638092	148.400000
3336.707383	145.000000
3337.777985	139.800000
3338.846980	142.600000
3339.914369	139.800000
3340.980153	152.200000
3342.050163	144.400000
3343.117110	134.800000
3344.180995	142.800000
3345.247647	155.000000
3346.312696	133.600000
3347.376141	144.400000
3348.439440	135.400000
3349.502592	133.200000
3350.565598	152.000000
3351.628458	147.200000
3352.689716	146.200000
3353.747917	126.600000
3354.810338	131.800000
3355.869704	150.400000
3356.928924	129.600000
3357.989453	166.400000
3359.045474	142.600000
3360.104258	164.600000
3361.158535	151.000000
3362.215576	158.000000
3363.271018	155.000000
3364.327770	138.200000
3365.382923	136.000000
3366.436479	167.600000
3367.488439	149.200000
3368.543160	172.400000
3369.594832	138.200000
3370.646361	127.800000
3371.699198	136.600000
3372.748988	146.600000
3373.800087	150.200000
3374.848140	154.400000
3375.898952	122.800000
3376.946720	134.400000
3377.994344	137.600000
3379.041827	128.000000
3380.087717	140.400000
3381.134915	173.600000
3382.179071	140.800000
3383.225985	149.200000
3384.271307	130.800000
3385.313588	140.400000
3386.355728	151.000000
3387.399177	139.000000
3388.442484	126.600000
3389.484201	143.200000
3390.525778	127.600000
3391.567213	153.800000
3392.607060	123.200000
3393.645318	127.200000
3394.684884	134.400000
3395.724310	142.600000
3396.762148	111.400000
3397.798399	128.000000
3398.834511	146.400000
3399.871930	130.800000
3400.906316	138.600000
3401.942009	161.800000
3402.977563	130.600000
3404.010086	141.800000
3405.045362	137.000000
3406.077607	149.800000
3407.109714	144.600000
3408.140237	149.000000
3409.172067	145.200000
3410.203759	169.200000
3411.232423	132.400000
3412.260950	130.000000
3413.290783	124.000000
3414.320479	136.600000
3415.347149	155.400000
3416.375125	139.800000
3417.400078	121.600000
3418.427780	150.800000
3419.452459	147.600000
3420.478444	132.200000
3421.502849	141.600000
3422.527118	150.400000
3423.549808	136.000000
3424.572362	162.000000
3425.596222	146.400000
3426.617062	174.600000
3427.637766	143.400000
3428.659777	139.800000
3429.678769	114.600000
3430.697625	143.000000
3431.717788	141.200000
3432.734934	172.800000
