-118.089238	18.000000
-115.419638	-17.000000
-112.752973	-13.000000
-110.087060	13.000000
-107.424080	-6.000000
-104.759669	61.000000
-102.098189	32.000000
-99.435280	26.000000
-96.777477	-16.000000
-94.118245	-12.000000
-91.459761	-18.000000
-88.804202	26.000000
-86.147213	-3.000000
-83.495323	50.000000
-80.842003	14.000000
-78.191602	-10.000000
-75.539772	71.000000
-72.893033	-9.000000
-70.244865	55.000000
-67.597439	1.000000
-64.952928	19.000000
-62.306987	22.000000
-59.666128	24.000000
-57.023840	22.000000
-54.384461	6.000000
-51.743652	94.000000
-49.103584	93.000000
-46.468588	-13.000000
-43.832164	53.000000
-41.198642	19.000000
-38.563692	81.000000
-35.933807	35.000000
-33.300330	40.000000
-30.671915	49.000000
-28.044234	63.000000
-25.415124	53.000000
-22.791071	96.000000
-20.163429	164.000000
-17.540840	219.000000
-14.918983	378.000000
-12.297856	591.000000
-9.677460	1449.000000
-7.059951	4856.000000
-4.441014	18406.000000
-1.824962	48815.000000
0.790361	61442.000000
3.404956	35114.000000
6.016670	4347.000000
8.629812	633.000000
11.237920	334.000000
13.849610	165.000000
16.456269	101.000000
19.064356	122.000000
21.671719	89.000000
24.274057	95.000000
26.879973	67.000000
29.480867	84.000000
32.083189	46.000000
34.680494	81.000000
37.281374	28.000000
39.877239	82.000000
42.474533	5.000000
45.071107	65.000000
47.662672	-11.000000
50.255665	78.000000
52.845797	50.000000
55.437357	4.000000
58.026057	13.000000
60.616184	102.000000
63.201312	65.000000
65.787868	25.000000
68.373710	95.000000
70.956698	-34.000000
73.541112	29.000000
76.118398	40.000000
78.699250	51.000000
81.277253	38.000000
83.854546	60.000000
86.433265	61.000000
89.007002	22.000000
91.582167	26.000000
94.154488	-3.000000
96.726101	8.000000
99.294874	87.000000
101.865074	31.000000
104.432435	40.000000
107.001223	43.000000
109.567174	-8.000000
112.130290	51.000000
114.696962	26.000000
117.254413	60.000000
119.817549	102.000000
122.375725	144.000000
124.937456	178.000000
127.494230	221.000000
130.052430	319.000000
132.605678	517.000000
135.158228	664.000000
137.714328	981.000000
140.265480	1233.000000
142.815935	1478.000000
145.365692	1643.000000
147.912630	1816.000000
150.458873	1959.000000
153.006541	1814.000000
155.553513	1986.000000
158.095550	2072.000000
160.636893	1791.000000
163.177543	2024.000000
165.719619	1916.000000
168.258883	1909.000000
170.795339	1866.000000
173.331103	1982.000000
175.868293	1950.000000
178.404792	1832.000000
180.938485	1941.000000
183.469374	1965.000000
185.999576	1884.000000
188.531202	1905.000000
191.060027	1910.000000
193.586053	1752.000000
196.111393	1957.000000
198.638158	1872.000000
201.162127	1879.000000
203.685411	2043.000000
206.208010	1904.000000
208.727816	2053.000000
211.246939	1913.000000
213.765379	1989.000000
216.285243	1980.000000
218.798106	2146.000000
221.314500	1919.000000
223.830212	2010.000000
226.341034	2131.000000
228.853281	2142.000000
231.362746	2272.000000
233.871531	2224.000000
236.379639	2192.000000
238.889171	2241.000000
241.393822	2339.000000
243.897797	2184.000000
246.403196	2216.000000
248.903720	2260.000000
251.407768	2251.000000
253.904844	2218.000000
256.405444	2258.000000
258.903272	2236.000000
261.400427	2273.000000
263.896909	2262.000000
266.388528	2351.000000
268.883667	2291.000000
271.376039	2418.000000
273.867741	2505.000000
276.356680	2419.000000
278.847042	2468.000000
281.334643	2426.000000
283.819484	2595.000000
286.307840	2587.000000
288.789256	2527.000000
291.274186	2609.000000
293.754271	2687.000000
296.237868	2800.000000
298.716622	2908.000000
301.196799	2882.000000
303.674225	2927.000000
306.150987	2772.000000
308.627085	2686.000000
311.100436	2727.000000
313.573124	2729.000000
316.045151	2776.000000
318.516517	2818.000000
320.985138	2852.000000
323.453101	2816.000000
325.922485	2689.000000
328.387047	2632.000000
330.855113	2581.000000
333.318359	2440.000000
335.780947	2460.000000
338.242879	2402.000000
340.704154	2386.000000
343.162695	2359.000000
345.622658	2367.000000
348.079888	2432.000000
350.536464	2396.000000
352.992386	2425.000000
355.445578	2226.000000
357.900193	2341.000000
360.350006	2423.000000
362.803315	2308.000000
365.251825	2319.000000
367.699685	2375.000000
370.148967	2289.000000
372.593455	2319.000000
375.039365	2206.000000
377.484625	2256.000000
379.927167	2354.000000
382.369061	2360.000000
384.810308	2226.000000
387.248839	2263.000000
389.688792	2185.000000
392.126031	2195.000000
394.560558	2191.000000
396.998573	2153.000000
399.431811	2234.000000
401.866470	2168.000000
404.296357	2292.000000
406.729729	2150.000000
409.158331	2253.000000
411.586291	2243.000000
414.015673	2173.000000
416.440289	2242.000000
418.866327	2211.000000
421.291724	2260.000000
423.716481	2196.000000
426.136480	2326.000000
428.557899	2326.000000
430.976623	2251.000000
433.396767	2190.000000
435.814216	2220.000000
438.233085	2177.000000
440.649261	2267.000000
443.060689	2134.000000
445.475594	2167.000000
447.887810	2201.000000
450.299391	2262.000000
452.710338	2130.000000
455.118599	2079.000000
457.526227	2038.000000
459.933223	2064.000000
462.339588	2130.000000
464.743270	2113.000000
467.146322	1962.000000
469.548744	2193.000000
471.950536	2187.000000
474.349650	2289.000000
476.750184	2207.000000
479.150089	2257.000000
481.545272	2171.000000
483.943921	2277.000000
486.337850	2371.000000
488.731152	2464.000000
491.123830	2507.000000
493.515882	2855.000000
495.909352	2857.000000
498.298110	3192.000000
500.684202	3467.000000
503.071714	4072.000000
505.458603	4910.000000
507.842828	6482.000000
510.228471	9667.000000
512.611453	16162.000000
514.991774	30390.000000
517.373514	53561.000000
519.752595	64528.000000
522.133095	64417.000000
524.510937	46497.000000
526.886124	23661.000000
529.260693	13179.000000
531.636680	8994.000000
534.010015	6761.000000
536.384767	5752.000000
538.754834	4785.000000
541.124285	4245.000000
543.495154	3931.000000
545.861343	3512.000000
548.228949	3430.000000
550.593911	3111.000000
552.958259	2923.000000
555.321994	2781.000000
557.687147	2723.000000
560.047628	2599.000000
562.409527	2550.000000
564.768785	2538.000000
567.125405	2243.000000
569.485471	2268.000000
571.838845	2250.000000
574.195664	2173.000000
576.549848	2101.000000
578.903423	2070.000000
581.256391	2129.000000
583.606726	2095.000000
585.958479	2127.000000
588.303555	2083.000000
590.654095	2008.000000
592.997961	2170.000000
595.347289	1982.000000
597.691968	1965.000000
600.034023	2040.000000
602.377495	2004.000000
604.718344	1950.000000
607.058591	1985.000000
609.396217	2087.000000
611.737278	1898.000000
614.073701	2080.000000
616.411541	2087.000000
618.746764	2153.000000
621.079371	2060.000000
623.413394	2011.000000
625.744803	2240.000000
628.075614	1932.000000
630.405828	1928.000000
632.735443	1901.000000
635.060435	1950.000000
637.390869	1878.000000
639.716682	1882.000000
642.039887	1980.000000
644.364509	1947.000000
646.686525	1870.000000
649.007947	1799.000000
651.326767	1895.000000
653.647002	1940.000000
655.966644	1896.000000
658.283685	1947.000000
660.600134	1988.000000
662.913985	1946.000000
665.229252	2038.000000
667.541922	1986.000000
669.856007	1942.000000
672.165492	1942.000000
674.476393	1937.000000
676.784701	1945.000000
679.092421	1929.000000
681.401555	1841.000000
683.706097	1778.000000
686.010053	1880.000000
688.313423	1797.000000
690.618207	1833.000000
692.918404	1737.000000
695.220017	1895.000000
697.521044	1685.000000
699.817490	1781.000000
702.115351	1725.000000
704.412628	1812.000000
706.709322	1752.000000
709.001440	1690.000000
711.296969	1639.000000
713.587924	1752.000000
715.880294	1590.000000
718.170089	1778.000000
720.459303	1673.000000
722.747938	1664.000000
725.034000	1722.000000
727.321477	1797.000000
729.606382	1646.000000
731.890710	1742.000000
734.172469	1720.000000
736.455642	1797.000000
738.738238	1709.000000
741.016278	1789.000000
743.295733	1718.000000
745.574611	1782.000000
747.852915	1753.000000
750.126669	1652.000000
752.401836	1781.000000
754.676430	1769.000000
756.948465	1838.000000
759.221913	1835.000000
761.492803	1756.000000
763.761137	1832.000000
766.030884	1877.000000
768.298077	1725.000000
770.564699	1836.000000
772.830751	1928.000000
775.094252	1757.000000
777.359166	1824.000000
779.623510	1911.000000
781.883325	1810.000000
784.144552	1774.000000
786.405212	1797.000000
788.663326	1980.000000
790.918895	1815.000000
793.177855	1872.000000
795.430316	1909.000000
797.688143	1855.000000
799.941452	1858.000000
802.192221	1816.000000
804.444402	1868.000000
806.694044	1905.000000
808.945099	1906.000000
811.191642	1866.000000
813.439597	1894.000000
815.685018	1917.000000
817.931850	1931.000000
820.178121	2021.000000
822.419887	1885.000000
824.665037	1971.000000
826.903714	2034.000000
829.145773	1946.000000
831.383334	1915.000000
833.622307	2029.000000
835.858753	1966.000000
838.096610	1901.000000
840.331942	1895.000000
842.564751	1890.000000
844.798971	1899.000000
847.030668	1957.000000
849.261811	1898.000000
851.492399	1886.000000
853.722433	1943.000000
855.951913	1830.000000
858.176911	1918.000000
860.405284	1913.000000
862.629177	1969.000000
864.854482	1898.000000
867.075311	1911.000000
869.299512	1984.000000
871.519240	1848.000000
873.740378	1993.000000
875.960966	2001.000000
878.179045	1952.000000
880.398533	1960.000000
882.613555	1840.000000
884.828029	1962.000000
887.041956	1913.000000
889.255336	1902.000000
891.468168	1963.000000
893.680454	1818.000000
895.890237	1957.000000
898.099475	1924.000000
900.308168	1942.000000
902.514362	1970.000000
904.721965	1921.000000
906.927070	1870.000000
909.131632	1965.000000
911.333699	1929.000000
913.537175	2121.000000
915.738157	2042.000000
917.938597	1974.000000
920.140446	2048.000000
922.335904	2069.000000
924.534721	2203.000000
926.729099	2269.000000
928.926835	2379.000000
931.120135	2714.000000
933.314844	2884.000000
935.507067	3082.000000
937.698751	3446.000000
939.889898	3606.000000
942.078562	3751.000000
944.266690	3668.000000
946.452337	3775.000000
948.641336	3669.000000
950.825912	3843.000000
953.009953	3814.000000
955.197344	3602.000000
957.376431	3678.000000
959.558869	3882.000000
961.740773	3662.000000
963.920202	3819.000000
966.097159	4024.000000
968.275524	3947.000000
970.455296	4018.000000
972.628719	3979.000000
974.805488	3952.000000
976.977850	3996.000000
979.151620	3990.000000
981.320986	3689.000000
983.493696	3858.000000
985.663941	3746.000000
987.833657	3709.000000
990.002844	3319.000000
992.167634	3101.000000
994.335765	3003.000000
996.499501	2769.000000
998.664645	2753.000000
1000.827329	2570.000000
1002.989488	2617.000000
1005.149190	2574.000000
1007.308367	2576.000000
1009.468951	2501.000000
1011.627080	2423.000000
1013.784686	2333.000000
1015.941768	2395.000000
1018.098326	2290.000000
1020.250505	2281.000000
1022.404091	2232.000000
1024.557155	2132.000000
1026.707770	2126.000000
1028.859792	2151.000000
1031.007440	2015.000000
1033.158420	2094.000000
1035.305029	1951.000000
1037.451119	2091.000000
1039.596691	1980.000000
1041.743668	2072.000000
1043.884356	2007.000000
1046.028374	1922.000000
1048.169951	2038.000000
1050.311012	1914.000000
1052.453477	1932.000000
1054.589662	2042.000000
1056.729174	1973.000000
1058.864331	1963.000000
1061.002812	2032.000000
1063.136939	1976.000000
1065.270553	2014.000000
1067.405572	2026.000000
1069.536241	1964.000000
1071.668315	2076.000000
1073.797960	1980.000000
1075.927093	1941.000000
1078.055714	1986.000000
1080.183824	1938.000000
1082.309508	1939.000000
1084.434682	1986.000000
1086.561260	2041.000000
1088.683500	1837.000000
1090.807145	1949.000000
1092.926455	1946.000000
1095.050995	1995.000000
1097.169289	1865.000000
1099.288988	1933.000000
1101.406268	2022.000000
1103.523041	1924.000000
1105.639309	2033.000000
1107.753160	1891.000000
1109.868416	1821.000000
1111.979348	2010.000000
1114.093593	1848.000000
1116.203517	1937.000000
1118.314845	1916.000000
1120.425668	1865.000000
1122.532175	1827.000000
1124.641992	1923.000000
1126.747494	1818.000000
1128.854399	1907.000000
1130.955089	1918.000000
1133.060991	1896.000000
1135.162584	1752.000000
1137.265580	1886.000000
1139.368075	1903.000000
1141.464363	1927.000000
1143.565858	1740.000000
1145.663051	1894.000000
1147.759746	1963.000000
1149.855942	1938.000000
1151.951641	1882.000000
1154.046841	1920.000000
1156.139645	1835.000000
1158.233852	1884.000000
1160.321866	1767.000000
1162.415080	1867.000000
1164.502105	1876.000000
1166.592429	1790.000000
1168.678465	1824.000000
1170.767800	1790.000000
1172.850953	1921.000000
1174.935508	1741.000000
1177.021465	1987.000000
1179.103140	1801.000000
1181.186217	1859.000000
1183.266908	1865.000000
1185.347107	1865.000000
1187.426815	1832.000000
1189.506032	1908.000000
1191.582867	1806.000000
1193.657320	1806.000000
1195.735066	1973.000000
1197.808542	1838.000000
1199.883418	1868.000000
1201.954027	1919.000000
1204.026037	1805.000000
1206.095672	1913.000000
1208.166706	1777.000000
1210.237254	1828.000000
1212.303540	1882.000000
1214.371227	1865.000000
1216.436542	1891.000000
1218.503257	1817.000000
1220.565716	1872.000000
1222.631460	1867.000000
1224.692950	1897.000000
1226.755841	1826.000000
1228.816364	1863.000000
1230.876403	1866.000000
1232.935960	1824.000000
1234.993151	1941.000000
1237.049861	1756.000000
1239.104207	1874.000000
1241.161835	1870.000000
1243.217100	1846.000000
1245.268124	1785.000000
1247.320548	1874.000000
1249.372492	1804.000000
1251.422078	1727.000000
1253.471185	1813.000000
1255.519814	1891.000000
1257.567964	1848.000000
1259.615635	1870.000000
1261.659076	1764.000000
1263.705793	1909.000000
1265.750156	1918.000000
1267.794043	1846.000000
1269.835578	2015.000000
1271.874764	1796.000000
1273.917223	1869.000000
1275.955459	1871.000000
1277.995094	1869.000000
1280.034254	1766.000000
1282.069195	1825.000000
1284.105535	1878.000000
1286.139531	1852.000000
1288.174924	1890.000000
1290.206105	1890.000000
1292.238683	1812.000000
1294.270790	1889.000000
1296.300556	1924.000000
1298.331719	1906.000000
1300.358676	1937.000000
1302.387030	1868.000000
1304.411179	1857.000000
1306.438594	1924.000000
1308.461806	1919.000000
1310.486416	1847.000000
1312.508692	1842.000000
1314.532365	1855.000000
1316.553704	1814.000000
1318.574577	1886.000000
1320.594982	1828.000000
1322.611194	1874.000000
1324.628803	1801.000000
1326.644084	1845.000000
1328.662624	1903.000000
1330.676975	1905.000000
1332.688999	1869.000000
1334.704282	1849.000000
1336.715379	1880.000000
1338.727873	1810.000000
1340.736184	1860.000000
1342.747750	1779.000000
1344.753278	1848.000000
1346.762061	1805.000000
1348.766666	1929.000000
1350.774525	1826.000000
1352.781922	1869.000000
1354.783288	1799.000000
1356.786050	1980.000000
1358.788353	1815.000000
1360.790196	1939.000000
1362.791579	1885.000000
1364.790649	1829.000000
1366.789260	1907.000000
1368.787413	1933.000000
1370.785107	1818.000000
1372.778639	1971.000000
1374.773566	1881.000000
1376.768037	1838.000000
1378.762051	1929.000000
1380.753758	1895.000000
1382.745009	1736.000000
1384.733955	1889.000000
1386.724297	1872.000000
1388.714183	1896.000000
1390.701765	1812.000000
1392.688894	1952.000000
1394.673721	1915.000000
1396.659943	1932.000000
1398.643864	1767.000000
1400.627333	1936.000000
1402.610350	1897.000000
1404.591069	1902.000000
1406.573182	1804.000000
1408.552999	1880.000000
1410.532364	1789.000000
1412.507591	1882.000000
1414.486056	1896.000000
1416.462228	1842.000000
1418.437951	1833.000000
1420.413224	1900.000000
1422.386206	1923.000000
1424.358740	1988.000000
1426.330826	1893.000000
1428.302465	1936.000000
1430.269975	1832.000000
1432.242559	1928.000000
1434.207337	1838.000000
1436.177188	1908.000000
1438.142915	1850.000000
1440.110034	1958.000000
1442.074870	1882.000000
1444.035586	1927.000000
1446.001370	1828.000000
1447.961199	1969.000000
1449.922422	1985.000000
1451.885037	1899.000000
1453.843537	1936.000000
1455.801594	1956.000000
1457.759210	1913.000000
1459.716383	1935.000000
1461.671281	1950.000000
1463.627572	1986.000000
1465.581588	1978.000000
1467.535163	1925.000000
1469.486466	1896.000000
1471.439162	1953.000000
1473.389585	1941.000000
1475.339570	1977.000000
1477.289116	1851.000000
1479.236393	2082.000000
1481.181402	1819.000000
1483.127804	1902.000000
1485.073768	1867.000000
1487.019295	1815.000000
1488.962556	1887.000000
1490.905382	1917.000000
1492.845944	1809.000000
1494.787897	1833.000000
1496.727588	1910.000000
1498.666845	1915.000000
1500.605666	1907.000000
1502.542228	2041.000000
1504.480181	1891.000000
1506.415875	1901.000000
1508.351136	1886.000000
1510.284141	1941.000000
1512.216713	1835.000000
1514.148853	1873.000000
1516.080561	1943.000000
1518.010015	1979.000000
1519.940860	1939.000000
1521.871273	1919.000000
1523.797614	1941.000000
1525.725345	1953.000000
1527.650827	1992.000000
1529.575879	1944.000000
1531.500502	1864.000000
1533.424695	1926.000000
1535.346642	1997.000000
1537.269979	1924.000000
1539.191069	1944.000000
1541.109915	1888.000000
1543.030151	1967.000000
1544.948144	1965.000000
1546.865710	1873.000000
1548.781034	1968.000000
1550.697748	1916.000000
1552.610407	1994.000000
1554.526270	2063.000000
1556.439893	1949.000000
1558.351278	1969.000000
1560.264053	2000.000000
1562.172778	1893.000000
1564.082892	2032.000000
1565.992583	1989.000000
1567.901851	1934.000000
1569.808885	1904.000000
1571.713686	1885.000000
1573.619876	1874.000000
1575.523834	1940.000000
1577.427371	1906.000000
1579.330488	1950.000000
1581.231375	1969.000000
1583.133651	1947.000000
1585.033699	1918.000000
1586.935134	1895.000000
1588.832536	1814.000000
1590.729519	1879.000000
1592.626084	1958.000000
1594.524037	1881.000000
1596.416155	1858.000000
1598.311466	1955.000000
1600.206360	1882.000000
1602.099032	1973.000000
1603.991287	1865.000000
1605.881323	2001.000000
1607.770943	1892.000000
1609.660148	1899.000000
1611.548938	1933.000000
1613.435510	1956.000000
1615.323470	1821.000000
1617.207413	1886.000000
1619.092743	1840.000000
1620.977660	1886.000000
1622.860363	1994.000000
1624.744453	1983.000000
1626.624531	1909.000000
1628.505997	1848.000000
1630.385252	1934.000000
1632.265893	1903.000000
1634.140730	1962.000000
1636.020548	1941.000000
1637.896362	1870.000000
1639.771765	1907.000000
1641.648554	1984.000000
1643.519547	1861.000000
1645.393721	1887.000000
1647.263896	1949.000000
1649.137252	2042.000000
1651.008405	1990.000000
1652.877357	1891.000000
1654.747693	1878.000000
1656.614037	1941.000000
1658.481766	1955.000000
1660.347296	1811.000000
1662.214212	1931.000000
1664.077139	1947.000000
1665.941451	1841.000000
1667.803567	1950.000000
1669.665278	1882.000000
1671.528375	1918.000000
1673.389276	1878.000000
1675.247985	1861.000000
1677.106290	1897.000000
1678.965979	1978.000000
1680.819902	1943.000000
1682.676998	1994.000000
1684.533690	1861.000000
1686.386407	1845.000000
1688.242295	1919.000000
1690.094209	1896.000000
1691.945722	1903.000000
1693.796834	1813.000000
1695.647546	1892.000000
1697.497856	2020.000000
1699.345983	1860.000000
1701.195494	1830.000000
1703.039256	1898.000000
1704.887967	1767.000000
1706.730932	1904.000000
1708.577064	1826.000000
1710.419233	1833.000000
1712.264568	1768.000000
1714.104162	1822.000000
1715.945140	1842.000000
1717.787501	1969.000000
1719.625906	1909.000000
1721.465694	1842.000000
1723.303306	1908.000000
1725.140524	1781.000000
1726.975568	1849.000000
1728.811995	1835.000000
1730.646250	1826.000000
1732.480110	1784.000000
1734.313576	1771.000000
1736.143097	1910.000000
1737.975776	1820.000000
1739.804511	1781.000000
1741.636403	1845.000000
1743.464353	1758.000000
1745.291912	1908.000000
1747.119078	1854.000000
1748.945853	1793.000000
1750.772236	1906.000000
1752.594683	1839.000000
1754.420285	1790.000000
1756.241952	1884.000000
1758.065001	1799.000000
1759.885888	1722.000000
1761.706387	1862.000000
1763.528266	1802.000000
1765.344447	1842.000000
1767.163779	1804.000000
1768.979183	1833.000000
1770.797739	1908.000000
1772.612369	1867.000000
1774.426612	1895.000000
1776.240469	1816.000000
1778.053939	1733.000000
1779.865256	1770.000000
1781.677953	1852.000000
1783.490265	1756.000000
1785.298658	1858.000000
1787.108433	1797.000000
1788.914293	1752.000000
1790.723298	1822.000000
1792.528390	1748.000000
1794.334863	1795.000000
1796.140952	1755.000000
1797.943130	1894.000000
1799.748453	1801.000000
1801.549867	1720.000000
1803.352661	1762.000000
1805.151549	1810.000000
1806.951818	1805.000000
1808.751705	1837.000000
1810.549450	1811.000000
1812.346815	1741.000000
1814.143800	1783.000000
1815.940404	1774.000000
1817.734869	1791.000000
1819.530713	1845.000000
1821.320902	1719.000000
1823.115988	1803.000000
1824.905422	1759.000000
1826.697992	1803.000000
1828.488427	1711.000000
1830.276728	1836.000000
1832.068164	1926.000000
1833.853954	1769.000000
1835.641124	1834.000000
1837.426162	1944.000000
1839.214334	1789.000000
1840.998620	1775.000000
1842.780776	1777.000000
1844.564312	1733.000000
1846.345719	1742.000000
1848.128505	1749.000000
1849.907410	1828.000000
1851.687694	1828.000000
1853.465853	1745.000000
1855.245390	1785.000000
1857.022802	1785.000000
1858.798090	1754.000000
1860.574756	1842.000000
1862.349300	1714.000000
1864.125222	1693.000000
1865.895523	1840.000000
1867.668952	1849.000000
1869.440261	1801.000000
1871.211199	1750.000000
1872.983515	1640.000000
1874.750217	1737.000000
1876.520045	1698.000000
1878.286009	1801.000000
1880.055096	1747.000000
1881.820322	1692.000000
1883.585180	1790.000000
1885.351415	1862.000000
1887.113791	1836.000000
1888.875800	1830.000000
1890.637441	1782.000000
1892.398716	1743.000000
1894.159623	1747.000000
1895.920164	1828.000000
1897.678595	1707.000000
1899.436660	1696.000000
1901.192618	1701.000000
1902.949952	1754.000000
1904.706921	1746.000000
1906.461783	1704.000000
1908.214541	1794.000000
1909.966934	1721.000000
1911.720704	1777.000000
1913.472370	1773.000000
1915.221934	1644.000000
1916.972873	1740.000000
1918.723450	1768.000000
1920.470187	1747.000000
1922.218301	1851.000000
1923.964315	1694.000000
1925.711704	1606.000000
1927.456996	1659.000000
1929.200190	1772.000000
1930.944759	1678.000000
1932.687232	1787.000000
1934.429346	1695.000000
1936.171099	1748.000000
1937.912492	1748.000000
1939.651792	1687.000000
1941.390733	1694.000000
1943.129315	1726.000000
1944.865806	1790.000000
1946.601939	1736.000000
1948.339446	1682.000000
1950.073131	1747.000000
1951.808191	1806.000000
1953.541162	1765.000000
1955.273777	1738.000000
1957.006036	1729.000000
1958.737938	1844.000000
1960.467754	1773.000000
1962.195485	1795.000000
1963.924591	1827.000000
1965.653341	1663.000000
1967.380009	1808.000000
1969.106322	1797.000000
1970.834008	1706.000000
1972.556158	1796.000000
1974.281409	1656.000000
1976.002853	1772.000000
1977.727398	1730.000000
1979.449862	1707.000000
1981.168524	1914.000000
1982.890284	1830.000000
1984.608242	1854.000000
1986.327573	1833.000000
1988.043105	1783.000000
1989.763457	1805.000000
1991.480011	1845.000000
1993.192768	1774.000000
1994.908621	1733.000000
1996.622402	1726.000000
1998.335833	1837.000000
2000.047193	1737.000000
2001.759925	1857.000000
2003.468867	1805.000000
2005.180901	1869.000000
2006.887426	1799.000000
2008.597044	1875.000000
2010.304595	1851.000000
2012.011797	1845.000000
2013.716934	1815.000000
2015.421725	1742.000000
2017.127887	1674.000000
2018.830267	1732.000000
2020.534018	1787.000000
2022.235707	1851.000000
2023.937051	1788.000000
2025.638049	1927.000000
2027.336986	1946.000000
2029.037295	1816.000000
2030.733828	1854.000000
2032.431734	1792.000000
2034.127580	1856.000000
2035.826512	1769.000000
2037.519958	1755.000000
2039.214775	1817.000000
2040.909250	1911.000000
2042.599956	1782.000000
2044.293746	1833.000000
2045.983769	1800.000000
2047.675163	1831.000000
2049.364504	1658.000000
2051.055215	1877.000000
2052.742163	1813.000000
2054.428772	1792.000000
2056.116750	1747.000000
2057.800969	1888.000000
2059.486559	1803.000000
2061.171809	1683.000000
2062.855010	1784.000000
2064.539582	1814.000000
2066.218691	1716.000000
2067.902585	1822.000000
2069.581018	1760.000000
2071.262529	1723.000000
2072.940288	1821.000000
2074.617711	1750.000000
2076.296503	1835.000000
2077.973253	1731.000000
2079.647961	1771.000000
2081.324038	1753.000000
2082.998074	1741.000000
2084.671776	1792.000000
2086.345142	1795.000000
2088.016469	1718.000000
2089.687462	1758.000000
2091.358121	1799.000000
2093.028446	1802.000000
2094.698437	1786.000000
2096.366392	1717.000000
2098.034014	1687.000000
2099.699601	1794.000000
2101.366557	1770.000000
2103.031480	1865.000000
2104.696071	1867.000000
2106.358630	1662.000000
2108.022557	1854.000000
2109.684453	1825.000000
2111.346019	1783.000000
2113.007253	1884.000000
2114.666459	1867.000000
2116.325334	1843.000000
2117.983880	1729.000000
2119.642095	1768.000000
2121.296588	1840.000000
2122.954145	1714.000000
2124.611372	1776.000000
2126.264879	1876.000000
2127.919753	1675.000000
2129.570908	1812.000000
2131.225126	1765.000000
2132.875626	1736.000000
2134.527494	1808.000000
2136.173953	1866.000000
2137.825167	1828.000000
2139.472667	1772.000000
2141.121534	1804.000000
2142.768382	1906.000000
2144.414905	1776.000000
2146.061102	1912.000000
2147.703591	1706.000000
2149.349138	1848.000000
2150.990978	1699.000000
2152.635875	1818.000000
2154.277066	1824.000000
2155.917935	1839.000000
2157.558479	1708.000000
2159.197011	1651.000000
2160.836909	1829.000000
2162.473107	1756.000000
2164.110671	1718.000000
2165.747913	1782.000000
2167.383145	1696.000000
2169.018055	1781.000000
2170.652644	1637.000000
2172.286912	1717.000000
2173.917486	1779.000000
2175.551112	1770.000000
2177.181046	1779.000000
2178.812345	1766.000000
2180.441639	1799.000000
2182.070614	1778.000000
2183.699269	1783.000000
2185.327605	1728.000000
2186.953939	1758.000000
2188.579954	1752.000000
2190.203967	1773.000000
2191.829346	1832.000000
2193.452724	1763.000000
2195.077467	1793.000000
2196.698529	1809.000000
2198.319274	1762.000000
2199.941384	1674.000000
2201.561496	1777.000000
2203.179611	1773.000000
2204.797411	1769.000000
2206.414896	1746.000000
2208.032065	1827.000000
2209.648919	1699.000000
2211.265457	1727.000000
2212.880003	1623.000000
2214.492556	1793.000000
2216.106473	1662.000000
2217.718399	1759.000000
2219.331688	1772.000000
2220.942987	1715.000000
2222.552296	1697.000000
2224.162969	1659.000000
2225.771653	1738.000000
2227.380024	1764.000000
2228.986409	1620.000000
2230.594156	1724.000000
2232.199918	1818.000000
2233.805368	1583.000000
2235.408833	1712.000000
2237.013661	1642.000000
2238.616505	1678.000000
2240.217366	1689.000000
2241.819590	1708.000000
2243.419832	1636.000000
2245.021436	1717.000000
2246.619387	1743.000000
2248.218701	1769.000000
2249.816035	1662.000000
2251.413061	1718.000000
2253.011449	1726.000000
2254.606188	1762.000000
2256.198950	1675.000000
2257.793075	1735.000000
2259.388561	1609.000000
2260.980402	1742.000000
2262.571937	1777.000000
2264.164834	1660.000000
2265.752421	1742.000000
2267.344704	1649.000000
2268.931681	1701.000000
2270.521685	1667.000000
2272.106385	1756.000000
2273.695779	1634.000000
2275.279871	1767.000000
2276.865323	1753.000000
2278.448807	1664.000000
2280.035316	1705.000000
2281.618192	1689.000000
2283.200765	1570.000000
2284.783034	1687.000000
2286.361673	1750.000000
2287.943337	1719.000000
2289.521372	1725.000000
2291.102430	1579.000000
2292.679861	1636.000000
2294.255329	1693.000000
2295.833819	1658.000000
2297.408685	1638.000000
2298.983250	1570.000000
2300.557514	1676.000000
2302.131479	1727.000000
2303.705142	1603.000000
2305.278506	1616.000000
2306.848251	1617.000000
2308.417697	1688.000000
2309.990161	1704.000000
2311.557351	1668.000000
2313.127559	1558.000000
2314.694152	1621.000000
2316.262105	1618.000000
2317.828102	1713.000000
2319.393802	1594.000000
2320.959204	1680.000000
2322.522653	1543.000000
2324.087461	1657.000000
2325.648661	1631.000000
2327.212875	1760.000000
2328.771827	1672.000000
2330.333793	1666.000000
2331.893809	1688.000000
2333.453530	1708.000000
2335.011301	1644.000000
2336.568777	1480.000000
2338.125959	1551.000000
2339.681193	1609.000000
2341.236134	1574.000000
2342.790780	1508.000000
2344.345133	1574.000000
2345.899192	1710.000000
2347.452958	1638.000000
2349.004779	1548.000000
2350.554658	1608.000000
2352.107544	1578.000000
2353.655187	1531.000000
2355.205839	1719.000000
2356.752899	1704.000000
2358.301317	1652.000000
2359.849444	1637.000000
2361.393982	1576.000000
2362.939878	1661.000000
2364.483836	1634.000000
2366.029150	1606.000000
2367.570881	1555.000000
2369.113968	1628.000000
2370.655119	1541.000000
2372.195981	1657.000000
2373.736554	1688.000000
2375.276838	1576.000000
2376.816833	1616.000000
2378.353250	1633.000000
2379.892668	1557.000000
2381.428508	1636.000000
2382.965706	1607.000000
2384.499328	1576.000000
2386.035950	1613.000000
2387.570642	1617.000000
2389.103404	1526.000000
2390.635879	1468.000000
2392.166426	1584.000000
2393.699971	1556.000000
2395.228305	1535.000000
2396.757995	1595.000000
2398.287400	1528.000000
2399.816520	1614.000000
2401.345354	1529.000000
2402.868984	1666.000000
2404.397249	1614.000000
2405.920312	1660.000000
2407.448008	1541.000000
2408.968865	1545.000000
2410.494354	1674.000000
2412.016284	1611.000000
2413.539568	1588.000000
2415.060932	1622.000000
2416.580376	1639.000000
2418.101175	1595.000000
2419.620056	1636.000000
2421.138654	1574.000000
2422.655335	1555.000000
2424.173370	1533.000000
2425.691124	1546.000000
2427.205326	1592.000000
2428.719249	1632.000000
2430.232891	1593.000000
2431.747888	1541.000000
2433.259336	1559.000000
2434.772139	1623.000000
2436.283028	1584.000000
2437.793639	1521.000000
2439.302338	1571.000000
2440.814023	1588.000000
2442.322165	1709.000000
2443.830029	1509.000000
2445.337615	1580.000000
2446.841660	1566.000000
2448.348690	1620.000000
2449.853812	1557.000000
2451.358657	1589.000000
2452.861595	1587.000000
2454.364257	1555.000000
2455.866642	1529.000000
2457.367122	1443.000000
2458.868955	1543.000000
2460.368883	1589.000000
2461.868536	1538.000000
2463.367914	1557.000000
2464.865389	1456.000000
2466.360962	1429.000000
2467.859515	1485.000000
2469.354540	1633.000000
2470.850917	1491.000000
2472.343768	1574.000000
2473.837972	1551.000000
2475.331902	1572.000000
2476.822308	1491.000000
2478.315692	1540.000000
2479.807178	1528.000000
2481.296767	1573.000000
2482.786084	1536.000000
2484.273505	1589.000000
2485.763902	1628.000000
2487.250781	1568.000000
2488.739011	1509.000000
2490.223724	1560.000000
2491.708168	1481.000000
2493.193962	1550.000000
2494.677865	1546.000000
2496.163118	1552.000000
2497.643238	1550.000000
2499.126331	1521.000000
2500.607533	1457.000000
2502.088466	1539.000000
2503.567510	1493.000000
2505.046285	1501.000000
2506.524792	1665.000000
2508.003031	1473.000000
2509.481001	1534.000000
2510.955466	1463.000000
2512.432901	1541.000000
2513.906832	1502.000000
2515.382113	1473.000000
2516.857127	1531.000000
2518.328640	1486.000000
2519.801504	1502.000000
2521.272485	1549.000000
2522.744816	1436.000000
2524.212033	1518.000000
2525.682217	1435.000000
2527.150520	1501.000000
2528.618558	1437.000000
2530.086331	1463.000000
2531.553839	1549.000000
2533.021082	1512.000000
2534.484833	1471.000000
2535.949934	1485.000000
2537.413158	1494.000000
2538.877731	1453.000000
2540.338816	1470.000000
2541.801250	1524.000000
2543.263421	1526.000000
2544.722106	1501.000000
2546.185362	1456.000000
2547.643523	1581.000000
2549.103032	1524.000000
2550.557447	1447.000000
2552.016433	1579.000000
2553.473547	1499.000000
2554.928789	1490.000000
2556.383771	1487.000000
2557.836884	1494.000000
2559.291345	1428.000000
2560.743936	1585.000000
2562.196268	1543.000000
2563.646733	1384.000000
2565.100153	1542.000000
2566.548491	1450.000000
2567.999784	1551.000000
2569.449212	1500.000000
2570.895167	1503.000000
2572.344077	1535.000000
2573.789517	1551.000000
2575.236304	1543.000000
2576.681228	1456.000000
2578.125895	1526.000000
2579.571909	1426.000000
2581.014457	1565.000000
2582.458352	1442.000000
2583.898782	1430.000000
2585.340559	1480.000000
2586.780477	1511.000000
2588.221742	1499.000000
2589.659545	1403.000000
2591.100298	1407.000000
2592.535989	1520.000000
2593.974629	1380.000000
2595.411411	1486.000000
2596.846338	1496.000000
2598.284212	1467.000000
2599.717029	1504.000000
2601.151193	1448.000000
2602.583503	1550.000000
2604.017159	1508.000000
2605.448962	1458.000000
2606.880511	1540.000000
2608.311808	1444.000000
2609.741252	1455.000000
2611.170444	1434.000000
2612.597786	1471.000000
2614.026473	1577.000000
2615.454909	1530.000000
2616.879897	1458.000000
2618.306232	1447.000000
2619.730718	1486.000000
2621.156550	1513.000000
2622.578938	1449.000000
2624.002672	1453.000000
2625.424559	1468.000000
2626.846197	1439.000000
2628.265989	1459.000000
2629.687127	1397.000000
2631.108015	1393.000000
2632.525464	1412.000000
2633.945854	1466.000000
2635.362806	1468.000000
2636.779509	1419.000000
2638.195964	1418.000000
2639.612171	1467.000000
2641.028130	1451.000000
2642.442248	1383.000000
2643.856118	1541.000000
2645.268150	1331.000000
2646.681525	1386.000000
2648.091471	1514.000000
2649.504353	1444.000000
2650.913806	1331.000000
2652.323013	1537.000000
2653.730384	1395.000000
2655.140689	1393.000000
2656.549159	1474.000000
2657.955793	1508.000000
2659.362182	1455.000000
2660.766737	1487.000000
2662.172636	1383.000000
2663.576702	1499.000000
2664.980523	1512.000000
2666.384100	1451.000000
2667.785846	1396.000000
2669.188935	1458.000000
2670.588606	1470.000000
2671.989621	1554.000000
2673.387220	1414.000000
2674.787748	1498.000000
2676.184862	1433.000000
2677.583319	1467.000000
2678.979949	1476.000000
2680.376336	1367.000000
2681.772481	1322.000000
2683.166800	1501.000000
2684.562462	1430.000000
2685.954715	1450.000000
2687.348310	1384.000000
2688.740081	1467.000000
2690.133195	1405.000000
2691.524485	1507.000000
2692.913952	1456.000000
2694.303179	1456.000000
2695.692167	1436.000000
2697.082496	1422.000000
2698.467842	1424.000000
2699.856111	1418.000000
2701.242560	1354.000000
2702.628770	1454.000000
2704.014741	1419.000000
2705.397314	1386.000000
2706.781229	1406.000000
2708.164906	1451.000000
2709.548344	1351.000000
2710.928387	1406.000000
2712.309772	1382.000000
2713.689342	1387.000000
2715.070252	1462.000000
2716.449348	1356.000000
2717.826630	1326.000000
2719.205253	1387.000000
2720.582063	1388.000000
2721.958636	1305.000000
2723.334974	1396.000000
2724.709501	1385.000000
2726.085368	1356.000000
2727.457848	1418.000000
2728.833244	1319.000000
2730.203680	1430.000000
2731.575457	1415.000000
2732.946999	1386.000000
2734.316733	1356.000000
2735.687808	1472.000000
2737.057074	1433.000000
2738.426107	1308.000000
2739.793334	1452.000000
2741.160327	1402.000000
2742.527088	1358.000000
2743.893617	1462.000000
2745.258340	1401.000000
2746.622831	1424.000000
2747.987091	1358.000000
2749.351118	1339.000000
2750.714914	1343.000000
2752.075336	1377.000000
2753.438668	1300.000000
2754.797058	1395.000000
2756.158358	1358.000000
2757.516288	1346.000000
2758.877126	1333.000000
2760.236165	1440.000000
2761.591835	1308.000000
2762.950413	1433.000000
2764.305624	1335.000000
2765.660606	1369.000000
2767.013792	1340.000000
2768.369883	1378.000000
2769.722611	1361.000000
2771.075111	1421.000000
2772.427382	1339.000000
2773.780991	1412.000000
2775.131240	1250.000000
2776.479694	1316.000000
2777.831054	1337.000000
2779.179054	1374.000000
2780.528392	1412.000000
2781.875938	1369.000000
2783.223258	1340.000000
2784.570351	1190.000000
2785.915653	1288.000000
2787.260728	1382.000000
2788.605578	1287.000000
2789.950202	1322.000000
2791.291474	1251.000000
2792.634084	1324.000000
2793.976468	1242.000000
2795.318627	1419.000000
2796.657437	1310.000000
2797.999147	1343.000000
2799.337509	1357.000000
2800.677207	1411.000000
2802.015121	1304.000000
2803.351250	1377.000000
2804.687155	1296.000000
2806.024398	1289.000000
2807.359857	1352.000000
2808.695093	1298.000000
2810.028546	1267.000000
2811.363336	1412.000000
2812.694786	1329.000000
2814.029131	1254.000000
2815.358578	1398.000000
2816.689361	1346.000000
2818.019924	1256.000000
2819.348707	1230.000000
2820.678826	1222.000000
2822.007167	1261.000000
2823.335287	1329.000000
2824.661629	1266.000000
2825.989308	1325.000000
2827.313653	1323.000000
2828.639335	1179.000000
2829.963241	1315.000000
2831.286927	1260.000000
2832.611950	1272.000000
2833.933642	1256.000000
2835.255116	1299.000000
2836.576371	1254.000000
2837.897407	1286.000000
2839.216670	1371.000000
2840.537269	1298.000000
2841.856097	1248.000000
2843.174706	1277.000000
2844.491544	1313.000000
2845.808165	1235.000000
2847.124569	1179.000000
2848.439203	1164.000000
2849.755173	1263.000000
2851.067822	1283.000000
2852.381806	1268.000000
2853.695574	1260.000000
2855.009125	1293.000000
2856.320910	1260.000000
2857.630928	1262.000000
2858.942281	1292.000000
2860.250319	1340.000000
2861.559691	1257.000000
2862.868849	1272.000000
2864.177791	1289.000000
2865.484969	1243.000000
2866.790385	1234.000000
2868.097134	1277.000000
2869.402122	1298.000000
2870.706895	1285.000000
2872.009908	1314.000000
2873.315801	1232.000000
2874.616840	1261.000000
2875.919213	1217.000000
2877.219826	1313.000000
2878.521773	1291.000000
2879.823506	1278.000000
2881.121936	1299.000000
2882.421699	1285.000000
2883.719705	1223.000000
2885.017499	1340.000000
2886.313537	1309.000000
2887.610908	1201.000000
2888.906523	1173.000000
2890.201927	1217.000000
2891.497120	1297.000000
2892.789016	1283.000000
2894.083788	1287.000000
2895.375263	1312.000000
2896.668071	1275.000000
2897.960669	1239.000000
2899.249973	1250.000000
2900.540609	1209.000000
2901.829494	1213.000000
2903.119711	1298.000000
2904.406637	1212.000000
2905.694895	1295.000000
2906.981404	1199.000000
2908.267704	1197.000000
2909.553797	1101.000000
2910.838141	1220.000000
2912.125356	1224.000000
2913.407745	1181.000000
2914.691466	1297.000000
2915.973441	1190.000000
2917.255208	1242.000000
2918.535231	1256.000000
2919.818123	1227.000000
2921.099270	1138.000000
2922.377135	1265.000000
2923.657869	1305.000000
2924.935322	1139.000000
2926.212569	1134.000000
2927.488074	1195.000000
2928.766447	1236.000000
2930.040006	1271.000000
2931.316432	1206.000000
2932.591117	1202.000000
2933.864061	1232.000000
2935.138337	1172.000000
2936.410873	1183.000000
2937.683204	1223.000000
2938.952263	1203.000000
2940.224187	1162.000000
2941.494373	1186.000000
2942.764355	1228.000000
2944.034134	1184.000000
2945.302177	1160.000000
2946.568483	1187.000000
2947.834588	1130.000000
2949.102022	1148.000000
2950.367721	1266.000000
2951.633219	1230.000000
2952.898514	1190.000000
2954.160544	1233.000000
2955.423904	1197.000000
2956.687063	1289.000000
2957.948490	1174.000000
2959.211246	1107.000000
2960.472270	1127.000000
2961.731564	1219.000000
2962.990658	1151.000000
2964.249551	1203.000000
2965.508244	1176.000000
2966.766737	1205.000000
2968.023501	1158.000000
2969.280065	1213.000000
2970.534902	1232.000000
2971.791067	1122.000000
2973.043978	1167.000000
2974.298218	1157.000000
2975.552258	1117.000000
2976.804573	1126.000000
2978.056690	1198.000000
2979.307082	1120.000000
2980.560329	1157.000000
2981.808799	1185.000000
2983.060124	1198.000000
2984.308199	1169.000000
2985.556078	1200.000000
2986.803759	1156.000000
2988.051243	1103.000000
2989.297006	1199.000000
2990.542573	1141.000000
2991.789467	1168.000000
2993.033117	1176.000000
2994.278095	1170.000000
2995.519829	1234.000000
2996.764415	1195.000000
2998.007282	1170.000000
2999.246908	1196.000000
3000.489384	1145.000000
3001.728620	1095.000000
3002.969184	1146.000000
3004.208031	1193.000000
3005.446684	1136.000000
3006.683621	1159.000000
3007.921886	1176.000000
3009.158435	1149.000000
3010.394791	1151.000000
3011.630953	1192.000000
3012.865401	1090.000000
3014.099657	1156.000000
3015.333719	1173.000000
3016.566068	1113.000000
3017.796707	1186.000000
3019.030191	1133.000000
3020.261963	1080.000000
3021.492025	1205.000000
3022.721894	1085.000000
3023.950054	1165.000000
3025.179541	1145.000000
3026.407318	1110.000000
3027.634904	1063.000000
3028.863816	1103.000000
3030.087987	1159.000000
3031.315000	1136.000000
3032.538789	1104.000000
3033.763905	1079.000000
3034.987314	1154.000000
3036.210533	1167.000000
3037.432047	1185.000000
3038.656402	1088.000000
3039.876022	1168.000000
3041.096968	1103.000000
3042.317725	1078.000000
3043.536778	1061.000000
3044.757156	1105.000000
3045.974318	1106.000000
3047.192806	1078.000000
3048.409591	1205.000000
3049.626189	1073.000000
3050.842598	1123.000000
3052.055794	1089.000000
3053.271829	1091.000000
3054.484651	1165.000000
3055.700310	1108.000000
3056.911246	1122.000000
3058.123507	1117.000000
3059.335582	1152.000000
3060.547469	1122.000000
3061.757660	1181.000000
3062.967664	1081.000000
3064.177482	1155.000000
3065.385604	1114.000000
3066.593541	1096.000000
3067.799782	1078.000000
3069.007348	1137.000000
3070.213219	1139.000000
3071.418906	1141.000000
3072.624407	1124.000000
3073.828215	1068.000000
3075.033347	1124.000000
3076.236786	1054.000000
3077.438534	1127.000000
3078.640097	1051.000000
3079.841477	1134.000000
3081.042673	1161.000000
3082.242179	1049.000000
3083.441502	1090.000000
3084.642148	1146.000000
3085.841104	1063.000000
3087.036866	1152.000000
3088.235457	1049.000000
3089.430854	1035.000000
3090.627574	1106.000000
3091.821102	1059.000000
3093.017458	1094.000000
3094.212127	1031.000000
3095.403606	990.000000
3096.599417	1085.000000
3097.790533	1018.000000
3098.982973	1167.000000
3100.172225	1052.000000
3101.364302	957.000000
3102.554696	1083.000000
3103.741904	1129.000000
3104.930434	1086.000000
3106.120287	1074.000000
3107.306956	1019.000000
3108.493444	1050.000000
3109.679754	1063.000000
3110.867385	1073.000000
3112.051834	1029.000000
3113.234604	1078.000000
3114.420196	1098.000000
3115.604109	1120.000000
3116.786343	1109.000000
3117.968398	1042.000000
3119.150275	1038.000000
3120.331974	1087.000000
3121.511996	1166.000000
3122.690341	1025.000000
3123.871506	1070.000000
3125.049496	1011.000000
3126.227309	1070.000000
3127.404945	1061.000000
3128.580907	1021.000000
3129.756691	1091.000000
3130.933797	1036.000000
3132.109228	1071.000000
3133.282986	1071.000000
3134.455071	1158.000000
3135.628478	1022.000000
3136.801708	1108.000000
3137.973267	968.000000
3139.146146	1001.000000
3140.315858	1052.000000
3141.486891	1077.000000
3142.656254	1130.000000
3143.823946	1090.000000
3144.994454	1023.000000
3146.160304	1130.000000
3147.330462	1029.000000
3148.495964	1049.000000
3149.661291	1074.000000
3150.826445	1019.000000
3151.991426	996.000000
3153.157726	957.000000
3154.319374	1007.000000
3155.482341	1003.000000
3156.645136	1014.000000
3157.807758	1024.000000
3158.968714	1047.000000
3160.129499	1016.000000
3161.290111	994.000000
3162.449059	979.000000
3163.607836	1125.000000
3164.766440	1113.000000
3165.924873	983.000000
3167.083135	1007.000000
3168.239734	936.000000
3169.394672	1090.000000
3170.550929	1045.000000
3171.705525	950.000000
3172.859951	1002.000000
3174.012717	1054.000000
3175.165312	975.000000
3176.317738	1016.000000
3177.469994	1046.000000
3178.622079	1073.000000
3179.771018	965.000000
3180.922765	981.000000
3182.072853	992.000000
3183.221285	967.000000
3184.369547	1025.000000
3185.517641	964.000000
3186.665566	1051.000000
3187.811835	1004.000000
3188.957936	1062.000000
3190.102383	1017.000000
3191.246662	975.000000
3192.390773	1004.000000
3193.536201	1010.000000
3194.678491	1063.000000
3195.820614	1011.000000
3196.962569	980.000000
3198.104357	1001.000000
3199.245978	1039.000000
3200.384464	938.000000
3201.524267	964.000000
3202.665387	955.000000
3203.803374	1054.000000
3204.939711	1016.000000
3206.075882	1045.000000
3207.213370	1022.000000
3208.349210	1010.000000
3209.486367	1011.000000
3210.618911	1088.000000
3211.755737	887.000000
3212.887951	1003.000000
3214.021482	961.000000
3215.154849	1000.000000
3216.285088	1060.000000
3217.418125	1034.000000
3218.548036	828.000000
3219.679263	1022.000000
3220.807366	930.000000
3221.938265	1034.000000
3223.067520	967.000000
3224.195132	944.000000
3225.319621	973.000000
3226.448386	1049.000000
3227.574029	975.000000
3228.699510	948.000000
3229.823349	909.000000
3230.949982	1008.000000
3232.072018	967.000000
3233.195370	956.000000
3234.318560	935.000000
3235.441587	942.000000
3236.562976	1010.000000
3237.684202	938.000000
3238.803791	912.000000
3239.923218	981.000000
3241.041007	1004.000000
3242.161588	923.000000
3243.279056	961.000000
3244.396363	950.000000
3245.513510	941.000000
3246.629020	1000.000000
3247.745846	950.000000
3248.859562	980.000000
3249.976067	950.000000
3251.090938	1038.000000
3252.202699	962.000000
3253.314302	999.000000
3254.427220	999.000000
3255.539978	965.000000
3256.649630	942.000000
3257.760597	861.000000
3258.871405	970.000000
3259.980581	917.000000
3261.088126	1005.000000
3262.196986	977.000000
3263.305688	955.000000
3264.411287	953.000000
3265.518200	975.000000
3266.623484	1009.000000
3267.730082	989.000000
3268.833580	968.000000
3269.938393	1013.000000
3271.043047	945.000000
3272.144604	975.000000
3273.246004	883.000000
3274.348718	935.000000
3275.451276	908.000000
3276.550737	935.000000
3277.652982	931.000000
3278.752131	862.000000
3279.849656	969.000000
3280.947025	926.000000
3282.047176	1010.000000
3283.144235	908.000000
3284.241138	973.000000
3285.337886	943.000000
3286.430076	989.000000
3287.526514	877.000000
3288.621330	964.000000
3289.715992	945.000000
3290.809032	958.000000
3291.901917	919.000000
3292.993182	941.000000
3294.085760	939.000000
3295.176718	912.000000
3296.266056	896.000000
3297.355241	836.000000
3298.445739	937.000000
3299.533152	971.000000
3300.620412	897.000000
3301.708985	882.000000
3302.797405	945.000000
3303.881279	1000.000000
3304.969394	926.000000
3306.054427	996.000000
3307.137845	942.000000
3308.222575	1025.000000
3309.305689	1002.000000
3310.390116	971.000000
3311.471464	879.000000
3312.554124	847.000000
3313.635170	867.000000
3314.716065	955.000000
3315.795346	918.000000
3316.874477	938.000000
3317.954920	846.000000
3319.032288	943.000000
3320.110968	930.000000
3321.188036	857.000000
3322.264955	914.000000
3323.340262	905.000000
3324.415420	906.000000
3325.491889	885.000000
3326.565288	1001.000000
3327.638537	873.000000
3328.713098	833.000000
3329.786050	953.000000
3330.857393	931.000000
3331.930047	849.000000
3332.999635	901.000000
3334.070533	971.000000
3335.139824	915.000000
3336.210426	915.000000
3337.279421	845.000000
3338.346810	892.000000
3339.412594	886.000000
3340.482604	959.000000
3341.549551	910.000000
3342.613436	807.000000
3343.680088	957.000000
3344.745137	785.000000
3345.808582	894.000000
3346.871881	897.000000
3347.935033	964.000000
3348.998039	941.000000
3350.060899	885.000000
3351.122157	873.000000
3352.180358	829.000000
3353.242779	912.000000
3354.302145	885.000000
3355.361365	938.000000
3356.421894	923.000000
3357.477915	938.000000
3358.536699	943.000000
3359.590976	968.000000
3360.648017	975.000000
3361.703459	901.000000
3362.760211	950.000000
3363.815364	952.000000
3364.868920	901.000000
3365.920880	911.000000
3366.975601	971.000000
3368.027273	865.000000
3369.078802	858.000000
3370.131639	854.000000
3371.181429	838.000000
3372.232528	909.000000
3373.280581	925.000000
3374.331393	911.000000
3375.379161	871.000000
3376.426786	907.000000
3377.474268	857.000000
3378.520158	915.000000
3379.567356	892.000000
3380.611512	861.000000
3381.658426	850.000000
3382.703748	937.000000
3383.746029	934.000000
3384.788170	908.000000
3385.831618	833.000000
3386.874925	871.000000
3387.916643	905.000000
3388.958219	791.000000
3389.999654	862.000000
3391.039501	822.000000
3392.077759	970.000000
3393.117325	837.000000
3394.156751	864.000000
3395.194589	853.000000
3396.230840	916.000000
3397.266952	955.000000
3398.304371	935.000000
3399.338757	892.000000
3400.374450	871.000000
3401.410004	920.000000
3402.442527	920.000000
3403.477803	866.000000
3404.510048	850.000000
3405.542155	851.000000
3406.572678	840.000000
3407.604508	874.000000
3408.636200	849.000000
3409.664864	971.000000
3410.693391	850.000000
3411.723224	868.000000
3412.752920	1002.000000
3413.779590	883.000000
3414.807567	878.000000
3415.832519	989.000000
3416.860221	901.000000
3417.884900	781.000000
3418.910885	874.000000
3419.935290	861.000000
3420.959559	853.000000
3421.982249	912.000000
3423.004803	873.000000
3424.028663	877.000000
3425.049503	921.000000
3426.070207	865.000000
3427.092218	869.000000
3428.111210	845.000000
3429.130066	847.000000
3430.150229	876.000000
3431.167375	781.000000
