-118.155753	-5.778022
-115.486152	14.582418
-112.819487	28.175025
-110.153575	36.093506
-107.490594	39.431568
-104.826183	39.282917
-102.164703	36.741259
-99.501794	33.983217
-96.843992	30.711888
-94.184759	31.290909
-91.526275	27.594406
-88.870716	26.423776
-86.213728	25.324476
-83.561837	21.876923
-80.908517	24.973427
-78.258117	27.797203
-75.606287	27.579021
-72.959548	29.236364
-70.311379	29.043357
-67.663954	24.356643
-65.019442	28.657343
-62.373501	27.283916
-59.732643	27.072727
-57.090354	28.517483
-54.450975	29.636364
-51.810167	31.534266
-49.170098	36.882517
-46.535103	40.639161
-43.898678	43.455944
-41.265157	47.460140
-38.630206	47.089510
-36.000322	46.959441
-33.366844	58.384615
-30.738429	60.339860
-28.110748	67.083916
-25.481639	45.813986
-22.857586	-76.237762
-20.229944	-680.773427
-17.607355	-1778.215385
-14.985497	-2041.713287
-12.364370	1358.573427
-9.743974	8281.425175
-7.126465	14197.198601
-4.507528	18371.299301
-1.891477	20755.637762
0.723846	21349.344056
3.338442	20161.478322
5.950156	17203.341259
8.563297	12567.457343
11.171405	6571.667133
13.783095	591.539860
16.389754	-2970.220979
18.997841	-2445.369231
21.605204	-276.195804
24.207542	55.339860
26.813458	68.311888
29.414353	64.478322
32.016675	59.109091
34.613979	54.254545
37.214859	47.358042
39.810725	44.881119
42.408018	40.125874
45.004592	42.903497
47.596157	42.855944
50.189150	44.434965
52.779282	44.769231
55.370842	47.537063
57.959542	46.910490
60.549670	42.804196
63.134798	38.658741
65.721354	40.285315
68.307195	35.899301
70.890183	34.144056
73.474598	33.458741
76.051883	34.813986
78.632735	34.492308
81.210738	34.882517
83.788031	34.018182
86.366750	36.641958
88.940488	35.183217
91.515652	31.591608
94.087973	33.068531
96.659587	36.324476
99.228360	37.411189
101.798560	42.545455
104.365921	44.983217
106.934709	46.665734
109.500659	50.144056
112.063775	54.313287
114.630448	61.483916
117.187898	72.760839
119.751034	84.630769
122.309211	107.200000
124.870942	157.404196
127.427716	252.110490
129.985916	393.418182
132.539164	595.288112
135.091713	848.293706
137.647814	1145.906294
140.198966	1469.012587
142.749420	1802.475524
145.299178	2101.088112
147.846116	2343.163636
150.392358	2525.569231
152.940027	2631.195804
155.486999	2685.499301
158.029035	2698.451748
160.570378	2684.690909
163.111029	2664.959441
165.653104	2632.008392
168.192369	2613.798601
170.728824	2605.667133
173.264589	2607.644755
175.801779	2588.310490
178.338277	2578.134266
180.871971	2570.818182
183.402860	2554.848951
185.933061	2543.601399
188.464687	2526.819580
190.993513	2520.864336
193.519539	2507.339860
196.044879	2495.328671
198.571644	2499.665734
201.095613	2490.914685
203.618896	2493.601399
206.141495	2484.566434
208.661301	2493.963636
211.180424	2509.285315
213.698864	2529.208392
216.218728	2549.583217
218.731591	2573.746853
221.247985	2604.206993
223.763698	2633.265734
226.274520	2667.674126
228.786767	2700.418182
231.296231	2722.597203
233.805017	2753.114685
236.313125	2770.089510
238.822657	2792.139860
241.327308	2803.365035
243.831283	2804.909091
246.336682	2801.163636
248.837206	2788.109091
251.341253	2768.309091
253.838330	2755.918881
256.338929	2736.510490
258.836757	2723.264336
261.333912	2713.002797
263.830394	2714.843357
266.322014	2721.226573
268.817152	2740.114685
271.309525	2756.009790
273.801227	2776.742657
276.290166	2791.193007
278.780528	2808.693706
281.268129	2833.833566
283.752970	2857.588811
286.241325	2872.818182
288.722742	2902.415385
291.207672	2947.879720
293.687756	3003.983217
296.171353	3057.532867
298.650108	3104.006993
301.130285	3129.193007
303.607711	3128.387413
306.084473	3118.942657
308.560571	3107.788811
311.033921	3104.755245
313.506610	3086.232168
315.978637	3060.693706
318.450002	3037.089510
320.918624	3015.902098
323.386586	2985.085315
325.855971	2938.365035
328.320533	2877.962238
330.788598	2803.549650
333.251844	2723.384615
335.714433	2662.681119
338.176364	2609.997203
340.637639	2583.762238
343.096180	2559.290909
345.556143	2526.717483
348.013374	2508.556643
350.469950	2484.232168
352.925871	2460.853147
355.379064	2434.383217
357.833679	2410.206993
360.283492	2385.107692
362.736801	2353.366434
365.185311	2318.475524
367.633171	2287.097902
370.082452	2261.043357
372.526940	2234.313287
374.972850	2203.316084
377.418111	2189.419580
379.860653	2173.534266
382.302547	2169.904895
384.743793	2158.152448
387.182324	2150.276923
389.622277	2135.973427
392.059516	2117.609790
394.494043	2095.931469
396.932058	2083.998601
399.365296	2070.206993
401.799956	2058.208392
404.229843	2046.780420
406.663215	2043.174825
409.091816	2043.100699
411.519777	2044.300699
413.949158	2029.439161
416.373775	2022.078322
418.799812	2015.581818
421.225210	2009.868531
423.649967	2002.579021
426.069965	1992.566434
428.491385	1980.130070
430.910108	1961.365035
433.330252	1929.742657
435.747701	1894.674126
438.166570	1854.627972
440.582746	1806.324476
442.994175	1756.724476
445.409080	1712.054545
447.821295	1675.020979
450.232876	1635.699301
452.643823	1597.099301
455.052084	1561.606993
457.459713	1537.130070
459.866709	1517.525874
462.273073	1498.342657
464.676756	1495.787413
467.079808	1495.306294
469.482230	1502.008392
471.884022	1512.082517
474.283136	1522.925874
476.683670	1539.523077
479.083575	1555.679720
481.478757	1571.952448
483.877406	1601.629371
486.271335	1635.351049
488.664638	1678.696503
491.057315	1735.127273
493.449367	1816.801399
495.842838	1940.043357
498.231596	2139.942657
500.617688	2537.151049
503.005200	3386.106294
505.392088	5060.377622
507.776313	7616.559441
510.161957	10746.372028
512.544938	13940.478322
514.925259	16703.841958
517.306999	18683.316084
519.686080	19638.355245
522.066580	19457.379021
524.444422	18197.560839
526.819609	16040.566434
529.194178	13409.068531
531.570166	10861.478322
533.943500	8881.883916
536.318253	7538.255944
538.688319	6653.686713
541.057770	6019.078322
543.428640	5524.646154
545.794828	5124.167832
548.162435	4781.359441
550.527396	4489.353846
552.891744	4244.146853
555.255480	4021.904895
557.620633	3842.123077
559.981114	3687.991608
562.343012	3544.406993
564.702271	3417.948252
567.058891	3303.323077
569.418957	3196.539860
571.772331	3096.244755
574.129150	3002.005594
576.483334	2919.152448
578.836909	2839.423776
581.189876	2757.651748
583.540212	2680.181818
585.891964	2620.102098
588.237040	2555.910490
590.587580	2499.798601
592.931447	2449.604196
595.280775	2398.316084
597.625454	2355.069930
599.967509	2315.820979
602.310981	2309.749650
604.651830	2334.274126
606.992076	2383.204196
609.329702	2445.078322
611.670763	2522.162238
614.007187	2594.117483
616.345027	2635.286713
618.680249	2646.597203
621.012856	2615.689510
623.346880	2550.202797
625.678289	2466.213986
628.009100	2369.713287
630.339313	2291.124476
632.668929	2225.281119
634.993921	2189.486713
637.324355	2157.303497
639.650167	2152.601399
641.973373	2141.962238
644.297995	2123.847552
646.620011	2107.316084
648.941433	2087.904895
651.260252	2084.813986
653.580487	2077.269930
655.900129	2066.889510
658.217170	2062.772028
660.533620	2060.205594
662.847471	2064.082517
665.162737	2056.620979
667.475407	2060.047552
669.789492	2049.342657
672.098978	2034.205594
674.409878	2017.801399
676.718186	2004.300699
679.025906	1990.475524
681.335041	1955.300699
683.639583	1920.047552
685.943539	1891.302098
688.246908	1854.600000
690.551692	1820.264336
692.851890	1787.724476
695.153503	1756.567832
697.454530	1728.545455
699.750976	1702.841958
702.048836	1684.358042
704.346114	1677.345455
706.642807	1664.608392
708.934925	1654.602797
711.230454	1652.002797
713.521410	1650.651748
715.813780	1644.577622
718.103574	1650.019580
720.392789	1648.050350
722.681423	1648.883916
724.967486	1649.100699
727.254962	1640.316084
729.539868	1638.089510
731.824195	1629.372028
734.105955	1614.413986
736.389128	1601.328671
738.671724	1588.679720
740.949764	1580.142657
743.229218	1571.514685
745.508097	1569.902098
747.786400	1559.851748
750.060154	1564.811189
752.335322	1556.731469
754.609916	1560.583217
756.881951	1551.544056
759.155399	1537.625175
761.426289	1534.753846
763.694622	1524.640559
765.964370	1521.934266
768.231562	1515.262937
770.498184	1512.113287
772.764237	1512.218182
775.027738	1514.509091
777.292651	1519.593007
779.556996	1519.853147
781.816810	1525.786014
784.078038	1515.450350
786.338698	1514.211189
788.596811	1516.718881
790.852380	1504.219580
793.111340	1501.269930
795.363801	1500.988811
797.621629	1501.542657
799.874938	1497.658741
802.125706	1498.100699
804.377887	1493.485315
806.627530	1491.036364
808.878584	1492.472727
811.125127	1486.896503
813.373083	1485.506294
815.618503	1482.156643
817.865336	1479.699301
820.111606	1483.784615
822.353373	1483.630769
824.598522	1477.054545
826.837199	1469.204196
829.079259	1460.593007
831.316820	1450.489510
833.555792	1444.202797
835.792238	1444.739860
838.030096	1434.237762
840.265428	1429.167832
842.498236	1427.345455
844.732456	1432.318881
846.964154	1430.695105
849.195297	1429.170629
851.425885	1423.832168
853.655919	1421.006993
855.885398	1417.034965
858.110397	1413.511888
860.338769	1410.953846
862.562663	1409.226573
864.787967	1401.204196
867.008796	1400.107692
869.232997	1402.156643
871.452725	1402.742657
873.673864	1402.595804
875.894452	1407.051748
878.112531	1408.404196
880.332019	1410.865734
882.547041	1408.384615
884.761515	1405.328671
886.975442	1398.116084
889.188821	1394.300699
891.401654	1383.068531
893.613939	1381.338462
895.823723	1370.040559
898.032961	1363.862937
900.241653	1365.595804
902.447847	1367.818182
904.655450	1378.380420
906.860556	1385.169231
909.065118	1396.544056
911.267185	1419.163636
913.470661	1435.825175
915.671643	1461.082517
917.872083	1486.081119
920.073932	1527.430769
922.269390	1586.433566
924.468206	1677.000000
926.662585	1798.860140
928.860321	1966.372028
931.053621	2158.030769
933.248329	2359.793007
935.440552	2563.746853
937.632237	2756.857343
939.823384	2905.825175
942.012048	3014.946853
944.200175	3076.353846
946.385822	3106.180420
948.574821	3114.558042
950.759397	3114.542657
952.943438	3109.573427
955.130829	3125.689510
957.309917	3130.374825
959.492354	3150.834965
961.674258	3176.783217
963.853688	3214.167832
966.030645	3239.738462
968.209010	3268.434965
970.388781	3289.050350
972.562204	3321.932867
974.738973	3339.436364
976.911336	3343.123077
979.085106	3311.513287
981.254472	3242.648951
983.427182	3118.120280
985.597426	2972.967832
987.767142	2797.619580
989.936329	2612.309091
992.101119	2420.650350
994.269251	2254.779021
996.432987	2105.579021
998.598131	2004.427972
1000.760815	1921.562238
1002.922974	1861.857343
1005.082675	1816.597203
1007.241853	1768.219580
1009.402437	1709.920280
1011.560566	1666.946853
1013.718171	1611.433566
1015.875253	1557.795804
1018.031812	1512.274126
1020.183991	1476.363636
1022.337577	1440.815385
1024.490640	1416.829371
1026.641256	1389.682517
1028.793277	1368.240559
1030.940925	1350.981818
1033.091905	1332.317483
1035.238515	1313.777622
1037.384605	1301.367832
1039.530177	1285.644755
1041.677153	1277.158042
1043.817842	1281.500699
1045.961859	1283.767832
1048.103437	1287.302098
1050.244497	1290.707692
1052.386962	1294.372028
1054.523148	1296.907692
1056.662660	1290.699301
1058.797816	1292.787413
1060.936297	1287.069930
1063.070425	1280.441958
1065.204039	1270.433566
1067.339057	1262.148252
1069.469726	1253.381818
1071.601801	1247.004196
1073.731445	1238.928671
1075.860578	1228.321678
1077.989200	1219.868531
1080.117310	1212.409790
1082.242994	1206.937063
1084.368168	1213.788811
1086.494745	1207.832168
1088.616986	1210.179021
1090.740631	1204.581818
1092.859941	1202.692308
1094.984480	1199.043357
1097.102775	1194.427972
1099.222473	1186.613986
1101.339753	1181.506294
1103.456527	1179.878322
1105.572794	1178.973427
1107.686646	1184.289510
1109.801901	1185.760839
1111.912834	1175.832168
1114.027078	1172.243357
1116.137003	1166.941259
1118.248330	1157.676923
1120.359154	1151.142657
1122.465661	1137.864336
1124.575477	1128.927273
1126.680979	1122.909091
1128.787885	1117.833566
1130.888574	1111.015385
1132.994476	1112.265734
1135.096069	1108.230769
1137.199065	1096.307692
1139.301560	1092.724476
1141.397849	1087.285315
1143.499344	1079.000000
1145.596537	1077.218182
1147.693231	1072.953846
1149.789428	1064.900699
1151.885126	1062.774825
1153.980327	1064.801399
1156.073131	1070.367832
1158.167337	1077.517483
1160.255352	1079.404196
1162.348565	1074.009790
1164.435590	1075.793007
1166.525915	1071.244755
1168.611951	1071.033566
1170.701285	1067.539860
1172.784438	1066.050350
1174.868994	1063.562238
1176.954950	1062.867133
1179.036625	1068.566434
1181.119702	1071.850350
1183.200393	1073.811189
1185.280593	1077.204196
1187.360301	1074.018182
1189.439518	1073.258741
1191.516352	1070.380420
1193.590806	1067.186014
1195.668552	1060.735664
1197.742027	1057.574825
1199.816904	1054.341259
1201.887513	1049.387413
1203.959523	1044.341259
1206.029157	1042.332867
1208.100192	1045.461538
1210.170739	1041.591608
1212.237025	1036.462937
1214.304712	1034.955245
1216.370027	1035.857343
1218.436742	1033.897902
1220.499201	1025.220979
1222.564946	1014.243357
1224.626436	1003.020979
1226.689326	998.264336
1228.749849	993.353846
1230.809889	1004.205594
1232.869445	1009.100699
1234.926637	1014.800000
1236.983346	1024.316084
1239.037693	1035.088112
1241.095320	1044.230769
1243.150585	1045.430769
1245.201609	1044.015385
1247.254033	1035.377622
1249.305978	1025.436364
1251.355564	1021.123077
1253.404671	1017.566434
1255.453299	1022.527273
1257.501449	1016.400000
1259.549121	1024.320280
1261.592562	1021.391608
1263.639278	1018.650350
1265.683642	1021.721678
1267.727528	1026.174825
1269.769064	1032.632168
1271.808250	1036.697902
1273.850708	1039.257343
1275.888945	1042.324476
1277.928579	1046.311888
1279.967739	1046.356643
1282.002681	1043.664336
1284.039021	1047.205594
1286.073016	1038.402797
1288.108410	1034.271329
1290.139590	1032.704895
1292.172169	1029.973427
1294.204275	1028.541259
1296.234041	1031.455944
1298.265205	1024.634965
1300.292161	1019.534266
1302.320515	1017.474126
1304.344665	1014.268531
1306.372080	1007.746853
1308.395292	1006.296503
1310.419902	999.979021
1312.442177	994.653147
1314.465850	988.914685
1316.487190	991.931469
1318.508063	992.454545
1320.528468	998.918881
1322.544679	1003.495105
1324.562289	1009.506294
1326.577570	1017.800000
1328.596110	1027.910490
1330.610460	1031.496503
1332.622485	1047.173427
1334.637768	1051.556643
1336.648865	1060.411189
1338.661358	1069.169231
1340.669669	1081.393007
1342.681236	1088.008392
1344.686764	1098.888112
1346.695546	1099.812587
1348.700152	1101.718881
1350.708011	1098.404196
1352.715407	1093.327273
1354.716773	1081.544056
1356.719536	1074.018182
1358.721839	1060.037762
1360.723681	1049.220979
1362.725065	1036.048951
1364.724134	1025.009790
1366.722745	1010.387413
1368.720898	1003.802797
1370.718593	994.353846
1372.712124	993.840559
1374.707052	992.618182
1376.701523	995.380420
1378.695537	992.310490
1380.687244	991.089510
1382.678495	992.041958
1384.667441	989.871329
1386.657782	982.960839
1388.647668	970.769231
1390.635251	960.745455
1392.622380	955.026573
1394.607207	949.427972
1396.593429	946.855944
1398.577350	945.846154
1400.560819	941.657343
1402.543836	935.304895
1404.524555	934.637762
1406.506668	935.234965
1408.486484	931.418182
1410.465850	929.374825
1412.441077	923.699301
1414.419542	922.330070
1416.395714	917.054545
1418.371436	916.016783
1420.346709	910.916084
1422.319691	907.861538
1424.292226	906.002797
1426.264312	911.253147
1428.235950	911.198601
1430.203461	909.033566
1432.176045	905.464336
1434.140823	907.625175
1436.110674	901.907692
1438.076400	903.230769
1440.043520	903.387413
1442.008356	903.634965
1443.969072	905.587413
1445.934856	912.528671
1447.894685	919.855944
1449.855907	928.118881
1451.818522	932.240559
1453.777022	941.132867
1455.735080	947.262937
1457.692695	957.995804
1459.649869	958.330070
1461.604767	966.369231
1463.561057	960.069930
1465.515073	951.334266
1467.468649	942.678322
1469.419952	934.237762
1471.372647	930.748252
1473.323071	927.709091
1475.273056	922.704895
1477.222601	922.525874
1479.169878	920.461538
1481.114888	918.618182
1483.061290	914.759441
1485.007254	907.423776
1486.952780	894.044755
1488.896042	882.809790
1490.838867	873.752448
1492.779429	868.549650
1494.721382	868.001399
1496.661074	866.713287
1498.600330	864.765035
1500.539152	871.924476
1502.475714	872.490909
1504.413666	877.703497
1506.349361	884.721678
1508.284622	885.053147
1510.217626	893.854545
1512.150198	899.072727
1514.082338	906.083916
1516.014046	914.889510
1517.943501	919.931469
1519.874345	929.711888
1521.804759	934.518881
1523.731100	934.737063
1525.658831	930.906294
1527.584312	927.011189
1529.509364	930.767832
1531.433987	934.057343
1533.358181	945.381818
1535.280128	950.165035
1537.203464	961.965035
1539.124555	977.040559
1541.043401	992.709091
1542.963637	1011.465734
1544.881629	1023.208392
1546.799195	1035.432168
1548.714519	1060.281119
1550.631233	1083.243357
1552.543892	1111.604196
1554.459755	1137.636364
1556.373379	1167.267133
1558.284764	1194.658741
1560.197538	1243.987413
1562.106263	1301.791608
1564.016378	1381.026573
1565.926069	1488.379021
1567.835336	1637.788811
1569.742370	1829.220979
1571.647171	2085.951049
1573.553361	2386.509091
1575.457319	2731.569231
1577.360857	3106.383217
1579.263973	3449.718881
1581.164861	3727.959441
1583.067137	3902.702098
1584.967184	3941.197203
1586.868620	3843.643357
1588.766021	3618.025175
1590.663005	3303.837762
1592.559570	2913.426573
1594.457522	2526.310490
1596.349640	2170.788811
1598.244952	1882.114685
1600.139845	1659.738462
1602.032517	1489.709091
1603.924773	1370.134266
1605.814809	1285.320280
1607.704429	1228.468531
1609.593634	1196.018182
1611.482423	1172.262937
1613.368996	1172.885315
1615.256955	1176.394406
1617.140899	1200.808392
1619.026229	1226.268531
1620.911146	1244.103497
1622.793849	1239.227972
1624.677938	1222.337063
1626.558017	1187.295105
1628.439482	1138.762238
1630.318737	1086.636364
1632.199378	1037.850350
1634.074215	981.664336
1635.954034	947.251748
1637.829847	919.576224
1639.705251	904.862937
1641.582040	900.425175
1643.453032	897.634965
1645.327206	889.302098
1647.197382	881.485315
1649.070738	874.528671
1650.941891	865.379021
1652.810842	857.223776
1654.681179	846.132867
1656.547522	832.612587
1658.415252	826.636364
1660.280782	815.146853
1662.147697	811.993007
1664.010624	808.935664
1665.874936	809.647552
1667.737053	801.553846
1669.598764	797.188811
1671.461860	796.267133
1673.322762	797.655944
1675.181470	791.188811
1677.039775	788.398601
1678.899465	781.956643
1680.753388	778.436364
1682.610483	773.250350
1684.467176	772.980420
1686.319893	767.481119
1688.175781	763.120280
1690.027695	753.267133
1691.879208	749.650350
1693.730320	748.906294
1695.581031	752.993007
1697.431342	747.514685
1699.279469	751.279720
1701.128979	748.033566
1702.972741	746.979021
1704.821453	743.953846
1706.664418	746.697902
1708.510549	742.851748
1710.352719	736.640559
1712.198053	737.910490
1714.037647	737.834965
1715.878625	736.158042
1717.720986	733.433566
1719.559391	727.306294
1721.399179	732.633566
1723.236792	732.095105
1725.074009	730.518881
1726.909053	730.232168
1728.745480	730.260140
1730.579735	730.724476
1732.413596	729.904895
1734.247062	728.355245
1736.076582	719.769231
1737.909261	710.906294
1739.737996	706.525874
1741.569889	702.885315
1743.397839	709.625175
1745.225397	710.367832
1747.052564	712.285315
1748.879338	715.972028
1750.705722	713.516084
1752.528169	715.213986
1754.353770	715.188811
1756.175437	713.325874
1757.998486	709.608392
1759.819374	707.447552
1761.639872	707.553846
1763.461752	707.574825
1765.277932	709.745455
1767.097264	708.226573
1768.912669	708.300699
1770.731225	709.644755
1772.545855	705.086713
1774.360098	704.415385
1776.173955	703.888112
1777.987425	706.946853
1779.798741	706.681119
1781.611439	703.590210
1783.423750	703.551049
1785.232144	710.134266
1787.041919	713.046154
1788.847778	717.850350
1790.656784	717.653147
1792.461876	714.848951
1794.268348	710.227972
1796.074437	703.120280
1797.876616	702.689510
1799.681938	703.306294
1801.483352	700.436364
1803.286146	703.881119
1805.085035	710.095105
1806.885303	713.972028
1808.685191	713.440559
1810.482936	713.517483
1812.280301	710.067133
1814.077285	702.728671
1815.873889	701.925874
1817.668354	699.707692
1819.464199	703.198601
1821.254388	700.654545
1823.049474	702.683916
1824.838907	710.587413
1826.631478	711.661538
1828.421913	707.598601
1830.210213	710.107692
1832.001649	706.839161
1833.787440	710.955245
1835.574609	710.321678
1837.359647	710.759441
1839.147819	706.847552
1840.932105	710.055944
1842.714262	715.170629
1844.497797	720.426573
1846.279205	723.976224
1848.061990	724.676923
1849.840896	729.023776
1851.621180	729.867133
1853.399339	727.071329
1855.178875	728.860140
1856.956287	723.848951
1858.731575	712.812587
1860.508242	710.260140
1862.282786	714.613986
1864.058707	718.676923
1865.829009	716.006993
1867.602438	714.295105
1869.373747	718.551049
1871.144685	721.984615
1872.917000	726.222378
1874.683703	727.404196
1876.453530	732.187413
1878.219494	734.372028
1879.988582	735.850350
1881.753808	738.913287
1883.518666	736.372028
1885.284900	730.181818
1887.047276	719.370629
1888.809285	709.879720
1890.570927	703.324476
1892.332201	693.265734
1894.093109	693.669930
1895.853649	684.973427
1897.612080	686.441958
1899.370146	680.559441
1901.126104	683.974825
1902.883438	679.974825
1904.640406	674.595804
1906.395269	671.103497
1908.148026	668.244755
1909.900420	664.513287
1911.654190	663.517483
1913.405856	663.875524
1915.155419	670.346853
1916.906359	667.714685
1918.656935	666.637762
1920.403673	660.861538
1922.151786	665.313287
1923.897800	657.840559
1925.645190	652.165035
1927.390481	654.278322
1929.133675	650.875524
1930.878245	653.541259
1932.620718	657.100699
1934.362831	660.495105
1936.104585	666.060140
1937.845978	667.506294
1939.585278	668.416783
1941.324219	673.492308
1943.062801	674.310490
1944.799291	669.211189
1946.535424	670.695105
1948.272931	669.149650
1950.006617	665.739860
1951.741677	668.001399
1953.474648	664.267133
1955.207263	657.420979
1956.939521	652.910490
1958.671423	645.853147
1960.401239	640.906294
1962.128971	643.338462
1963.858077	643.036364
1965.586827	642.986014
1967.313494	645.573427
1969.039807	647.285315
1970.767493	656.250350
1972.489643	657.791608
1974.214895	666.949650
1975.936339	666.074126
1977.660883	664.674126
1979.383348	661.902098
1981.102009	659.830769
1982.823769	661.793007
1984.541727	661.633566
1986.261059	659.107692
1987.976590	659.793007
1989.696943	664.570629
1991.413496	671.472727
1993.126254	671.647552
1994.842107	678.304895
1996.555888	674.327273
1998.269318	673.685315
1999.980678	673.678322
2001.693411	668.172028
2003.402352	664.151049
2005.114387	664.647552
2006.820912	663.937063
2008.530530	660.281119
2010.238080	665.072727
2011.945283	667.953846
2013.650420	663.937063
2015.355210	665.325874
2017.061372	668.805594
2018.763752	669.528671
2020.467504	669.637762
2022.169193	662.625175
2023.870536	660.713287
2025.571534	659.075524
2027.270472	652.709091
2028.970781	645.219580
2030.667314	647.296503
2032.365219	643.514685
2034.061066	640.179021
2035.759998	641.278322
2037.453444	641.472727
2039.148261	638.721678
2040.842735	638.755245
2042.533441	640.190210
2044.227231	638.790210
2045.917254	637.365035
2047.608648	633.612587
2049.297989	632.930070
2050.988700	634.600000
2052.675649	631.032168
2054.362257	630.886713
2056.050236	635.632168
2057.734455	637.278322
2059.420044	636.881119
2061.105294	640.483916
2062.788496	643.791608
2064.473068	637.559441
2066.152176	633.232168
2067.836070	627.903497
2069.514504	624.404196
2071.196015	619.358042
2072.873774	618.285315
2074.551197	616.613986
2076.229989	618.669930
2077.906738	613.374825
2079.581446	612.830769
2081.257523	614.783217
2082.931560	615.679720
2084.605261	615.244755
2086.278627	618.068531
2087.949955	618.928671
2089.620948	621.124476
2091.291607	616.688112
2092.961932	616.521678
2094.631922	619.078322
2096.299877	622.409790
2097.967499	622.209790
2099.633087	623.946853
2101.300043	623.356643
2102.964966	626.769231
2104.629556	625.397203
2106.292115	631.911888
2107.956043	627.095105
2109.617939	626.973427
2111.279504	619.995804
2112.940739	619.416783
2114.599944	621.200000
2116.258820	619.314685
2117.917365	618.304895
2119.575581	615.620979
2121.230074	608.597203
2122.887631	608.942657
2124.544858	604.593007
2126.198365	606.966434
2127.853239	605.054545
2129.504394	609.082517
2131.158612	612.330070
2132.809112	616.011189
2134.460980	621.074126
2136.107439	624.917483
2137.758652	627.160839
2139.406153	624.681119
2141.055020	615.230769
2142.701868	610.735664
2144.348391	600.514685
2145.994588	594.053147
2147.637076	591.897902
2149.282623	589.316084
2150.924463	591.142657
2152.569360	596.195804
2154.210552	602.956643
2155.851420	605.532867
2157.491965	612.746853
2159.130497	615.310490
2160.770395	620.730070
2162.406593	623.875524
2164.044157	626.784615
2165.681399	628.060140
2167.316631	624.707692
2168.951541	618.566434
2170.586130	617.243357
2172.220398	614.267133
2173.850972	609.422378
2175.484597	610.934266
2177.114531	614.468531
2178.745830	619.786014
2180.375125	620.925874
2182.004099	623.198601
2183.632755	623.555245
2185.261091	621.625175
2186.887424	617.986014
2188.513439	613.317483
2190.137453	612.662937
2191.762832	615.227972
2193.386210	615.327273
2195.010953	618.019580
2196.632014	620.569231
2198.252760	623.946853
2199.874869	621.730070
2201.494981	625.555245
2203.113097	623.980420
2204.730897	623.763636
2206.348381	618.577622
2207.965550	611.770629
2209.582404	608.359441
2211.198943	607.613986
2212.813488	600.158042
2214.426042	600.745455
2216.039959	603.156643
2217.651884	610.524476
2219.265174	613.823776
2220.876472	617.212587
2222.485782	619.317483
2224.096454	622.532867
2225.705138	617.517483
2227.313510	609.492308
2228.919894	605.376224
2230.527642	596.451748
2232.133403	594.744056
2233.738853	596.327273
2235.342319	595.241958
2236.947147	601.765035
2238.549991	599.360839
2240.150852	604.848951
2241.753076	611.588811
2243.353317	615.537063
2244.954922	608.997203
2246.552873	601.325874
2248.152187	600.279720
2249.749521	598.303497
2251.346547	597.121678
2252.944934	593.598601
2254.539673	588.041958
2256.132436	584.138462
2257.726560	587.723077
2259.322046	590.783217
2260.913888	597.844755
2262.505423	604.869930
2264.098319	602.606993
2265.685906	607.204196
2267.278190	614.349650
2268.865166	618.222378
2270.455171	617.183217
2272.039871	611.618182
2273.629265	600.011189
2275.213356	591.742657
2276.798809	586.286713
2278.382293	573.176224
2279.968802	571.525874
2281.551678	567.413986
2283.134250	559.166434
2284.716520	560.627972
2286.295159	558.468531
2287.876822	561.348252
2289.454858	566.318881
2291.035916	564.478322
2292.613347	561.074126
2294.188815	560.927273
2295.767305	561.061538
2297.342170	563.850350
2298.916735	568.233566
2300.491000	567.478322
2302.064964	566.216783
2303.638628	564.783217
2305.211991	562.419580
2306.781736	561.675524
2308.351182	561.200000
2309.923647	556.213986
2311.490837	549.822378
2313.061044	549.370629
2314.627637	554.562238
2316.195590	558.558042
2317.761588	560.327273
2319.327288	560.152448
2320.892690	564.381818
2322.456139	573.226573
2324.020947	586.472727
2325.582146	595.292308
2327.146360	605.377622
2328.705313	609.395804
2330.267279	609.155245
2331.827295	603.711888
2333.387015	601.788811
2334.944786	590.935664
2336.502263	578.980420
2338.059444	564.976224
2339.614679	557.938462
2341.169619	555.012587
2342.724266	556.633566
2344.278619	555.899301
2345.832678	559.278322
2347.386444	564.994406
2348.938265	566.914685
2350.488143	569.755245
2352.041029	573.979021
2353.588673	575.323077
2355.139324	576.390210
2356.686385	575.675524
2358.234803	576.427972
2359.782929	579.418182
2361.327468	578.289510
2362.873364	577.039161
2364.417321	574.851748
2365.962636	572.204196
2367.504366	569.793007
2369.047454	569.820979
2370.588605	567.784615
2372.129467	566.386014
2373.670040	565.820979
2375.210324	570.959441
2376.750319	574.923077
2378.286735	576.820979
2379.826153	575.453147
2381.361994	577.665734
2382.899191	576.544056
2384.432814	577.026573
2385.969436	579.220979
2387.504127	581.749650
2389.036889	579.349650
2390.569365	574.981818
2392.099912	574.793007
2393.633457	573.753846
2395.161791	571.130070
2396.691481	567.829371
2398.220886	565.334266
2399.750006	568.590210
2401.278840	569.916084
2402.802470	569.630769
2404.330735	571.500699
2405.853797	575.055944
2407.381494	576.563636
2408.902350	581.036364
2410.427840	582.697902
2411.949770	584.998601
2413.473054	589.180420
2414.994418	589.236364
2416.513862	594.709091
2418.034661	599.955245
2419.553541	596.406993
2421.072139	593.766434
2422.588820	598.234965
2424.106856	605.650350
2425.624610	608.860140
2427.138812	614.598601
2428.652734	614.437762
2430.166377	622.072727
2431.681373	624.406993
2433.192821	630.034965
2434.705624	639.285315
2436.216514	643.416783
2437.727124	646.897902
2439.235823	660.313287
2440.747509	668.523077
2442.255651	683.215385
2443.763514	693.041958
2445.271100	701.518881
2446.775146	713.446154
2448.282176	724.951049
2449.787298	736.920280
2451.292143	751.030769
2452.795081	760.013986
2454.297742	765.405594
2455.800127	768.496503
2457.300607	771.334266
2458.802440	764.373427
2460.302369	763.422378
2461.802022	752.727273
2463.301400	741.202797
2464.798875	737.946853
2466.294448	730.706294
2467.793001	726.587413
2469.288026	718.088112
2470.784403	710.660140
2472.277254	699.160839
2473.771457	690.634965
2475.265387	683.935664
2476.755794	675.776224
2478.249178	666.994406
2479.740663	658.100699
2481.230252	659.790210
2482.719570	657.165035
2484.206991	656.419580
2485.697388	655.903497
2487.184266	653.166434
2488.672496	649.752448
2490.157210	645.948252
2491.641653	643.892308
2493.127448	634.099301
2494.611350	624.415385
2496.096604	616.744056
2497.576724	614.103497
2499.059816	610.763636
2500.541018	606.032168
2502.021951	605.197203
2503.500995	606.517483
2504.979771	602.723077
2506.458278	597.812587
2507.936516	598.130070
2509.414486	592.918881
2510.888952	586.422378
2512.366386	581.948252
2513.840317	582.709091
2515.315599	582.613986
2516.790613	577.679720
2518.262126	580.332867
2519.734990	579.244755
2521.205971	580.153846
2522.678301	575.137063
2524.145519	573.096503
2525.615703	571.732867
2527.084005	566.088112
2528.552043	564.951049
2530.019816	563.040559
2531.487324	566.850350
2532.954567	571.278322
2534.418319	570.793007
2535.883420	576.222378
2537.346644	577.573427
2538.811217	573.685315
2540.272301	571.384615
2541.734736	573.388811
2543.196907	572.099301
2544.655591	565.634965
2546.118848	564.558042
2547.577008	565.135664
2549.036517	574.373427
2550.490933	579.857343
2551.949919	580.078322
2553.407032	581.446154
2554.862275	578.486713
2556.317257	578.379021
2557.770369	583.524476
2559.224830	584.832168
2560.677422	585.570629
2562.129754	582.981818
2563.580218	581.846154
2565.033638	580.272727
2566.481976	586.349650
2567.933270	578.433566
2569.382697	580.850350
2570.828653	581.344056
2572.277563	582.055944
2573.723002	586.630769
2575.169790	590.440559
2576.614714	593.544056
2578.059381	598.457343
2579.505395	599.222378
2580.947942	598.748252
2582.391837	598.819580
2583.832267	603.760839
2585.274045	604.489510
2586.713963	617.246154
2588.155228	613.655944
2589.593031	617.153846
2591.033784	616.584615
2592.469474	618.138462
2593.908114	612.804196
2595.344897	606.791608
2596.779823	601.769231
2598.217698	598.600000
2599.650515	600.725874
2601.084679	610.173427
2602.516988	616.053147
2603.950644	624.328671
2605.382447	626.467133
2606.813997	635.142657
2608.245293	636.104895
2609.674738	641.620979
2611.103930	644.489510
2612.531271	646.086713
2613.959959	649.661538
2615.388394	655.020979
2616.813383	662.123077
2618.239717	674.816783
2619.664203	684.422378
2621.090035	696.447552
2622.512423	708.671329
2623.936157	714.067133
2625.358045	725.587413
2626.779682	741.752448
2628.199474	752.980420
2629.620612	771.327273
2631.041500	788.251748
2632.458950	802.777622
2633.879339	820.830769
2635.296291	836.798601
2636.712995	860.317483
2638.129450	887.118881
2639.545657	913.218182
2640.961615	935.555245
2642.375733	958.744056
2643.789604	988.363636
2645.201635	1014.813986
2646.615011	1058.902098
2648.024957	1099.506294
2649.437839	1135.889510
2650.847292	1180.600000
2652.256499	1227.262937
2653.663870	1291.016783
2655.074175	1365.332867
2656.482644	1439.717483
2657.889278	1529.753846
2659.295667	1626.545455
2660.700222	1738.359441
2662.106121	1849.569231
2663.510187	1976.657343
2664.914009	2105.306294
2666.317586	2244.380420
2667.719331	2398.746853
2669.122420	2571.497902
2670.522092	2751.811189
2671.923107	2955.563636
2673.320705	3162.513287
2674.721234	3389.144056
2676.118348	3617.475524
2677.516805	3851.096503
2678.913434	4073.804196
2680.309822	4276.584615
2681.705967	4451.000000
2683.100286	4615.097902
2684.495948	4724.434965
2685.888200	4807.497902
2687.281796	4840.892308
2688.673567	4833.513287
2690.066680	4780.839161
2691.457970	4702.909091
2692.847437	4583.030769
2694.236665	4440.823776
2695.625652	4264.472727
2697.015982	4067.749650
2698.401327	3852.406993
2699.789597	3641.471329
2701.176046	3410.369231
2702.562256	3201.215385
2703.948227	2986.776224
2705.330800	2777.798601
2706.714714	2592.251748
2708.098391	2416.911888
2709.481830	2246.672727
2710.861873	2093.205594
2712.243258	1948.117483
2713.622827	1820.243357
2715.003738	1696.341259
2716.382834	1594.071329
2717.760115	1493.695105
2719.138738	1415.110490
2720.515548	1337.692308
2721.892122	1269.570629
2723.268460	1213.697902
2724.642986	1154.928671
2726.018853	1101.425175
2727.391333	1046.966434
2728.766730	1005.117483
2730.137165	962.832168
2731.508942	924.469930
2732.880485	890.731469
2734.250219	855.563636
2735.621293	833.444755
2736.990560	813.493706
2738.359593	795.801399
2739.726819	777.997203
2741.093813	759.000000
2742.460574	742.636364
2743.827102	729.457343
2745.191826	724.236364
2746.556317	708.800000
2747.920576	698.174825
2749.284604	686.871329
2750.648399	671.311888
2752.008821	657.510490
2753.372154	649.752448
2754.730544	636.888112
2756.091844	623.307692
2757.449773	613.155245
2758.810612	611.146853
2760.169650	611.797203
2761.525320	605.689510
2762.883899	596.765035
2764.239110	592.061538
2765.594092	590.097902
2766.947277	583.516084
2768.303369	573.433566
2769.656097	574.215385
2771.008596	567.337063
2772.360867	561.032168
2773.714477	553.310490
2775.064725	552.113287
2776.413180	554.067133
2777.764539	549.653147
2779.112539	547.744056
2780.461878	545.053147
2781.809424	546.939860
2783.156743	540.144056
2784.503836	532.450350
2785.849138	528.265734
2787.194214	525.213986
2788.539064	520.114685
2789.883688	516.096503
2791.224959	514.488112
2792.567569	518.391608
2793.909954	522.758042
2795.252113	523.117483
2796.590923	521.079720
2797.932633	527.018182
2799.270994	527.934266
2800.610693	529.651748
2801.948606	525.460140
2803.284735	523.381818
2804.620641	520.232168
2805.957883	518.994406
2807.293342	513.969231
2808.628578	515.595804
2809.962032	521.619580
2811.296822	520.261538
2812.628271	519.730070
2813.962616	526.000000
2815.292063	529.279720
2816.622847	528.195804
2817.953409	523.830769
2819.282192	515.974825
2820.612312	509.043357
2821.940652	504.197203
2823.268772	494.911888
2824.595115	493.162238
2825.922793	490.393007
2827.247139	485.970629
2828.572820	478.191608
2829.896727	474.637762
2831.220413	473.366434
2832.545435	476.576224
2833.867128	478.511888
2835.188601	477.462937
2836.509856	478.569231
2837.830892	478.511888
2839.150156	476.349650
2840.470755	476.962238
2841.789582	473.780420
2843.108191	475.724476
2844.425030	467.408392
2845.741651	463.393007
2847.058054	456.744056
2848.372689	455.695105
2849.688658	453.307692
2851.001307	453.086713
2852.315292	450.513287
2853.629060	450.081119
2854.942611	455.447552
2856.254395	457.695105
2857.564414	461.825175
2858.875767	467.904895
2860.183804	464.597203
2861.493177	467.096503
2862.802334	462.334266
2864.111276	462.788811
2865.418455	459.963636
2866.723870	458.446154
2868.030620	458.471329
2869.335607	463.387413
2870.640381	463.616783
2871.943393	466.886713
2873.249287	474.411189
2874.550326	477.443357
2875.852698	470.819580
2877.153311	467.611189
2878.455258	462.830769
2879.756992	461.219580
2881.055422	452.841958
2882.355185	452.349650
2883.653191	448.110490
2884.950985	446.489510
2886.247022	444.836364
2887.544393	446.478322
2888.840008	446.109091
2890.135413	439.700699
2891.430606	434.822378
2892.722501	433.862937
2894.017273	436.644755
2895.308749	434.910490
2896.601557	431.432168
2897.894155	439.257343
2899.183458	434.276923
2900.474094	440.120280
2901.762980	442.029371
2903.053197	446.071329
2904.340123	446.149650
2905.628381	447.746853
2906.914890	451.072727
2908.201190	447.615385
2909.487282	443.372028
2910.771626	439.299301
2912.058842	438.078322
2913.341231	441.307692
2914.624952	435.439161
2915.906926	440.864336
2917.188694	442.269930
2918.468716	446.163636
2919.751608	443.780420
2921.032755	443.948252
2922.310620	443.048951
2923.591354	436.593007
2924.868807	432.362238
2926.146055	433.869930
2927.421560	431.286713
2928.699933	431.170629
2929.973491	429.766434
2931.249917	431.141259
2932.524602	430.302098
2933.797547	430.200000
2935.071822	431.956643
2936.344358	435.455944
2937.616690	434.345455
2938.885749	433.604196
2940.157673	433.823776
2941.427859	433.772028
2942.697841	428.146853
2943.967620	424.124476
2945.235662	420.916084
2946.501969	419.738462
2947.768073	418.134266
2949.035508	419.363636
2950.301207	421.664336
2951.566704	421.029371
2952.831999	417.086713
2954.094030	415.748252
2955.357390	416.829371
2956.620549	413.500699
2957.881975	409.889510
2959.144731	412.362238
2960.405756	415.896503
2961.665050	417.811189
2962.924143	415.969231
2964.183036	416.629371
2965.441729	415.990210
2966.700222	414.188811
2967.956986	407.572028
2969.213551	403.556643
2970.468387	408.555245
2971.724553	402.808392
2972.977463	402.521678
2974.231703	405.704895
2975.485744	405.748252
2976.738059	401.886713
2977.990176	395.952448
2979.240568	393.318881
2980.493815	389.953846
2981.742285	387.752448
2982.993609	379.731469
2984.241685	378.311888
2985.489563	379.756643
2986.737244	376.197203
2987.984729	384.318881
2989.230492	390.409790
2990.476058	394.265734
2991.722953	396.502098
2992.966602	402.107692
2994.211580	403.742657
2995.453315	403.604196
2996.697901	406.806993
2997.940768	404.605594
2999.180393	401.358042
3000.422870	393.528671
3001.662106	390.848951
3002.902670	393.769231
3004.141517	393.358042
3005.380170	392.310490
3006.617107	392.897902
3007.855371	394.342657
3009.091921	394.956643
3010.328277	399.370629
3011.564439	403.134266
3012.798887	402.360839
3014.033142	393.980420
3015.267204	388.995804
3016.499554	390.240559
3017.730192	391.516084
3018.963676	394.069930
3020.195449	394.597203
3021.425510	394.955245
3022.655380	393.707692
3023.883540	399.106294
3025.113027	399.451748
3026.340804	398.088112
3027.568390	391.847552
3028.797302	384.292308
3030.021472	380.138462
3031.248485	379.545455
3032.472275	378.100699
3033.697390	377.032168
3034.920799	375.344056
3036.144019	374.420979
3037.365533	372.420979
3038.589888	371.111888
3039.809508	371.520280
3041.030454	370.980420
3042.251210	364.565035
3043.470263	360.191608
3044.690642	359.151049
3045.907804	362.323077
3047.126291	359.832168
3048.343077	363.846154
3049.559674	365.577622
3050.776084	369.626573
3051.989280	369.834965
3053.205314	369.909091
3054.418136	376.412587
3055.633795	379.071329
3056.844731	376.496503
3058.056993	380.023776
3059.269067	383.876923
3060.480955	378.794406
3061.691145	374.647552
3062.901150	373.294406
3064.110968	366.609790
3065.319090	367.027273
3066.527026	363.402797
3067.733268	363.760140
3068.940834	366.587413
3070.146705	370.070629
3071.352391	363.338462
3072.557893	363.238462
3073.761701	358.763636
3074.966833	350.625874
3076.170272	351.661538
3077.372019	348.581119
3078.573583	345.738462
3079.774963	346.847552
3080.976159	345.131469
3082.175665	348.885315
3083.374987	348.681119
3084.575633	348.351049
3085.774590	342.832168
3086.970351	339.362238
3088.168942	336.367832
3089.364339	335.718881
3090.561060	340.812587
3091.754588	341.243357
3092.950944	337.801399
3094.145613	334.805594
3095.337092	333.809790
3096.532902	338.096503
3097.724019	336.876923
3098.916459	338.616783
3100.105710	341.110490
3101.297788	338.783217
3102.488182	341.173427
3103.675389	349.039161
3104.863920	353.739860
3106.053773	355.671329
3107.240441	352.892308
3108.426930	349.920280
3109.613239	345.896503
3110.800871	348.586014
3111.985320	342.446154
3113.168089	337.356643
3114.353682	335.041958
3115.537594	334.001399
3116.719828	336.251748
3117.901884	335.590210
3119.083761	332.103497
3120.265460	328.931469
3121.445482	324.928671
3122.623826	321.930070
3123.804992	323.476923
3124.982982	329.661538
3126.160795	325.345455
3127.338431	326.841958
3128.514392	330.983217
3129.690177	335.504895
3130.867282	339.181818
3132.042714	337.117483
3133.216472	336.730070
3134.388557	336.341259
3135.561963	337.944056
3136.735194	339.051748
3137.906752	342.169231
3139.079632	339.758042
3140.249344	337.959441
3141.420377	334.236364
3142.589739	334.297902
3143.757432	337.081119
3144.927940	337.731469
3146.093789	335.808392
3147.263948	334.358042
3148.429449	335.881119
3149.594777	337.520280
3150.759931	340.205594
3151.924912	338.272727
3153.091212	338.071329
3154.252859	339.882517
3155.415827	337.665734
3156.578621	340.976224
3157.741243	342.183217
3158.902200	339.548252
3160.062984	337.502098
3161.223597	336.696503
3162.382545	335.872727
3163.541321	333.261538
3164.699926	333.258741
3165.858359	325.675524
3167.016620	324.476923
3168.173219	324.904895
3169.328157	325.218182
3170.484414	323.748252
3171.639011	328.353846
3172.793436	330.444755
3173.946202	334.967832
3175.098798	336.865734
3176.251224	337.574825
3177.403479	335.724476
3178.555565	339.475524
3179.704504	334.878322
3180.856250	338.904895
3182.006339	337.488112
3183.154770	336.069930
3184.303033	334.527273
3185.451127	334.188811
3186.599052	330.095105
3187.745321	328.776224
3188.891422	326.420979
3190.035869	325.587413
3191.180147	323.420979
3192.324258	325.622378
3193.469687	324.005594
3194.611977	329.057343
3195.754099	327.339860
3196.896055	328.983217
3198.037843	326.802797
3199.179464	324.941259
3200.317949	324.641958
3201.457753	328.334266
3202.598873	332.615385
3203.736859	337.265734
3204.873196	338.306294
3206.009367	342.686713
3207.146856	342.232168
3208.282696	339.016783
3209.419852	332.071329
3210.552397	326.226573
3211.689222	313.995804
3212.821436	312.997203
3213.954968	308.546853
3215.088334	309.538462
3216.218573	309.882517
3217.351611	317.395804
3218.481521	320.374825
3219.612749	327.931469
3220.740851	332.398601
3221.871751	333.088112
3223.001006	334.541259
3224.128617	340.232168
3225.253107	343.458741
3226.381872	353.588811
3227.507515	357.804196
3228.632995	366.306294
3229.756834	369.836364
3230.883468	377.211189
3232.005503	380.542657
3233.128855	390.351049
3234.252045	396.132867
3235.375073	400.647552
3236.496461	406.272727
3237.617688	415.576224
3238.737276	419.230769
3239.856703	427.574825
3240.974493	435.647552
3242.095074	443.876923
3243.212542	447.293706
3244.329849	455.594406
3245.446995	460.131469
3246.562506	460.776224
3247.679332	459.279720
3248.793047	460.237762
3249.909553	455.689510
3251.024423	447.938462
3252.136185	429.346853
3253.247788	417.800000
3254.360706	401.826573
3255.473464	388.250350
3256.583116	374.956643
3257.694083	365.450350
3258.804891	351.885315
3259.914067	340.352448
3261.021612	335.397203
3262.130472	335.165035
3263.239173	332.408392
3264.344772	329.186014
3265.451686	321.401399
3266.556970	318.356643
3267.663568	309.675524
3268.767066	307.069930
3269.871878	299.732867
3270.976533	298.138462
3272.078090	296.534266
3273.179490	293.648951
3274.282204	292.139860
3275.384761	297.303497
3276.484223	298.951049
3277.586467	302.953846
3278.685617	298.969231
3279.783141	296.102098
3280.880510	290.520280
3281.980662	292.248951
3283.077720	285.275524
3284.174624	284.172028
3285.271372	283.394406
3286.363561	282.503497
3287.460000	283.640559
3288.554816	286.271329
3289.649477	282.044755
3290.742517	283.454545
3291.835403	279.805594
3292.926668	280.274126
3294.019246	278.560839
3295.110204	280.265734
3296.199542	275.365035
3297.288727	278.278322
3298.379224	281.236364
3299.466637	286.569231
3300.553898	287.504895
3301.642471	287.595804
3302.730891	283.216783
3303.814764	286.534266
3304.902879	287.338462
3305.987913	290.008392
3307.071331	287.345455
3308.156061	288.131469
3309.239175	285.213986
3310.323601	285.201399
3311.404949	284.026573
3312.487609	284.067133
3313.568655	283.973427
3314.649550	281.236364
3315.728832	280.111888
3316.807963	279.718881
3317.888406	278.173427
3318.965774	279.639161
3320.044454	276.174825
3321.121522	279.380420
3322.198440	279.573427
3323.273748	280.704895
3324.348906	282.800000
3325.425375	286.372028
3326.498773	286.078322
3327.572023	281.310490
3328.646584	279.240559
3329.719535	276.997203
3330.790879	273.313287
3331.863533	272.565035
3332.933120	268.851748
3334.004018	272.744056
3335.073309	270.472727
3336.143911	272.518881
3337.212906	272.202797
3338.280295	272.676923
3339.346079	265.411189
3340.416089	266.090909
3341.483036	268.532867
3342.546921	271.324476
3343.613574	268.860140
3344.678623	270.648951
3345.742068	275.485315
3346.805366	276.648951
3347.868519	273.899301
3348.931525	278.405594
3349.994384	273.439161
3351.055642	268.570629
3352.113843	260.897902
3353.176265	263.627972
3354.235630	263.114685
3355.294851	263.720280
3356.355380	264.395804
3357.411400	268.220979
3358.470185	273.651748
3359.524462	271.050350
3360.581503	276.559441
3361.636945	276.795804
3362.693696	275.265734
3363.748850	275.321678
3364.802406	272.064336
3365.854365	277.839161
3366.909086	278.692308
3367.960759	279.379021
3369.012287	280.878322
3370.065125	275.826573
3371.114915	275.556643
3372.166014	270.963636
3373.214066	271.342657
3374.264879	266.703497
3375.312646	264.331469
3376.360271	261.787413
3377.407754	261.297902
3378.453643	263.911888
3379.500842	264.313287
3380.544997	266.548252
3381.591911	271.351049
3382.637233	274.647552
3383.679515	276.272727
3384.721655	273.125874
3385.765104	275.019580
3386.808411	277.692308
3387.850128	273.141259
3388.891704	273.148252
3389.933140	269.634965
3390.972987	266.018182
3392.011245	263.865734
3393.050811	257.367832
3394.090237	254.917483
3395.128075	258.016783
3396.164326	255.749650
3397.200437	254.594406
3398.237856	255.769231
3399.272242	258.770629
3400.307936	256.665734
3401.343490	257.117483
3402.376012	253.844755
3403.411288	253.078322
3404.443533	250.766434
3405.475640	244.509091
3406.506163	246.408392
3407.537994	252.441958
3408.569686	254.927273
3409.598350	255.146853
3410.626877	253.860140
3411.656710	257.553846
3412.686406	256.041958
3413.713075	260.050350
3414.741052	257.843357
3415.766004	258.917483
3416.793706	257.183217
3417.818385	255.939860
3418.844370	252.931469
3419.868776	250.461538
3420.893044	247.538462
3421.915734	246.854545
3422.938289	240.212587
3423.962148	245.195804
3424.982989	245.531469
3426.003693	249.974625
3427.025703	254.760040
3428.044695	259.213586
3429.063552	262.661139
3430.083715	264.428571
3431.100860	263.841758
