-118.155753	20.200000
-115.486152	5.800000
-112.819487	17.600000
-110.153575	34.600000
-107.490594	18.800000
-104.826183	13.800000
-102.164703	15.600000
-99.501794	66.200000
-96.843992	24.000000
-94.184759	33.800000
-91.526275	20.800000
-88.870716	29.800000
-86.213728	-7.800000
-83.561837	31.600000
-80.908517	10.600000
-78.258117	43.000000
-75.606287	29.400000
-72.959548	30.200000
-70.311379	18.400000
-67.663954	40.800000
-65.019442	29.600000
-62.373501	17.600000
-59.732643	40.400000
-57.090354	28.400000
-54.450975	22.400000
-51.810167	50.800000
-49.170098	53.400000
-46.535103	28.600000
-43.898678	32.600000
-41.265157	40.600000
-38.630206	14.200000
-36.000322	31.400000
-33.366844	63.000000
-30.738429	88.200000
-28.110748	83.200000
-25.481639	85.600000
-22.857586	99.600000
-20.229944	131.600000
-17.607355	172.600000
-14.985497	249.600000
-12.364370	389.800000
-9.743974	913.000000
-7.126465	3103.000000
-4.507528	10779.200000
-1.891477	27664.800000
0.723846	48092.000000
3.338442	26457.600000
5.950156	3607.200000
8.563297	411.400000
11.171405	242.600000
13.783095	164.600000
16.389754	127.600000
18.997841	117.600000
21.605204	109.600000
24.207542	80.400000
26.813458	59.600000
29.414353	40.600000
32.016675	43.800000
34.613979	40.600000
37.214859	67.600000
39.810725	24.200000
42.408018	53.200000
45.004592	64.200000
47.596157	30.800000
50.189150	14.200000
52.779282	52.600000
55.370842	43.800000
57.959542	47.000000
60.549670	29.200000
63.134798	66.800000
65.721354	52.200000
68.307195	35.800000
70.890183	25.800000
73.474598	41.400000
76.051883	29.800000
78.632735	41.800000
81.210738	46.800000
83.788031	43.600000
86.366750	48.200000
88.940488	47.800000
91.515652	40.200000
94.087973	49.000000
96.659587	28.000000
99.228360	52.600000
101.798560	20.200000
104.365921	49.400000
106.934709	78.200000
109.500659	52.000000
112.063775	55.000000
114.630448	71.600000
117.187898	78.200000
119.751034	111.400000
122.309211	166.400000
124.870942	193.000000
127.427716	287.800000
129.985916	378.400000
132.539164	641.200000
135.091713	958.000000
137.647814	1320.200000
140.198966	1789.400000
142.749420	2296.800000
145.299178	2662.200000
147.846116	3023.400000
150.392358	3258.800000
152.940027	3365.400000
155.486999	3378.400000
158.029035	3315.600000
160.570378	3298.600000
163.111029	3251.600000
165.653104	3210.600000
168.192369	3086.400000
170.728824	3147.800000
173.264589	3123.400000
175.801779	3134.400000
178.338277	3130.000000
180.871971	3144.000000
183.402860	3164.400000
185.933061	3140.000000
188.464687	3131.800000
190.993513	3103.400000
193.519539	3047.000000
196.044879	3065.800000
198.571644	3017.600000
201.095613	3016.000000
203.618896	2972.400000
206.141495	3016.000000
208.661301	2980.000000
211.180424	2955.400000
213.698864	2988.800000
216.218728	3019.200000
218.731591	3025.200000
221.247985	3131.000000
223.763698	3155.000000
226.274520	3227.800000
228.786767	3334.000000
231.296231	3280.800000
233.805017	3312.600000
236.313125	3344.200000
238.822657	3292.400000
241.327308	3380.800000
243.831283	3339.800000
246.336682	3330.600000
248.837206	3425.400000
251.341253	3464.400000
253.838330	3329.800000
256.338929	3405.000000
258.836757	3387.000000
261.333912	3289.600000
263.830394	3353.200000
266.322014	3324.600000
268.817152	3259.600000
271.309525	3248.000000
273.801227	3227.400000
276.290166	3285.800000
278.780528	3371.000000
281.268129	3354.600000
283.752970	3381.000000
286.241325	3423.800000
288.722742	3447.200000
291.207672	3377.000000
293.687756	3479.200000
296.171353	3524.600000
298.650108	3603.600000
301.130285	3707.800000
303.607711	3703.000000
306.084473	3766.200000
308.560571	3573.600000
311.033921	3470.400000
313.506610	3512.200000
315.978637	3531.400000
318.450002	3577.800000
320.918624	3652.000000
323.386586	3651.200000
325.855971	3508.000000
328.320533	3555.600000
330.788598	3370.200000
333.251844	3396.600000
335.714433	3386.400000
338.176364	3289.600000
340.637639	3366.800000
343.096180	3317.800000
345.556143	3276.000000
348.013374	3310.200000
350.469950	3232.600000
352.925871	3148.200000
355.379064	3127.800000
357.833679	3058.400000
360.283492	3124.200000
362.736801	3095.800000
365.185311	3055.000000
367.633171	3004.000000
370.082452	2961.000000
372.526940	2975.400000
374.972850	2913.400000
377.418111	2838.600000
379.860653	2875.800000
382.302547	2900.400000
384.743793	2809.800000
387.182324	2846.200000
389.622277	2822.400000
392.059516	2794.200000
394.494043	2781.400000
396.932058	2825.000000
399.365296	2789.600000
401.799956	2707.800000
404.229843	2734.800000
406.663215	2786.600000
409.091816	2709.600000
411.519777	2711.000000
413.949158	2776.800000
416.373775	2786.000000
418.799812	2772.600000
421.225210	2679.400000
423.649967	2725.600000
426.069965	2722.800000
428.491385	2687.400000
430.910108	2674.000000
433.330252	2664.800000
435.747701	2621.000000
438.166570	2608.400000
440.582746	2496.000000
442.994175	2556.800000
445.409080	2456.800000
447.821295	2407.200000
450.232876	2490.200000
452.643823	2356.200000
455.052084	2370.000000
457.459713	2379.000000
459.866709	2377.800000
462.273073	2347.000000
464.676756	2314.600000
467.079808	2353.000000
469.482230	2333.600000
471.884022	2386.800000
474.283136	2403.400000
476.683670	2373.600000
479.083575	2423.000000
481.478757	2491.200000
483.877406	2457.200000
486.271335	2526.000000
488.664638	2585.200000
491.057315	2682.000000
493.449367	2759.200000
495.842838	2918.600000
498.231596	3124.000000
500.617688	3517.200000
503.005200	4025.000000
505.392088	5081.000000
507.776313	6522.000000
510.161957	8826.800000
512.544938	12121.600000
514.925259	16175.000000
517.306999	20116.400000
519.686080	21236.000000
522.066580	19800.600000
524.444422	16813.400000
526.819609	14031.600000
529.194178	11734.000000
531.570166	10034.200000
533.943500	8700.600000
536.318253	7755.600000
538.688319	7132.600000
541.057770	6476.400000
543.428640	6044.400000
545.794828	5690.800000
548.162435	5317.000000
550.527396	5004.400000
552.891744	4746.000000
555.255480	4525.200000
557.620633	4346.600000
559.981114	4144.000000
562.343012	4023.400000
564.702271	3838.600000
567.058891	3809.000000
569.418957	3683.200000
571.772331	3575.600000
574.129150	3515.200000
576.483334	3483.800000
578.836909	3411.600000
581.189876	3313.000000
583.540212	3203.200000
585.891964	3243.800000
588.237040	3113.600000
590.587580	3116.800000
592.931447	3125.800000
595.280775	3054.400000
597.625454	2975.000000
599.967509	2972.600000
602.310981	2955.600000
604.651830	2936.400000
606.992076	2949.400000
609.329702	3012.600000
611.670763	3128.800000
614.007187	3285.400000
616.345027	3334.000000
618.680249	3359.400000
621.012856	3317.000000
623.346880	3183.000000
625.678289	3121.000000
628.009100	2967.400000
630.339313	2953.600000
632.668929	2881.800000
634.993921	2820.600000
637.324355	2831.400000
639.650167	2835.000000
641.973373	2792.800000
644.297995	2755.600000
646.620011	2752.400000
648.941433	2714.200000
651.260252	2715.600000
653.580487	2686.800000
655.900129	2679.800000
658.217170	2727.200000
660.533620	2725.400000
662.847471	2706.800000
665.162737	2630.000000
667.475407	2671.800000
669.789492	2695.400000
672.098978	2716.400000
674.409878	2757.000000
676.718186	2705.200000
679.025906	2711.600000
681.335041	2707.800000
683.639583	2708.000000
685.943539	2727.200000
688.246908	2632.200000
690.551692	2580.000000
692.851890	2610.600000
695.153503	2581.400000
697.454530	2567.400000
699.750976	2475.000000
702.048836	2448.400000
704.346114	2431.600000
706.642807	2409.600000
708.934925	2340.000000
711.230454	2366.600000
713.521410	2405.400000
715.813780	2401.600000
718.103574	2394.800000
720.392789	2435.800000
722.681423	2480.400000
724.967486	2439.200000
727.254962	2493.800000
729.539868	2518.000000
731.824195	2496.000000
734.105955	2491.600000
736.389128	2462.800000
738.671724	2473.600000
740.949764	2459.600000
743.229218	2449.400000
745.508097	2471.600000
747.786400	2403.800000
750.060154	2387.600000
752.335322	2357.400000
754.609916	2393.400000
756.881951	2350.200000
759.155399	2341.600000
761.426289	2329.800000
763.694622	2328.200000
765.964370	2276.400000
768.231562	2234.200000
770.498184	2247.600000
772.764237	2346.400000
775.027738	2336.800000
777.292651	2360.000000
779.556996	2376.400000
781.816810	2366.400000
784.078038	2414.200000
786.338698	2356.400000
788.596811	2371.200000
790.852380	2312.400000
793.111340	2372.200000
795.363801	2323.200000
797.621629	2331.400000
799.874938	2261.400000
802.125706	2377.400000
804.377887	2324.800000
806.627530	2255.400000
808.878584	2328.200000
811.125127	2299.600000
813.373083	2286.400000
815.618503	2281.200000
817.865336	2262.000000
820.111606	2276.200000
822.353373	2277.200000
824.598522	2226.600000
826.837199	2220.800000
829.079259	2212.000000
831.316820	2158.400000
833.555792	2230.200000
835.792238	2172.800000
838.030096	2166.000000
840.265428	2112.200000
842.498236	2221.000000
844.732456	2130.000000
846.964154	2161.800000
849.195297	2186.400000
851.425885	2226.200000
853.655919	2200.200000
855.885398	2233.600000
858.110397	2212.800000
860.338769	2139.600000
862.562663	2190.600000
864.787967	2189.400000
867.008796	2203.600000
869.232997	2235.400000
871.452725	2154.800000
873.673864	2162.600000
875.894452	2171.400000
878.112531	2241.200000
880.332019	2259.000000
882.547041	2238.200000
884.761515	2263.600000
886.975442	2259.600000
889.188821	2276.000000
891.401654	2262.600000
893.613939	2188.800000
895.823723	2202.400000
898.032961	2200.600000
900.241653	2216.600000
902.447847	2274.800000
904.655450	2253.600000
906.860556	2239.400000
909.065118	2245.400000
911.267185	2295.800000
913.470661	2284.600000
915.671643	2286.800000
917.872083	2349.600000
920.073932	2413.000000
922.269390	2473.000000
924.468206	2538.400000
926.662585	2666.800000
928.860321	2793.600000
931.053621	3038.400000
933.248329	3243.200000
935.440552	3437.400000
937.632237	3641.000000
939.823384	3853.400000
942.012048	3932.400000
944.200175	3995.200000
946.385822	3956.800000
948.574821	3882.200000
950.759397	3904.800000
952.943438	3956.600000
955.130829	3900.800000
957.309917	3941.000000
959.492354	3920.200000
961.674258	3939.600000
963.853688	4019.800000
966.030645	3991.800000
968.209010	4045.200000
970.388781	4063.800000
972.562204	4007.600000
974.738973	4009.400000
976.911336	3940.600000
979.085106	3934.800000
981.254472	3890.400000
983.427182	3849.800000
985.597426	3653.000000
987.767142	3568.600000
989.936329	3425.400000
992.101119	3195.000000
994.269251	3072.600000
996.432987	2905.400000
998.598131	2756.400000
1000.760815	2790.600000
1002.922974	2686.600000
1005.082675	2655.800000
1007.241853	2628.000000
1009.402437	2600.400000
1011.560566	2561.600000
1013.718171	2563.200000
1015.875253	2544.000000
1018.031812	2590.000000
1020.183991	2467.400000
1022.337577	2460.600000
1024.490640	2387.200000
1026.641256	2420.800000
1028.793277	2351.800000
1030.940925	2391.600000
1033.091905	2335.400000
1035.238515	2339.000000
1037.384605	2319.600000
1039.530177	2314.800000
1041.677153	2296.000000
1043.817842	2310.400000
1045.961859	2232.200000
1048.103437	2271.200000
1050.244497	2277.200000
1052.386962	2253.000000
1054.523148	2287.800000
1056.662660	2249.000000
1058.797816	2316.600000
1060.936297	2395.600000
1063.070425	2298.800000
1065.204039	2274.400000
1067.339057	2259.400000
1069.469726	2313.800000
1071.601801	2289.200000
1073.731445	2233.000000
1075.860578	2228.800000
1077.989200	2173.200000
1080.117310	2157.400000
1082.242994	2153.600000
1084.368168	2182.000000
1086.494745	2100.200000
1088.616986	2131.800000
1090.740631	2132.800000
1092.859941	2159.000000
1094.984480	2169.600000
1097.102775	2148.800000
1099.222473	2202.800000
1101.339753	2097.400000
1103.456527	2123.000000
1105.572794	2169.600000
1107.686646	2217.400000
1109.801901	2163.400000
1111.912834	2083.000000
1114.027078	2119.400000
1116.137003	2153.000000
1118.248330	2143.600000
1120.359154	2164.400000
1122.465661	2171.400000
1124.575477	2142.000000
1126.680979	2130.800000
1128.787885	2148.000000
1130.888574	2107.200000
1132.994476	2120.000000
1135.096069	2033.400000
1137.199065	2134.400000
1139.301560	2104.000000
1141.397849	2060.200000
1143.499344	2080.800000
1145.596537	2079.000000
1147.693231	2027.400000
1149.789428	1984.200000
1151.885126	1982.400000
1153.980327	1987.600000
1156.073131	1941.600000
1158.167337	1981.800000
1160.255352	2014.400000
1162.348565	2081.200000
1164.435590	2108.200000
1166.525915	2116.200000
1168.611951	2075.600000
1170.701285	2156.400000
1172.784438	2059.200000
1174.868994	2136.200000
1176.954950	2137.200000
1179.036625	2108.000000
1181.119702	2155.400000
1183.200393	2150.400000
1185.280593	2183.200000
1187.360301	2169.600000
1189.439518	2188.400000
1191.516352	2125.400000
1193.590806	2197.200000
1195.668552	2161.400000
1197.742027	2188.600000
1199.816904	2173.400000
1201.887513	2184.600000
1203.959523	2150.600000
1206.029157	2122.000000
1208.100192	2118.400000
1210.170739	2127.200000
1212.237025	2095.800000
1214.304712	2128.400000
1216.370027	2109.800000
1218.436742	2070.600000
1220.499201	2067.000000
1222.564946	2070.800000
1224.626436	2063.200000
1226.689326	2011.600000
1228.749849	1998.400000
1230.809889	2048.400000
1232.869445	2083.800000
1234.926637	2040.800000
1236.983346	2175.400000
1239.037693	2097.600000
1241.095320	2108.600000
1243.150585	2210.000000
1245.201609	2219.000000
1247.254033	2134.400000
1249.305978	2220.000000
1251.355564	2211.000000
1253.404671	2184.600000
1255.453299	2176.600000
1257.501449	2260.200000
1259.549121	2234.800000
1261.592562	2219.000000
1263.639278	2233.600000
1265.683642	2255.000000
1267.727528	2293.000000
1269.769064	2321.000000
1271.808250	2221.400000
1273.850708	2373.600000
1275.888945	2332.000000
1277.928579	2391.000000
1279.967739	2305.600000
1282.002681	2411.400000
1284.039021	2406.200000
1286.073016	2389.000000
1288.108410	2363.400000
1290.139590	2341.800000
1292.172169	2411.400000
1294.204275	2397.600000
1296.234041	2374.400000
1298.265205	2414.600000
1300.292161	2429.000000
1302.320515	2456.000000
1304.344665	2424.600000
1306.372080	2452.800000
1308.395292	2375.000000
1310.419902	2346.200000
1312.442177	2385.600000
1314.465850	2493.000000
1316.487190	2477.600000
1318.508063	2413.000000
1320.528468	2326.200000
1322.544679	2436.800000
1324.562289	2456.800000
1326.577570	2399.800000
1328.596110	2428.400000
1330.610460	2396.600000
1332.622485	2414.000000
1334.637768	2396.400000
1336.648865	2424.000000
1338.661358	2362.200000
1340.669669	2393.000000
1342.681236	2422.000000
1344.686764	2375.400000
1346.695546	2341.200000
1348.700152	2352.000000
1350.708011	2307.400000
1352.715407	2266.200000
1354.716773	2298.000000
1356.719536	2240.800000
1358.721839	2317.600000
1360.723681	2282.200000
1362.725065	2317.000000
1364.724134	2286.800000
1366.722745	2345.600000
1368.720898	2269.400000
1370.718593	2256.800000
1372.712124	2266.400000
1374.707052	2230.600000
1376.701523	2203.800000
1378.695537	2224.800000
1380.687244	2223.400000
1382.678495	2202.200000
1384.667441	2285.800000
1386.657782	2178.800000
1388.647668	2122.400000
1390.635251	2135.400000
1392.622380	2162.400000
1394.607207	2188.000000
1396.593429	2137.800000
1398.577350	2183.200000
1400.560819	2179.800000
1402.543836	2179.800000
1404.524555	2196.200000
1406.506668	2193.000000
1408.486484	2176.000000
1410.465850	2154.600000
1412.441077	2216.800000
1414.419542	2143.600000
1416.395714	2176.400000
1418.371436	2183.600000
1420.346709	2141.800000
1422.319691	2117.200000
1424.292226	2210.400000
1426.264312	2189.600000
1428.235950	2125.800000
1430.203461	2207.000000
1432.176045	2130.600000
1434.140823	2117.200000
1436.110674	2136.000000
1438.076400	2151.600000
1440.043520	2144.800000
1442.008356	2138.800000
1443.969072	2135.800000
1445.934856	2220.400000
1447.894685	2227.400000
1449.855907	2236.400000
1451.818522	2209.800000
1453.777022	2316.400000
1455.735080	2357.400000
1457.692695	2404.800000
1459.649869	2436.600000
1461.604767	2488.400000
1463.561057	2560.600000
1465.515073	2522.000000
1467.468649	2534.800000
1469.419952	2545.400000
1471.372647	2551.800000
1473.323071	2529.400000
1475.273056	2421.400000
1477.222601	2466.600000
1479.169878	2465.400000
1481.114888	2444.200000
1483.061290	2392.800000
1485.007254	2459.600000
1486.952780	2425.400000
1488.896042	2401.200000
1490.838867	2443.400000
1492.779429	2457.800000
1494.721382	2431.400000
1496.661074	2379.000000
1498.600330	2359.000000
1500.539152	2384.600000
1502.475714	2338.600000
1504.413666	2317.400000
1506.349361	2381.000000
1508.284622	2446.600000
1510.217626	2356.800000
1512.150198	2399.200000
1514.082338	2473.800000
1516.014046	2521.400000
1517.943501	2500.800000
1519.874345	2534.000000
1521.804759	2520.400000
1523.731100	2558.000000
1525.658831	2556.600000
1527.584312	2615.400000
1529.509364	2560.800000
1531.433987	2664.000000
1533.358181	2591.400000
1535.280128	2659.200000
1537.203464	2690.200000
1539.124555	2788.400000
1541.043401	2798.000000
1542.963637	2888.400000
1544.881629	2926.000000
1546.799195	3094.800000
1548.714519	3224.000000
1550.631233	3334.400000
1552.543892	3459.400000
1554.459755	3594.600000
1556.373379	3686.800000
1558.284764	4013.400000
1560.197538	4255.600000
1562.106263	4607.400000
1564.016378	5151.400000
1565.926069	5609.600000
1567.835336	6473.000000
1569.742370	7440.200000
1571.647171	8680.400000
1573.553361	10577.000000
1575.457319	12532.400000
1577.360857	14604.000000
1579.263973	16843.800000
1581.164861	18412.200000
1583.067137	18847.200000
1584.967184	17624.200000
1586.868620	15650.000000
1588.766021	13467.200000
1590.663005	10854.400000
1592.559570	9079.200000
1594.457522	7671.000000
1596.349640	6502.600000
1598.244952	5700.400000
1600.139845	5088.400000
1602.032517	4688.200000
1603.924773	4329.400000
1605.814809	3934.400000
1607.704429	3727.200000
1609.593634	3566.000000
1611.482423	3466.400000
1613.368996	3350.000000
1615.256955	3248.000000
1617.140899	3098.200000
1619.026229	3021.600000
1620.911146	2975.600000
1622.793849	2888.600000
1624.677938	2758.400000
1626.558017	2739.200000
1628.439482	2709.000000
1630.318737	2637.600000
1632.199378	2586.200000
1634.074215	2576.000000
1635.954034	2495.800000
1637.829847	2453.800000
1639.705251	2468.400000
1641.582040	2455.400000
1643.453032	2446.800000
1645.327206	2448.200000
1647.197382	2406.000000
1649.070738	2389.800000
1650.941891	2326.200000
1652.810842	2268.800000
1654.681179	2303.600000
1656.547522	2261.600000
1658.415252	2230.200000
1660.280782	2232.800000
1662.147697	2172.000000
1664.010624	2153.600000
1665.874936	2161.200000
1667.737053	2183.600000
1669.598764	2050.800000
1671.461860	2111.600000
1673.322762	2176.200000
1675.181470	2117.800000
1677.039775	2133.400000
1678.899465	2091.600000
1680.753388	2069.200000
1682.610483	2121.200000
1684.467176	2076.200000
1686.319893	2093.400000
1688.175781	2026.200000
1690.027695	2078.200000
1691.879208	2044.400000
1693.730320	2066.000000
1695.581031	2061.800000
1697.431342	2071.800000
1699.279469	2073.000000
1701.128979	2004.400000
1702.972741	1997.200000
1704.821453	2055.000000
1706.664418	1994.000000
1708.510549	2011.200000
1710.352719	1954.000000
1712.198053	1881.200000
1714.037647	1911.400000
1715.878625	1921.400000
1717.720986	1903.000000
1719.559391	1910.200000
1721.399179	1951.000000
1723.236792	1931.000000
1725.074009	1906.600000
1726.909053	1900.600000
1728.745480	1950.600000
1730.579735	1874.400000
1732.413596	1874.200000
1734.247062	1883.800000
1736.076582	1822.800000
1737.909261	1865.800000
1739.737996	1800.600000
1741.569889	1854.200000
1743.397839	1767.400000
1745.225397	1798.800000
1747.052564	1742.000000
1748.879338	1795.600000
1750.705722	1797.400000
1752.528169	1809.600000
1754.353770	1780.600000
1756.175437	1808.200000
1757.998486	1801.000000
1759.819374	1823.200000
1761.639872	1778.800000
1763.461752	1822.800000
1765.277932	1775.600000
1767.097264	1804.400000
1768.912669	1816.800000
1770.731225	1833.400000
1772.545855	1758.000000
1774.360098	1743.600000
1776.173955	1670.400000
1777.987425	1752.000000
1779.798741	1741.600000
1781.611439	1748.600000
1783.423750	1795.600000
1785.232144	1763.000000
1787.041919	1785.400000
1788.847778	1837.800000
1790.656784	1813.000000
1792.461876	1806.400000
1794.268348	1803.400000
1796.074437	1786.000000
1797.876616	1744.200000
1799.681938	1756.600000
1801.483352	1773.000000
1803.286146	1681.000000
1805.085035	1718.800000
1806.885303	1683.200000
1808.685191	1740.000000
1810.482936	1748.200000
1812.280301	1695.200000
1814.077285	1709.200000
1815.873889	1767.800000
1817.668354	1758.000000
1819.464199	1700.000000
1821.254388	1814.200000
1823.049474	1769.200000
1824.838907	1734.200000
1826.631478	1740.400000
1828.421913	1754.200000
1830.210213	1758.800000
1832.001649	1787.400000
1833.787440	1750.800000
1835.574609	1808.200000
1837.359647	1842.600000
1839.147819	1814.000000
1840.932105	1834.600000
1842.714262	1858.400000
1844.497797	1884.600000
1846.279205	1856.600000
1848.061990	1899.400000
1849.840896	1951.800000
1851.621180	1984.400000
1853.399339	1954.400000
1855.178875	1941.600000
1856.956287	1998.800000
1858.731575	2002.800000
1860.508242	1970.400000
1862.282786	1999.200000
1864.058707	1982.600000
1865.829009	1947.400000
1867.602438	1937.000000
1869.373747	1895.000000
1871.144685	1921.400000
1872.917000	1958.200000
1874.683703	1969.400000
1876.453530	1933.600000
1878.219494	2004.400000
1879.988582	2014.400000
1881.753808	1980.200000
1883.518666	1995.400000
1885.284900	2031.600000
1887.047276	1964.200000
1888.809285	1997.600000
1890.570927	1982.200000
1892.332201	1981.400000
1894.093109	1939.800000
1895.853649	1959.200000
1897.612080	1893.200000
1899.370146	1866.400000
1901.126104	1836.400000
1902.883438	1809.000000
1904.640406	1790.200000
1906.395269	1788.200000
1908.148026	1736.000000
1909.900420	1756.400000
1911.654190	1723.600000
1913.405856	1732.000000
1915.155419	1703.000000
1916.906359	1648.200000
1918.656935	1679.000000
1920.403673	1707.800000
1922.151786	1671.800000
1923.897800	1684.400000
1925.645190	1685.600000
1927.390481	1634.600000
1929.133675	1677.000000
1930.878245	1708.800000
1932.620718	1713.800000
1934.362831	1670.600000
1936.104585	1633.400000
1937.845978	1646.600000
1939.585278	1693.200000
1941.324219	1692.200000
1943.062801	1684.200000
1944.799291	1724.600000
1946.535424	1710.600000
1948.272931	1696.600000
1950.006617	1784.200000
1951.741677	1704.800000
1953.474648	1723.800000
1955.207263	1712.200000
1956.939521	1743.800000
1958.671423	1750.400000
1960.401239	1734.400000
1962.128971	1727.400000
1963.858077	1722.200000
1965.586827	1748.800000
1967.313494	1763.800000
1969.039807	1771.600000
1970.767493	1806.000000
1972.489643	1746.000000
1974.214895	1755.000000
1975.936339	1703.200000
1977.660883	1710.600000
1979.383348	1678.000000
1981.102009	1689.600000
1982.823769	1690.200000
1984.541727	1684.800000
1986.261059	1708.400000
1987.976590	1686.000000
1989.696943	1722.200000
1991.413496	1697.200000
1993.126254	1736.400000
1994.842107	1702.600000
1996.555888	1722.600000
1998.269318	1699.400000
1999.980678	1733.600000
2001.693411	1737.800000
2003.402352	1677.600000
2005.114387	1685.200000
2006.820912	1699.000000
2008.530530	1651.600000
2010.238080	1683.800000
2011.945283	1677.800000
2013.650420	1674.800000
2015.355210	1614.200000
2017.061372	1658.200000
2018.763752	1674.000000
2020.467504	1706.800000
2022.169193	1654.000000
2023.870536	1651.600000
2025.571534	1675.400000
2027.270472	1634.200000
2028.970781	1680.800000
2030.667314	1647.200000
2032.365219	1659.200000
2034.061066	1668.600000
2035.759998	1628.600000
2037.453444	1636.600000
2039.148261	1606.000000
2040.842735	1591.400000
2042.533441	1568.400000
2044.227231	1546.000000
2045.917254	1555.600000
2047.608648	1584.600000
2049.297989	1528.000000
2050.988700	1571.200000
2052.675649	1565.600000
2054.362257	1517.200000
2056.050236	1620.000000
2057.734455	1632.200000
2059.420044	1629.800000
2061.105294	1652.800000
2062.788496	1615.800000
2064.473068	1666.200000
2066.152176	1635.200000
2067.836070	1644.200000
2069.514504	1614.600000
2071.196015	1647.800000
2072.873774	1605.800000
2074.551197	1673.000000
2076.229989	1658.200000
2077.906738	1653.600000
2079.581446	1667.400000
2081.257523	1634.400000
2082.931560	1631.800000
2084.605261	1669.000000
2086.278627	1682.800000
2087.949955	1686.000000
2089.620948	1662.600000
2091.291607	1696.000000
2092.961932	1709.600000
2094.631922	1722.600000
2096.299877	1649.000000
2097.967499	1673.200000
2099.633087	1678.400000
2101.300043	1687.200000
2102.964966	1692.400000
2104.629556	1707.600000
2106.292115	1655.600000
2107.956043	1708.200000
2109.617939	1749.600000
2111.279504	1688.000000
2112.940739	1680.400000
2114.599944	1684.200000
2116.258820	1728.000000
2117.917365	1636.200000
2119.575581	1655.000000
2121.230074	1646.400000
2122.887631	1644.800000
2124.544858	1651.800000
2126.198365	1622.000000
2127.853239	1641.200000
2129.504394	1650.000000
2131.158612	1630.800000
2132.809112	1610.200000
2134.460980	1637.200000
2136.107439	1581.800000
2137.758652	1588.200000
2139.406153	1604.400000
2141.055020	1619.200000
2142.701868	1591.600000
2144.348391	1639.800000
2145.994588	1617.600000
2147.637076	1586.800000
2149.282623	1645.800000
2150.924463	1616.600000
2152.569360	1596.800000
2154.210552	1612.600000
2155.851420	1581.600000
2157.491965	1617.600000
2159.130497	1597.000000
2160.770395	1591.200000
2162.406593	1635.200000
2164.044157	1647.600000
2165.681399	1606.600000
2167.316631	1654.800000
2168.951541	1643.400000
2170.586130	1634.400000
2172.220398	1632.200000
2173.850972	1631.600000
2175.484597	1606.000000
2177.114531	1622.600000
2178.745830	1621.800000
2180.375125	1655.800000
2182.004099	1619.200000
2183.632755	1654.400000
2185.261091	1619.200000
2186.887424	1652.600000
2188.513439	1628.800000
2190.137453	1674.800000
2191.762832	1651.800000
2193.386210	1673.200000
2195.010953	1615.200000
2196.632014	1663.600000
2198.252760	1615.600000
2199.874869	1601.800000
2201.494981	1597.800000
2203.113097	1609.200000
2204.730897	1608.600000
2206.348381	1649.400000
2207.965550	1665.000000
2209.582404	1651.400000
2211.198943	1613.200000
2212.813488	1722.000000
2214.426042	1646.600000
2216.039959	1689.800000
2217.651884	1699.400000
2219.265174	1660.600000
2220.876472	1673.400000
2222.485782	1643.800000
2224.096454	1663.200000
2225.705138	1686.000000
2227.313510	1635.600000
2228.919894	1656.400000
2230.527642	1626.000000
2232.133403	1631.800000
2233.738853	1626.400000
2235.342319	1609.800000
2236.947147	1574.600000
2238.549991	1566.800000
2240.150852	1547.200000
2241.753076	1552.800000
2243.353317	1594.600000
2244.954922	1528.000000
2246.552873	1573.800000
2248.152187	1598.200000
2249.749521	1544.000000
2251.346547	1540.200000
2252.944934	1605.800000
2254.539673	1642.400000
2256.132436	1630.800000
2257.726560	1622.800000
2259.322046	1615.800000
2260.913888	1642.200000
2262.505423	1574.200000
2264.098319	1612.800000
2265.685906	1622.800000
2267.278190	1670.600000
2268.865166	1633.600000
2270.455171	1639.000000
2272.039871	1594.800000
2273.629265	1639.200000
2275.213356	1612.600000
2276.798809	1603.000000
2278.382293	1650.600000
2279.968802	1576.800000
2281.551678	1527.800000
2283.134250	1550.800000
2284.716520	1540.800000
2286.295159	1544.400000
2287.876822	1513.200000
2289.454858	1543.600000
2291.035916	1494.200000
2292.613347	1509.000000
2294.188815	1523.800000
2295.767305	1525.800000
2297.342170	1499.400000
2298.916735	1453.800000
2300.491000	1470.600000
2302.064964	1487.600000
2303.638628	1478.800000
2305.211991	1459.000000
2306.781736	1441.000000
2308.351182	1530.400000
2309.923647	1478.000000
2311.490837	1465.800000
2313.061044	1472.200000
2314.627637	1465.400000
2316.195590	1466.800000
2317.761588	1453.000000
2319.327288	1424.800000
2320.892690	1427.800000
2322.456139	1420.800000
2324.020947	1465.200000
2325.582146	1497.400000
2327.146360	1514.600000
2328.705313	1525.000000
2330.267279	1522.000000
2331.827295	1490.800000
2333.387015	1432.000000
2334.944786	1422.800000
2336.502263	1360.200000
2338.059444	1407.800000
2339.614679	1358.400000
2341.169619	1440.200000
2342.724266	1418.800000
2344.278619	1430.200000
2345.832678	1436.800000
2347.386444	1425.000000
2348.938265	1417.800000
2350.488143	1426.600000
2352.041029	1433.600000
2353.588673	1467.800000
2355.139324	1472.200000
2356.686385	1489.400000
2358.234803	1489.200000
2359.782929	1461.200000
2361.327468	1467.400000
2362.873364	1443.400000
2364.417321	1490.600000
2365.962636	1455.400000
2367.504366	1489.000000
2369.047454	1475.200000
2370.588605	1494.200000
2372.129467	1445.800000
2373.670040	1474.000000
2375.210324	1455.200000
2376.750319	1429.800000
2378.286735	1418.200000
2379.826153	1443.000000
2381.361994	1453.000000
2382.899191	1413.200000
2384.432814	1423.000000
2385.969436	1377.400000
2387.504127	1373.200000
2389.036889	1369.600000
2390.569365	1372.200000
2392.099912	1389.800000
2393.633457	1349.400000
2395.161791	1441.200000
2396.691481	1341.000000
2398.220886	1407.800000
2399.750006	1346.400000
2401.278840	1379.600000
2402.802470	1358.200000
2404.330735	1366.800000
2405.853797	1365.200000
2407.381494	1364.400000
2408.902350	1382.600000
2410.427840	1423.200000
2411.949770	1430.200000
2413.473054	1429.400000
2414.994418	1371.600000
2416.513862	1405.400000
2418.034661	1397.600000
2419.553541	1396.400000
2421.072139	1444.000000
2422.588820	1389.000000
2424.106856	1452.000000
2425.624610	1437.800000
2427.138812	1440.200000
2428.652734	1458.200000
2430.166377	1459.600000
2431.681373	1552.000000
2433.192821	1502.400000
2434.705624	1557.800000
2436.216514	1552.800000
2437.727124	1576.400000
2439.235823	1494.800000
2440.747509	1541.000000
2442.255651	1525.000000
2443.763514	1556.000000
2445.271100	1574.200000
2446.775146	1612.800000
2448.282176	1586.400000
2449.787298	1610.000000
2451.292143	1660.600000
2452.795081	1599.200000
2454.297742	1571.000000
2455.800127	1661.800000
2457.300607	1618.800000
2458.802440	1602.600000
2460.302369	1594.400000
2461.802022	1562.200000
2463.301400	1595.400000
2464.798875	1605.400000
2466.294448	1599.000000
2467.793001	1587.000000
2469.288026	1532.800000
2470.784403	1548.800000
2472.277254	1535.000000
2473.771457	1522.600000
2475.265387	1513.800000
2476.755794	1526.000000
2478.249178	1502.400000
2479.740663	1503.800000
2481.230252	1477.600000
2482.719570	1467.000000
2484.206991	1475.400000
2485.697388	1493.600000
2487.184266	1527.400000
2488.672496	1536.800000
2490.157210	1449.600000
2491.641653	1471.600000
2493.127448	1500.600000
2494.611350	1459.400000
2496.096604	1513.600000
2497.576724	1488.200000
2499.059816	1480.400000
2500.541018	1468.000000
2502.021951	1461.000000
2503.500995	1477.400000
2504.979771	1401.600000
2506.458278	1473.400000
2507.936516	1409.000000
2509.414486	1396.200000
2510.888952	1449.000000
2512.366386	1382.400000
2513.840317	1378.400000
2515.315599	1421.800000
2516.790613	1370.400000
2518.262126	1397.200000
2519.734990	1384.800000
2521.205971	1356.200000
2522.678301	1395.600000
2524.145519	1329.400000
2525.615703	1337.800000
2527.084005	1375.000000
2528.552043	1311.200000
2530.019816	1368.000000
2531.487324	1353.000000
2532.954567	1320.400000
2534.418319	1273.200000
2535.883420	1266.200000
2537.346644	1316.000000
2538.811217	1282.000000
2540.272301	1248.400000
2541.734736	1311.400000
2543.196907	1270.400000
2544.655591	1323.000000
2546.118848	1276.200000
2547.577008	1289.600000
2549.036517	1288.400000
2550.490933	1347.600000
2551.949919	1303.800000
2553.407032	1331.400000
2554.862275	1366.400000
2556.317257	1370.200000
2557.770369	1341.600000
2559.224830	1348.600000
2560.677422	1383.000000
2562.129754	1419.800000
2563.580218	1389.200000
2565.033638	1446.800000
2566.481976	1360.400000
2567.933270	1440.400000
2569.382697	1403.600000
2570.828653	1463.600000
2572.277563	1429.400000
2573.723002	1457.800000
2575.169790	1422.800000
2576.614714	1453.400000
2578.059381	1445.600000
2579.505395	1431.600000
2580.947942	1484.200000
2582.391837	1455.400000
2583.832267	1447.800000
2585.274045	1481.400000
2586.713963	1385.200000
2588.155228	1504.400000
2589.593031	1482.200000
2591.033784	1437.400000
2592.469474	1429.200000
2593.908114	1467.400000
2595.344897	1411.400000
2596.779823	1421.800000
2598.217698	1355.000000
2599.650515	1433.600000
2601.084679	1390.400000
2602.516988	1332.400000
2603.950644	1356.200000
2605.382447	1313.800000
2606.813997	1378.400000
2608.245293	1342.800000
2609.674738	1374.600000
2611.103930	1362.400000
2612.531271	1372.800000
2613.959959	1367.800000
2615.388394	1330.600000
2616.813383	1403.600000
2618.239717	1348.600000
2619.664203	1386.600000
2621.090035	1382.400000
2622.512423	1418.600000
2623.936157	1434.800000
2625.358045	1437.600000
2626.779682	1456.400000
2628.199474	1493.000000
2629.620612	1512.800000
2631.041500	1491.800000
2632.458950	1535.000000
2633.879339	1536.600000
2635.296291	1573.400000
2636.712995	1638.200000
2638.129450	1655.600000
2639.545657	1717.400000
2640.961615	1698.000000
2642.375733	1716.400000
2643.789604	1787.200000
2645.201635	1800.800000
2646.615011	1814.600000
2648.024957	1870.000000
2649.437839	1893.600000
2650.847292	1962.800000
2652.256499	1998.400000
2653.663870	1946.400000
2655.074175	2058.600000
2656.482644	2132.800000
2657.889278	2189.400000
2659.295667	2234.200000
2660.700222	2392.000000
2662.106121	2443.800000
2663.510187	2489.600000
2664.914009	2666.200000
2666.317586	2772.800000
2667.719331	2958.000000
2669.122420	3125.800000
2670.522092	3264.400000
2671.923107	3451.800000
2673.320705	3577.600000
2674.721234	3723.800000
2676.118348	3950.400000
2677.516805	4107.400000
2678.913434	4356.400000
2680.309822	4524.800000
2681.705967	4711.400000
2683.100286	4817.200000
2684.495948	4916.400000
2685.888200	5030.200000
2687.281796	5144.000000
2688.673567	5201.000000
2690.066680	5072.400000
2691.457970	5039.200000
2692.847437	4990.400000
2694.236665	4775.400000
2695.625652	4563.000000
2697.015982	4411.800000
2698.401327	4301.600000
2699.789597	4112.800000
2701.176046	3833.600000
2702.562256	3703.000000
2703.948227	3569.800000
2705.330800	3416.600000
2706.714714	3220.600000
2708.098391	3061.400000
2709.481830	3022.600000
2710.861873	2783.600000
2712.243258	2710.400000
2713.622827	2568.000000
2715.003738	2472.400000
2716.382834	2390.400000
2717.760115	2299.200000
2719.138738	2215.000000
2720.515548	2187.400000
2721.892122	2094.000000
2723.268460	2128.200000
2724.642986	1992.600000
2726.018853	1979.800000
2727.391333	1912.600000
2728.766730	1862.600000
2730.137165	1799.400000
2731.508942	1791.000000
2732.880485	1716.200000
2734.250219	1753.000000
2735.621293	1720.600000
2736.990560	1627.600000
2738.359593	1620.800000
2739.726819	1552.000000
2741.093813	1560.600000
2742.460574	1559.800000
2743.827102	1522.600000
2745.191826	1518.800000
2746.556317	1463.600000
2747.920576	1422.400000
2749.284604	1434.200000
2750.648399	1375.800000
2752.008821	1424.000000
2753.372154	1377.200000
2754.730544	1348.800000
2756.091844	1359.400000
2757.449773	1303.600000
2758.810612	1377.200000
2760.169650	1290.000000
2761.525320	1346.800000
2762.883899	1237.200000
2764.239110	1286.800000
2765.594092	1225.600000
2766.947277	1301.400000
2768.303369	1245.800000
2769.656097	1255.800000
2771.008596	1205.000000
2772.360867	1251.000000
2773.714477	1237.800000
2775.064725	1253.400000
2776.413180	1254.200000
2777.764539	1284.600000
2779.112539	1287.400000
2780.461878	1268.200000
2781.809424	1287.200000
2783.156743	1293.400000
2784.503836	1269.800000
2785.849138	1294.200000
2787.194214	1292.000000
2788.539064	1248.800000
2789.883688	1241.400000
2791.224959	1226.800000
2792.567569	1237.600000
2793.909954	1277.200000
2795.252113	1242.400000
2796.590923	1254.200000
2797.932633	1235.000000
2799.270994	1256.600000
2800.610693	1279.200000
2801.948606	1248.800000
2803.284735	1255.200000
2804.620641	1263.200000
2805.957883	1222.400000
2807.293342	1295.200000
2808.628578	1290.400000
2809.962032	1300.400000
2811.296822	1299.800000
2812.628271	1318.400000
2813.962616	1285.600000
2815.292063	1289.800000
2816.622847	1319.400000
2817.953409	1331.400000
2819.282192	1323.600000
2820.612312	1294.400000
2821.940652	1264.400000
2823.268772	1268.600000
2824.595115	1222.800000
2825.922793	1217.800000
2827.247139	1194.200000
2828.572820	1181.800000
2829.896727	1107.400000
2831.220413	1153.800000
2832.545435	1116.600000
2833.867128	1156.400000
2835.188601	1138.400000
2836.509856	1184.000000
2837.830892	1145.600000
2839.150156	1147.200000
2840.470755	1158.600000
2841.789582	1142.800000
2843.108191	1196.800000
2844.425030	1139.200000
2845.741651	1095.000000
2847.058054	1095.800000
2848.372689	1061.800000
2849.688658	1082.600000
2851.001307	1051.400000
2852.315292	1106.600000
2853.629060	1075.200000
2854.942611	1100.600000
2856.254395	1079.200000
2857.564414	1089.000000
2858.875767	1043.200000
2860.183804	1088.000000
2861.493177	1083.600000
2862.802334	1123.400000
2864.111276	1057.800000
2865.418455	1078.600000
2866.723870	1115.200000
2868.030620	1103.200000
2869.335607	1089.000000
2870.640381	1088.400000
2871.943393	1108.000000
2873.249287	1102.200000
2874.550326	1097.800000
2875.852698	1116.600000
2877.153311	1128.200000
2878.455258	1108.400000
2879.756992	1074.400000
2881.055422	1092.000000
2882.355185	1080.600000
2883.653191	1070.000000
2884.950985	1059.400000
2886.247022	1046.600000
2887.544393	1045.800000
2888.840008	1034.000000
2890.135413	1067.800000
2891.430606	1021.400000
2892.722501	1012.200000
2894.017273	1021.800000
2895.308749	992.200000
2896.601557	1029.800000
2897.894155	1008.000000
2899.183458	1040.000000
2900.474094	1034.800000
2901.762980	980.400000
2903.053197	985.000000
2904.340123	1040.200000
2905.628381	1054.400000
2906.914890	1001.800000
2908.201190	1010.600000
2909.487282	997.400000
2910.771626	1007.000000
2912.058842	1038.400000
2913.341231	1061.000000
2914.624952	1026.800000
2915.906926	1033.000000
2917.188694	1041.400000
2918.468716	1051.600000
2919.751608	1047.600000
2921.032755	1012.600000
2922.310620	1094.800000
2923.591354	1074.800000
2924.868807	1078.400000
2926.146055	1002.600000
2927.421560	1048.600000
2928.699933	1038.200000
2929.973491	1005.600000
2931.249917	984.600000
2932.524602	994.600000
2933.797547	1017.200000
2935.071822	1034.000000
2936.344358	996.800000
2937.616690	1025.400000
2938.885749	985.600000
2940.157673	998.600000
2941.427859	980.800000
2942.697841	1038.200000
2943.967620	989.800000
2945.235662	987.200000
2946.501969	990.400000
2947.768073	985.800000
2949.035508	968.400000
2950.301207	975.600000
2951.566704	941.200000
2952.831999	1015.000000
2954.094030	937.000000
2955.357390	949.800000
2956.620549	942.200000
2957.881975	955.400000
2959.144731	917.600000
2960.405756	973.600000
2961.665050	929.600000
2962.924143	917.000000
2964.183036	919.800000
2965.441729	936.600000
2966.700222	936.000000
2967.956986	945.800000
2969.213551	959.800000
2970.468387	947.400000
2971.724553	935.200000
2972.977463	964.800000
2974.231703	950.600000
2975.485744	990.000000
2976.738059	980.400000
2977.990176	953.200000
2979.240568	930.200000
2980.493815	949.400000
2981.742285	938.200000
2982.993609	950.600000
2984.241685	960.400000
2985.489563	942.400000
2986.737244	958.200000
2987.984729	959.000000
2989.230492	899.000000
2990.476058	974.600000
2991.722953	936.600000
2992.966602	947.800000
2994.211580	954.200000
2995.453315	947.600000
2996.697901	908.800000
2997.940768	915.000000
2999.180393	919.000000
3000.422870	925.400000
3001.662106	942.400000
3002.902670	968.400000
3004.141517	958.800000
3005.380170	955.800000
3006.617107	923.800000
3007.855371	974.600000
3009.091921	967.400000
3010.328277	934.800000
3011.564439	949.400000
3012.798887	949.800000
3014.033142	881.200000
3015.267204	920.600000
3016.499554	901.000000
3017.730192	985.200000
3018.963676	919.200000
3020.195449	934.000000
3021.425510	951.600000
3022.655380	943.000000
3023.883540	920.600000
3025.113027	906.800000
3026.340804	913.400000
3027.568390	900.600000
3028.797302	899.000000
3030.021472	911.400000
3031.248485	931.800000
3032.472275	926.600000
3033.697390	875.000000
3034.920799	971.000000
3036.144019	886.000000
3037.365533	941.400000
3038.589888	883.600000
3039.809508	965.200000
3041.030454	902.400000
3042.251210	912.800000
3043.470263	888.000000
3044.690642	928.800000
3045.907804	888.600000
3047.126291	928.200000
3048.343077	888.000000
3049.559674	953.400000
3050.776084	899.000000
3051.989280	948.800000
3053.205314	914.800000
3054.418136	870.800000
3055.633795	917.800000
3056.844731	910.800000
3058.056993	886.400000
3059.269067	896.400000
3060.480955	901.600000
3061.691145	899.200000
3062.901150	938.200000
3064.110968	940.800000
3065.319090	903.000000
3066.527026	888.800000
3067.733268	909.800000
3068.940834	906.800000
3070.146705	889.800000
3071.352391	872.800000
3072.557893	867.000000
3073.761701	883.000000
3074.966833	870.800000
3076.170272	884.800000
3077.372019	897.200000
3078.573583	916.000000
3079.774963	849.800000
3080.976159	873.000000
3082.175665	881.800000
3083.374987	860.000000
3084.575633	861.200000
3085.774590	862.600000
3086.970351	838.800000
3088.168942	845.600000
3089.364339	786.200000
3090.561060	790.000000
3091.754588	801.400000
3092.950944	821.800000
3094.145613	808.600000
3095.337092	819.800000
3096.532902	777.200000
3097.724019	786.200000
3098.916459	843.000000
3100.105710	821.400000
3101.297788	794.800000
3102.488182	805.000000
3103.675389	785.400000
3104.863920	803.200000
3106.053773	798.200000
3107.240441	808.600000
3108.426930	802.600000
3109.613239	813.800000
3110.800871	815.000000
3111.985320	803.200000
3113.168089	807.200000
3114.353682	827.600000
3115.537594	853.600000
3116.719828	831.200000
3117.901884	781.800000
3119.083761	800.000000
3120.265460	863.400000
3121.445482	822.400000
3122.623826	821.000000
3123.804992	824.800000
3124.982982	796.400000
3126.160795	793.800000
3127.338431	818.600000
3128.514392	828.000000
3129.690177	786.800000
3130.867282	747.600000
3132.042714	803.200000
3133.216472	815.200000
3134.388557	771.000000
3135.561963	773.600000
3136.735194	776.400000
3137.906752	765.400000
3139.079632	750.200000
3140.249344	797.400000
3141.420377	750.000000
3142.589739	773.200000
3143.757432	758.600000
3144.927940	799.600000
3146.093789	769.000000
3147.263948	799.800000
3148.429449	754.200000
3149.594777	773.800000
3150.759931	791.200000
3151.924912	778.800000
3153.091212	791.800000
3154.252859	773.200000
3155.415827	793.000000
3156.578621	782.600000
3157.741243	750.000000
3158.902200	776.400000
3160.062984	774.600000
3161.223597	844.400000
3162.382545	771.200000
3163.541321	777.200000
3164.699926	781.000000
3165.858359	787.400000
3167.016620	777.000000
3168.173219	795.800000
3169.328157	774.800000
3170.484414	831.600000
3171.639011	776.200000
3172.793436	806.000000
3173.946202	766.200000
3175.098798	799.600000
3176.251224	817.400000
3177.403479	842.200000
3178.555565	774.000000
3179.704504	788.400000
3180.856250	823.000000
3182.006339	816.400000
3183.154770	778.800000
3184.303033	815.400000
3185.451127	818.400000
3186.599052	798.400000
3187.745321	808.400000
3188.891422	785.800000
3190.035869	842.200000
3191.180147	833.000000
3192.324258	807.400000
3193.469687	811.600000
3194.611977	787.400000
3195.754099	803.000000
3196.896055	769.200000
3198.037843	781.600000
3199.179464	766.600000
3200.317949	778.200000
3201.457753	742.600000
3202.598873	787.200000
3203.736859	768.000000
3204.873196	806.200000
3206.009367	781.600000
3207.146856	788.000000
3208.282696	767.600000
3209.419852	759.200000
3210.552397	741.200000
3211.689222	757.200000
3212.821436	732.200000
3213.954968	735.400000
3215.088334	750.600000
3216.218573	751.400000
3217.351611	733.600000
3218.481521	780.600000
3219.612749	753.200000
3220.740851	758.000000
3221.871751	750.000000
3223.001006	740.600000
3224.128617	754.800000
3225.253107	767.400000
3226.381872	787.800000
3227.507515	765.400000
3228.632995	761.400000
3229.756834	759.600000
3230.883468	778.000000
3232.005503	785.600000
3233.128855	791.400000
3234.252045	831.600000
3235.375073	831.200000
3236.496461	812.800000
3237.617688	811.800000
3238.737276	857.400000
3239.856703	853.800000
3240.974493	852.800000
3242.095074	826.600000
3243.212542	788.800000
3244.329849	827.800000
3245.446995	843.200000
3246.562506	790.600000
3247.679332	786.600000
3248.793047	813.200000
3249.909553	814.600000
3251.024423	776.000000
3252.136185	753.400000
3253.247788	766.400000
3254.360706	737.000000
3255.473464	707.000000
3256.583116	743.400000
3257.694083	697.800000
3258.804891	723.600000
3259.914067	685.200000
3261.021612	708.200000
3262.130472	675.400000
3263.239173	681.800000
3264.344772	672.600000
3265.451686	750.200000
3266.556970	688.400000
3267.663568	700.200000
3268.767066	722.600000
3269.871878	722.600000
3270.976533	723.800000
3272.078090	728.400000
3273.179490	708.000000
3274.282204	732.800000
3275.384761	712.200000
3276.484223	710.200000
3277.586467	735.800000
3278.685617	717.400000
3279.783141	699.200000
3280.880510	717.000000
3281.980662	646.000000
3283.077720	680.200000
3284.174624	665.400000
3285.271372	669.600000
3286.363561	675.000000
3287.460000	657.800000
3288.554816	655.600000
3289.649477	663.200000
3290.742517	635.400000
3291.835403	633.200000
3292.926668	596.400000
3294.019246	635.800000
3295.110204	645.200000
3296.199542	639.800000
3297.288727	579.400000
3298.379224	630.600000
3299.466637	635.400000
3300.553898	614.200000
3301.642471	619.800000
3302.730891	636.000000
3303.814764	618.200000
3304.902879	678.000000
3305.987913	629.400000
3307.071331	673.400000
3308.156061	641.600000
3309.239175	658.800000
3310.323601	677.200000
3311.404949	616.000000
3312.487609	621.200000
3313.568655	634.600000
3314.649550	647.200000
3315.728832	609.200000
3316.807963	654.000000
3317.888406	661.600000
3318.965774	643.600000
3320.044454	637.800000
3321.121522	600.400000
3322.198440	659.800000
3323.273748	628.000000
3324.348906	634.000000
3325.425375	632.000000
3326.498773	645.800000
3327.572023	635.200000
3328.646584	643.400000
3329.719535	651.000000
3330.790879	651.200000
3331.863533	618.400000
3332.933120	632.200000
3334.004018	623.800000
3335.073309	630.000000
3336.143911	622.800000
3337.212906	638.600000
3338.280295	650.800000
3339.346079	652.000000
3340.416089	641.400000
3341.483036	664.800000
3342.546921	632.000000
3343.613574	651.400000
3344.678623	645.600000
3345.742068	707.400000
3346.805366	665.000000
3347.868519	621.600000
3348.931525	661.400000
3349.994384	632.600000
3351.055642	646.800000
3352.113843	637.000000
3353.176265	648.400000
3354.235630	654.000000
3355.294851	589.000000
3356.355380	670.800000
3357.411400	661.800000
3358.470185	687.600000
3359.524462	649.400000
3360.581503	639.600000
3361.636945	648.800000
3362.693696	676.800000
3363.748850	636.800000
3364.802406	620.000000
3365.854365	607.600000
3366.909086	627.200000
3367.960759	623.200000
3369.012287	641.000000
3370.065125	642.400000
3371.114915	619.200000
3372.166014	593.600000
3373.214066	622.000000
3374.264879	593.600000
3375.312646	629.200000
3376.360271	604.200000
3377.407754	621.600000
3378.453643	622.000000
3379.500842	637.600000
3380.544997	598.200000
3381.591911	605.400000
3382.637233	590.600000
3383.679515	603.000000
3384.721655	621.600000
3385.765104	587.000000
3386.808411	559.600000
3387.850128	574.400000
3388.891704	579.600000
3389.933140	605.600000
3390.972987	601.200000
3392.011245	547.000000
3393.050811	597.200000
3394.090237	604.800000
3395.128075	583.000000
3396.164326	607.600000
3397.200437	599.200000
3398.237856	590.000000
3399.272242	593.000000
3400.307936	562.800000
3401.343490	542.400000
3402.376012	575.800000
3403.411288	566.200000
3404.443533	551.800000
3405.475640	552.600000
3406.506163	570.400000
3407.537994	542.600000
3408.569686	562.400000
3409.598350	547.800000
3410.626877	554.800000
3411.656710	565.400000
3412.686406	589.600000
3413.713075	542.800000
3414.741052	573.800000
3415.766004	567.200000
3416.793706	596.800000
3417.818385	582.400000
3418.844370	588.400000
3419.868776	567.600000
3420.893044	573.000000
3421.915734	565.800000
3422.938289	570.000000
3423.962148	551.600000
3424.982989	592.400000
3426.003693	558.200000
3427.025703	593.400000
3428.044695	541.200000
3429.063552	559.000000
3430.083715	582.000000
3431.100860	579.800000
